#     FILENAME=!Skynet_57528_lach-cc-181_20569_21004.cyb.fits
#     BASENAME=Skynet_57528_lach-cc-181_20569_21004
#     SRC_NAME=lach-cc-181
#     OBSERVER=ccmadison16_9505
#     DATE_OBS=2016-05-20T18:42:10.430
#        OBSID=20569
#      SCANNUM=21004
#          MJD=57528.7803
#          UTC=67420
#     SCANTYPE=track
#     DATAMODE=HIRES
#     TUNEFREQ=1420.0000
# Actual_FREQ1=1420.0000
# Actual_FREQ2=1420.0000
#    LO1Tuning=6870.000
#     RFFILTER=1355_1435
#        OBSBW=-15.6250
#        NCHAN=1024 
#        FOCUS=37.0709
#           RA=05:47:56.35
#          DEC=28:04:52.81
#      RA(hrs)=5.799000
#     DEC(deg)=28.081300
#    AZIM(deg)=145.552
#    ELEV(deg)=77.724
#     IFattens=10.00, 9.00
#      WARNING=None
#    TCAL_XL1=7.9635
#    TCAL_YR1=9.1340
#    TCAL_XL2=7.9635
#    TCAL_YR2=9.1340
#     TRX_XL1=11.7060
#     TRX_YR1=11.7060
#     TRX_XL2=11.7060
#     TRX_YR2=11.7060
#        TAVE=1.0000
#Freq1(MHz)          XL1          YR1  Freq2(MHz)          XL2          YR2 

   1427.81250     377.3746     345.9105   1427.81250     377.3746     345.9105
   1427.79724     378.0914     346.5770   1427.79724     378.0914     346.5770
   1427.78198     379.2758     348.1279   1427.78198     379.2758     348.1279
   1427.76672     379.1658     349.9144   1427.76672     379.1658     349.9144
   1427.75146     380.7330     351.1764   1427.75146     380.7330     351.1764
   1427.73621     382.1239     353.2751   1427.73621     382.1239     353.2751
   1427.72095     382.2704     355.0533   1427.72095     382.2704     355.0533
   1427.70569     383.3727     356.3463   1427.70569     383.3727     356.3463
   1427.69043     383.4140     357.9156   1427.69043     383.4140     357.9156
   1427.67517     384.6324     359.5749   1427.67517     384.6324     359.5749
   1427.65991     386.2256     361.7140   1427.65991     386.2256     361.7140
   1427.64465     387.7002     363.3243   1427.64465     387.7002     363.3243
   1427.62939     388.6272     364.4316   1427.62939     388.6272     364.4316
   1427.61414     389.8440     366.7241   1427.61414     389.8440     366.7241
   1427.59888     391.5080     368.6864   1427.59888     391.5080     368.6864
   1427.58362     392.5316     370.7261   1427.58362     392.5316     370.7261
   1427.56836     393.9104     372.1372   1427.56836     393.9104     372.1372
   1427.55310     396.2141     374.2584   1427.55310     396.2141     374.2584
   1427.53784     396.5384     376.5947   1427.53784     396.5384     376.5947
   1427.52258     398.6407     378.2281   1427.52258     398.6407     378.2281
   1427.50732     399.9660     380.3470   1427.50732     399.9660     380.3470
   1427.49207     402.1884     382.4038   1427.49207     402.1884     382.4038
   1427.47681     403.9393     384.9845   1427.47681     403.9393     384.9845
   1427.46155     405.4193     386.9544   1427.46155     405.4193     386.9544
   1427.44629     407.3959     388.3760   1427.44629     407.3959     388.3760
   1427.43103     409.0765     391.1483   1427.43103     409.0765     391.1483
   1427.41577     409.9816     392.7332   1427.41577     409.9816     392.7332
   1427.40051     412.3979     395.0660   1427.40051     412.3979     395.0660
   1427.38525     414.2167     398.1618   1427.38525     414.2167     398.1618
   1427.37000     416.9806     399.8405   1427.37000     416.9806     399.8405
   1427.35474     418.1223     402.6650   1427.35474     418.1223     402.6650
   1427.33948     420.0065     404.8941   1427.33948     420.0065     404.8941
   1427.32422     422.9492     406.3721   1427.32422     422.9492     406.3721
   1427.30896     425.6281     409.9250   1427.30896     425.6281     409.9250
   1427.29370     427.0523     411.3807   1427.29370     427.0523     411.3807
   1427.27844     429.0703     414.0826   1427.27844     429.0703     414.0826
   1427.26318     431.4335     416.3902   1427.26318     431.4335     416.3902
   1427.24792     434.6998     419.3520   1427.24792     434.6998     419.3520
   1427.23267     436.4674     421.9040   1427.23267     436.4674     421.9040
   1427.21741     438.3975     423.9535   1427.21741     438.3975     423.9535
   1427.20215     441.1080     426.7003   1427.20215     441.1080     426.7003
   1427.18689     444.3189     428.8101   1427.18689     444.3189     428.8101
   1427.17163     446.0629     431.4335   1427.17163     446.0629     431.4335
   1427.15637     448.3858     433.9872   1427.15637     448.3858     433.9872
   1427.14111     451.3130     436.0201   1427.14111     451.3130     436.0201
   1427.12585     454.1144     438.4263   1427.12585     454.1144     438.4263
   1427.11060     456.4322     441.5400   1427.11060     456.4322     441.5400
   1427.09534     459.4948     443.8469   1427.09534     459.4948     443.8469
   1427.08008     461.7234     445.9325   1427.08008     461.7234     445.9325
   1427.06482     464.0909     448.6493   1427.06482     464.0909     448.6493
   1427.04956     467.7461     450.9034   1427.04956     467.7461     450.9034
   1427.03430     470.4573     453.9586   1427.03430     470.4573     453.9586
   1427.01904     472.5952     455.5683   1427.01904     472.5952     455.5683
   1427.00378     476.2365     458.8506   1427.00378     476.2365     458.8506
   1426.98853     478.3239     461.2440   1426.98853     478.3239     461.2440
   1426.97327     481.3331     464.0759   1426.97327     481.3331     464.0759
   1426.95801     484.2314     466.1411   1426.95801     484.2314     466.1411
   1426.94275     486.5483     468.7325   1426.94275     486.5483     468.7325
   1426.92749     489.7653     471.1485   1426.92749     489.7653     471.1485
   1426.91223     493.1845     473.8686   1426.91223     493.1845     473.8686
   1426.89697     496.6085     476.3745   1426.89697     496.6085     476.3745
   1426.88171     499.1583     478.4272   1426.88171     499.1583     478.4272
   1426.86646     501.9145     481.1973   1426.86646     501.9145     481.1973
   1426.85120     504.4885     483.3904   1426.85120     504.4885     483.3904
   1426.83594     509.1698     486.6154   1426.83594     509.1698     486.6154
   1426.82068     511.2901     489.3631   1426.82068     511.2901     489.3631
   1426.80542     514.2585     490.9155   1426.80542     514.2585     490.9155
   1426.79016     516.6045     494.0115   1426.79016     516.6045     494.0115
   1426.77490     520.4473     496.0396   1426.77490     520.4473     496.0396
   1426.75964     523.3469     497.9396   1426.75964     523.3469     497.9396
   1426.74438     526.5669     500.8798   1426.74438     526.5669     500.8798
   1426.72913     528.5699     503.2428   1426.72913     528.5699     503.2428
   1426.71387     533.1238     505.8316   1426.71387     533.1238     505.8316
   1426.69861     535.4042     507.9570   1426.69861     535.4042     507.9570
   1426.68335     538.6918     510.7012   1426.68335     538.6918     510.7012
   1426.66809     542.4091     512.3051   1426.66809     542.4091     512.3051
   1426.65283     545.4512     515.8710   1426.65283     545.4512     515.8710
   1426.63757     549.1824     516.7717   1426.63757     549.1824     516.7717
   1426.62231     552.3690     520.1313   1426.62231     552.3690     520.1313
   1426.60706     555.1210     521.3954   1426.60706     555.1210     521.3954
   1426.59180     557.2012     524.9231   1426.59180     557.2012     524.9231
   1426.57654     560.8216     526.8442   1426.57654     560.8216     526.8442
   1426.56128     563.4570     527.8967   1426.56128     563.4570     527.8967
   1426.54602     567.0389     530.2783   1426.54602     567.0389     530.2783
   1426.53076     570.7145     533.6129   1426.53076     570.7145     533.6129
   1426.51550     573.3542     535.4727   1426.51550     573.3542     535.4727
   1426.50024     576.8673     538.0988   1426.50024     576.8673     538.0988
   1426.48499     580.1733     540.4257   1426.48499     580.1733     540.4257
   1426.46973     581.9294     541.8173   1426.46973     581.9294     541.8173
   1426.45447     586.9335     544.2043   1426.45447     586.9335     544.2043
   1426.43921     588.7462     547.1219   1426.43921     588.7462     547.1219
   1426.42395     592.6508     548.5306   1426.42395     592.6508     548.5306
   1426.40869     595.2815     550.3668   1426.40869     595.2815     550.3668
   1426.39343     598.6061     552.2656   1426.39343     598.6061     552.2656
   1426.37817     600.8306     554.0125   1426.37817     600.8306     554.0125
   1426.36292     604.5505     556.6553   1426.36292     604.5505     556.6553
   1426.34766     606.4500     558.8072   1426.34766     606.4500     558.8072
   1426.33240     610.2612     561.3281   1426.33240     610.2612     561.3281
   1426.31714     613.0393     562.9600   1426.31714     613.0393     562.9600
   1426.30188     616.1667     563.9899   1426.30188     616.1667     563.9899
   1426.28662     619.7272     567.0602   1426.28662     619.7272     567.0602
   1426.27136     621.9351     568.0826   1426.27136     621.9351     568.0826
   1426.25610     624.7720     569.5000   1426.25610     624.7720     569.5000
   1426.24084     627.0291     571.8502   1426.24084     627.0291     571.8502
   1426.22559     630.5980     573.0983   1426.22559     630.5980     573.0983
   1426.21033     634.4023     575.1232   1426.21033     634.4023     575.1232
   1426.19507     635.7108     577.3881   1426.19507     635.7108     577.3881
   1426.17981     639.7363     579.5109   1426.17981     639.7363     579.5109
   1426.16455     642.1647     580.7572   1426.16455     642.1647     580.7572
   1426.14929     644.8904     582.7025   1426.14929     644.8904     582.7025
   1426.13403     647.7700     584.6005   1426.13403     647.7700     584.6005
   1426.11877     650.3091     585.9343   1426.11877     650.3091     585.9343
   1426.10352     652.6222     587.1893   1426.10352     652.6222     587.1893
   1426.08826     656.0952     589.4387   1426.08826     656.0952     589.4387
   1426.07300     658.0844     590.4789   1426.07300     658.0844     590.4789
   1426.05774     660.9706     592.3605   1426.05774     660.9706     592.3605
   1426.04248     662.8633     594.1837   1426.04248     662.8633     594.1837
   1426.02722     667.1981     595.1938   1426.02722     667.1981     595.1938
   1426.01196     669.2307     596.9535   1426.01196     669.2307     596.9535
   1425.99670     671.3549     599.5068   1425.99670     671.3549     599.5068
   1425.98145     673.7605     599.9814   1425.98145     673.7605     599.9814
   1425.96619     676.4625     601.2297   1425.96619     676.4625     601.2297
   1425.95093     677.8874     602.2241   1425.95093     677.8874     602.2241
   1425.93567     680.0446     603.0807   1425.93567     680.0446     603.0807
   1425.92041     683.1169     605.5984   1425.92041     683.1169     605.5984
   1425.90515     685.8268     606.2190   1425.90515     685.8268     606.2190
   1425.88989     688.6898     607.5425   1425.88989     688.6898     607.5425
   1425.87463     691.2952     609.1036   1425.87463     691.2952     609.1036
   1425.85938     692.6934     611.1937   1425.85938     692.6934     611.1937
   1425.84412     694.7449     610.5413   1425.84412     694.7449     610.5413
   1425.82886     696.3096     613.1280   1425.82886     696.3096     613.1280
   1425.81360     699.7599     613.8410   1425.81360     699.7599     613.8410
   1425.79834     701.6779     615.9359   1425.79834     701.6779     615.9359
   1425.78308     704.1686     613.9977   1425.78308     704.1686     613.9977
   1425.76782     705.2305     616.8293   1425.76782     705.2305     616.8293
   1425.75256     707.1577     618.0521   1425.75256     707.1577     618.0521
   1425.73730     709.7404     620.1133   1425.73730     709.7404     620.1133
   1425.72205     712.4836     619.9372   1425.72205     712.4836     619.9372
   1425.70679     714.2896     621.1513   1425.70679     714.2896     621.1513
   1425.69153     714.5202     622.6964   1425.69153     714.5202     622.6964
   1425.67627     718.4188     623.8785   1425.67627     718.4188     623.8785
   1425.66101     718.1555     624.1450   1425.66101     718.1555     624.1450
   1425.64575     721.5348     625.3214   1425.64575     721.5348     625.3214
   1425.63049     722.1776     627.8035   1425.63049     722.1776     627.8035
   1425.61523     724.2528     627.2055   1425.61523     724.2528     627.2055
   1425.59998     726.3282     628.0444   1425.59998     726.3282     628.0444
   1425.58472     728.0945     629.1687   1425.58472     728.0945     629.1687
   1425.56946     729.5023     629.9327   1425.56946     729.5023     629.9327
   1425.55420     731.1284     631.1934   1425.55420     731.1284     631.1934
   1425.53894     733.1255     631.4572   1425.53894     733.1255     631.4572
   1425.52368     734.6121     631.1733   1425.52368     734.6121     631.1733
   1425.50842     736.4230     634.1505   1425.50842     736.4230     634.1505
   1425.49316     736.6962     633.5819   1425.49316     736.6962     633.5819
   1425.47791     738.5217     634.6309   1425.47791     738.5217     634.6309
   1425.46265     738.7723     635.6242   1425.46265     738.7723     635.6242
   1425.44739     741.6035     635.6870   1425.44739     741.6035     635.6870
   1425.43213     743.9152     636.2465   1425.43213     743.9152     636.2465
   1425.41687     743.7492     636.6226   1425.41687     743.7492     636.6226
   1425.40161     745.5456     637.5344   1425.40161     745.5456     637.5344
   1425.38635     745.8211     638.8949   1425.38635     745.8211     638.8949
   1425.37109     746.4481     638.7416   1425.37109     746.4481     638.7416
   1425.35583     749.0516     637.6646   1425.35583     749.0516     637.6646
   1425.34058     750.1531     639.9105   1425.34058     750.1531     639.9105
   1425.32532     752.1792     639.2622   1425.32532     752.1792     639.2622
   1425.31006     752.6894     639.5901   1425.31006     752.6894     639.5901
   1425.29480     754.2803     640.9140   1425.29480     754.2803     640.9140
   1425.27954     754.2914     640.5991   1425.27954     754.2914     640.5991
   1425.26428     755.0371     640.9277   1425.26428     755.0371     640.9277
   1425.24902     755.9595     641.9163   1425.24902     755.9595     641.9163
   1425.23376     757.8328     641.7136   1425.23376     757.8328     641.7136
   1425.21851     758.6002     641.0900   1425.21851     758.6002     641.0900
   1425.20325     760.0766     641.9736   1425.20325     760.0766     641.9736
   1425.18799     760.9914     642.6044   1425.18799     760.9914     642.6044
   1425.17273     760.0676     643.0921   1425.17273     760.0676     643.0921
   1425.15747     762.0237     643.5132   1425.15747     762.0237     643.5132
   1425.14221     761.2905     643.7712   1425.14221     761.2905     643.7712
   1425.12695     762.7249     644.1465   1425.12695     762.7249     644.1465
   1425.11169     764.1178     644.2102   1425.11169     764.1178     644.2102
   1425.09644     764.7247     643.4292   1425.09644     764.7247     643.4292
   1425.08118     765.5503     644.1379   1425.08118     765.5503     644.1379
   1425.06592     766.1906     643.4434   1425.06592     766.1906     643.4434
   1425.05066     766.1306     642.7469   1425.05066     766.1306     642.7469
   1425.03540     767.9481     644.7495   1425.03540     767.9481     644.7495
   1425.02014     767.4696     644.0182   1425.02014     767.4696     644.0182
   1425.00488     767.7882     644.5488   1425.00488     767.7882     644.5488
   1424.98962     768.3486     644.6221   1424.98962     768.3486     644.6221
   1424.97437     769.1867     644.4166   1424.97437     769.1867     644.4166
   1424.95911     769.6887     645.0446   1424.95911     769.6887     645.0446
   1424.94385     770.3075     644.9224   1424.94385     770.3075     644.9224
   1424.92859     768.7664     645.0757   1424.92859     768.7664     645.0757
   1424.91333     770.2338     644.1339   1424.91333     770.2338     644.1339
   1424.89807     770.4257     643.3700   1424.89807     770.4257     643.3700
   1424.88281     771.1127     644.9017   1424.88281     771.1127     644.9017
   1424.86755     770.7937     644.0552   1424.86755     770.7937     644.0552
   1424.85229     770.4420     644.4520   1424.85229     770.4420     644.4520
   1424.83704     771.1083     643.0948   1424.83704     771.1083     643.0948
   1424.82178     772.6002     644.2764   1424.82178     772.6002     644.2764
   1424.80652     771.7632     643.2848   1424.80652     771.7632     643.2848
   1424.79126     772.3742     643.9279   1424.79126     772.3742     643.9279
   1424.77600     772.3163     642.5184   1424.77600     772.3163     642.5184
   1424.76074     771.6957     644.3738   1424.76074     771.6957     644.3738
   1424.74548     772.2270     642.8937   1424.74548     772.2270     642.8937
   1424.73022     772.0103     642.2624   1424.73022     772.0103     642.2624
   1424.71497     772.8433     643.0132   1424.71497     772.8433     643.0132
   1424.69971     773.3322     642.4835   1424.69971     773.3322     642.4835
   1424.68445     772.5632     641.2473   1424.68445     772.5632     641.2473
   1424.66919     773.1846     641.5542   1424.66919     773.1846     641.5542
   1424.65393     772.3269     641.1018   1424.65393     772.3269     641.1018
   1424.63867     773.0441     640.2155   1424.63867     773.0441     640.2155
   1424.62341     772.9782     639.7867   1424.62341     772.9782     639.7867
   1424.60815     772.4279     640.7812   1424.60815     772.4279     640.7812
   1424.59290     772.1666     639.5586   1424.59290     772.1666     639.5586
   1424.57764     772.2107     639.5739   1424.57764     772.2107     639.5739
   1424.56238     771.7756     638.8437   1424.56238     771.7756     638.8437
   1424.54712     772.5667     638.2585   1424.54712     772.5667     638.2585
   1424.53186     772.2887     638.9473   1424.53186     772.2887     638.9473
   1424.51660     770.2319     637.9270   1424.51660     770.2319     637.9270
   1424.50134     771.8353     637.2074   1424.50134     771.8353     637.2074
   1424.48608     771.0599     636.5754   1424.48608     771.0599     636.5754
   1424.47083     771.1455     636.7809   1424.47083     771.1455     636.7809
   1424.45557     769.8740     635.6574   1424.45557     769.8740     635.6574
   1424.44031     769.4042     633.5996   1424.44031     769.4042     633.5996
   1424.42505     769.5220     634.1749   1424.42505     769.5220     634.1749
   1424.40979     770.6497     634.0156   1424.40979     770.6497     634.0156
   1424.39453     769.2927     634.2289   1424.39453     769.2927     634.2289
   1424.37927     769.2074     633.6170   1424.37927     769.2074     633.6170
   1424.36401     768.9208     633.3461   1424.36401     768.9208     633.3461
   1424.34875     769.2511     632.5289   1424.34875     769.2511     632.5289
   1424.33350     767.4685     632.4914   1424.33350     767.4685     632.4914
   1424.31824     767.2975     631.4808   1424.31824     767.2975     631.4808
   1424.30298     768.3252     631.7152   1424.30298     768.3252     631.7152
   1424.28772     767.7667     629.5380   1424.28772     767.7667     629.5380
   1424.27246     766.5535     628.7195   1424.27246     766.5535     628.7195
   1424.25720     765.7586     628.2081   1424.25720     765.7586     628.2081
   1424.24194     765.7017     627.2637   1424.24194     765.7017     627.2637
   1424.22668     765.6715     627.7957   1424.22668     765.6715     627.7957
   1424.21143     766.3481     626.5723   1424.21143     766.3481     626.5723
   1424.19617     764.4151     626.8007   1424.19617     764.4151     626.8007
   1424.18091     765.1011     626.4806   1424.18091     765.1011     626.4806
   1424.16565     764.7443     624.1074   1424.16565     764.7443     624.1074
   1424.15039     763.4801     624.1818   1424.15039     763.4801     624.1818
   1424.13513     762.4567     624.8121   1424.13513     762.4567     624.8121
   1424.11987     762.8649     623.0344   1424.11987     762.8649     623.0344
   1424.10461     764.1176     622.4139   1424.10461     764.1176     622.4139
   1424.08936     762.1614     622.2095   1424.08936     762.1614     622.2095
   1424.07410     760.9506     621.7533   1424.07410     760.9506     621.7533
   1424.05884     760.2098     620.3914   1424.05884     760.2098     620.3914
   1424.04358     760.1526     619.7712   1424.04358     760.1526     619.7712
   1424.02832     761.3237     619.1996   1424.02832     761.3237     619.1996
   1424.01306     759.8191     618.2687   1424.01306     759.8191     618.2687
   1423.99780     759.3864     617.0269   1423.99780     759.3864     617.0269
   1423.98254     758.8090     616.9239   1423.98254     758.8090     616.9239
   1423.96729     757.8763     616.5986   1423.96729     757.8763     616.5986
   1423.95203     757.8465     615.4186   1423.95203     757.8465     615.4186
   1423.93677     756.9415     613.4788   1423.93677     756.9415     613.4788
   1423.92151     756.8828     613.8539   1423.92151     756.8828     613.8539
   1423.90625     755.7540     613.7430   1423.90625     755.7540     613.7430
   1423.89099     755.8013     612.0597   1423.89099     755.8013     612.0597
   1423.87573     755.1533     611.1985   1423.87573     755.1533     611.1985
   1423.86047     754.8843     609.8645   1423.86047     754.8843     609.8645
   1423.84521     754.7119     610.4242   1423.84521     754.7119     610.4242
   1423.82996     753.0977     609.4689   1423.82996     753.0977     609.4689
   1423.81470     754.5448     607.6285   1423.81470     754.5448     607.6285
   1423.79944     753.9874     607.6439   1423.79944     753.9874     607.6439
   1423.78418     752.1869     607.0508   1423.78418     752.1869     607.0508
   1423.76892     752.0859     606.0834   1423.76892     752.0859     606.0834
   1423.75366     750.3956     606.1830   1423.75366     750.3956     606.1830
   1423.73840     752.3030     604.3773   1423.73840     752.3030     604.3773
   1423.72314     749.5853     602.8615   1423.72314     749.5853     602.8615
   1423.70789     749.8051     603.2888   1423.70789     749.8051     603.2888
   1423.69263     748.3881     601.5904   1423.69263     748.3881     601.5904
   1423.67737     748.5832     600.7831   1423.67737     748.5832     600.7831
   1423.66211     748.3023     600.0956   1423.66211     748.3023     600.0956
   1423.64685     747.1395     599.0443   1423.64685     747.1395     599.0443
   1423.63159     746.6895     598.7931   1423.63159     746.6895     598.7931
   1423.61633     747.7568     598.4614   1423.61633     747.7568     598.4614
   1423.60107     746.1528     596.9174   1423.60107     746.1528     596.9174
   1423.58582     745.4730     595.4272   1423.58582     745.4730     595.4272
   1423.57056     745.6594     595.3948   1423.57056     745.6594     595.3948
   1423.55530     746.6869     594.0688   1423.55530     746.6869     594.0688
   1423.54004     745.6814     593.3493   1423.54004     745.6814     593.3493
   1423.52478     743.5481     593.0312   1423.52478     743.5481     593.0312
   1423.50952     743.5714     590.9633   1423.50952     743.5714     590.9633
   1423.49426     743.2626     590.4986   1423.49426     743.2626     590.4986
   1423.47900     741.7846     590.5124   1423.47900     741.7846     590.5124
   1423.46375     742.9945     589.0862   1423.46375     742.9945     589.0862
   1423.44849     742.2905     587.3054   1423.44849     742.2905     587.3054
   1423.43323     741.8237     586.6971   1423.43323     741.8237     586.6971
   1423.41797     741.2830     586.1410   1423.41797     741.2830     586.1410
   1423.40271     739.6922     584.9010   1423.40271     739.6922     584.9010
   1423.38745     740.6052     583.6586   1423.38745     740.6052     583.6586
   1423.37219     740.6322     583.8638   1423.37219     740.6322     583.8638
   1423.35693     739.0432     581.9256   1423.35693     739.0432     581.9256
   1423.34167     738.4238     581.5295   1423.34167     738.4238     581.5295
   1423.32642     738.2954     579.7229   1423.32642     738.2954     579.7229
   1423.31116     738.8860     579.2563   1423.31116     738.8860     579.2563
   1423.29590     737.3115     578.6786   1423.29590     737.3115     578.6786
   1423.28064     737.0330     577.6518   1423.28064     737.0330     577.6518
   1423.26538     736.4064     576.6420   1423.26538     736.4064     576.6420
   1423.25012     736.3862     575.0775   1423.25012     736.3862     575.0775
   1423.23486     735.2620     575.4900   1423.23486     735.2620     575.4900
   1423.21960     736.4719     573.3472   1423.21960     736.4719     573.3472
   1423.20435     734.9044     573.0902   1423.20435     734.9044     573.0902
   1423.18909     734.5196     572.0331   1423.18909     734.5196     572.0331
   1423.17383     734.1602     572.1103   1423.17383     734.1602     572.1103
   1423.15857     734.0499     570.6346   1423.15857     734.0499     570.6346
   1423.14331     733.0234     569.5192   1423.14331     733.0234     569.5192
   1423.12805     733.0573     568.4080   1423.12805     733.0573     568.4080
   1423.11279     733.2466     567.3457   1423.11279     733.2466     567.3457
   1423.09753     732.2161     566.0798   1423.09753     732.2161     566.0798
   1423.08228     733.0648     566.6513   1423.08228     733.0648     566.6513
   1423.06702     731.7606     565.7072   1423.06702     731.7606     565.7072
   1423.05176     732.5084     564.1148   1423.05176     732.5084     564.1148
   1423.03650     731.2874     562.0635   1423.03650     731.2874     562.0635
   1423.02124     731.9838     561.3925   1423.02124     731.9838     561.3925
   1423.00598     730.7811     560.4989   1423.00598     730.7811     560.4989
   1422.99072     731.6300     559.7938   1422.99072     731.6300     559.7938
   1422.97546     730.2708     558.7559   1422.97546     730.2708     558.7559
   1422.96021     730.2153     557.5848   1422.96021     730.2153     557.5848
   1422.94495     729.6425     557.2570   1422.94495     729.6425     557.2570
   1422.92969     730.3192     556.0257   1422.92969     730.3192     556.0257
   1422.91443     729.1819     555.4582   1422.91443     729.1819     555.4582
   1422.89917     728.9798     554.5689   1422.89917     728.9798     554.5689
   1422.88391     728.2859     552.6003   1422.88391     728.2859     552.6003
   1422.86865     728.0640     552.1353   1422.86865     728.0640     552.1353
   1422.85339     727.1239     551.3023   1422.85339     727.1239     551.3023
   1422.83813     729.0450     550.9914   1422.83813     729.0450     550.9914
   1422.82288     728.1393     549.0603   1422.82288     728.1393     549.0603
   1422.80762     728.0838     547.7568   1422.80762     728.0838     547.7568
   1422.79236     727.1425     547.7525   1422.79236     727.1425     547.7525
   1422.77710     727.1125     546.7161   1422.77710     727.1125     546.7161
   1422.76184     726.7542     545.3524   1422.76184     726.7542     545.3524
   1422.74658     726.0732     544.7673   1422.74658     726.0732     544.7673
   1422.73132     726.1653     543.8203   1422.73132     726.1653     543.8203
   1422.71606     725.6448     542.6699   1422.71606     725.6448     542.6699
   1422.70081     725.3885     541.9904   1422.70081     725.3885     541.9904
   1422.68555     725.2853     540.2817   1422.68555     725.2853     540.2817
   1422.67029     726.5659     539.4783   1422.67029     726.5659     539.4783
   1422.65503     725.5827     538.7392   1422.65503     725.5827     538.7392
   1422.63977     724.7123     537.2658   1422.63977     724.7123     537.2658
   1422.62451     725.6231     535.8784   1422.62451     725.6231     535.8784
   1422.60925     724.1276     535.6044   1422.60925     724.1276     535.6044
   1422.59399     725.3987     534.8069   1422.59399     725.3987     534.8069
   1422.57874     723.8171     533.5851   1422.57874     723.8171     533.5851
   1422.56348     724.1871     532.2350   1422.56348     724.1871     532.2350
   1422.54822     723.5391     531.6552   1422.54822     723.5391     531.6552
   1422.53296     723.5275     530.3858   1422.53296     723.5275     530.3858
   1422.51770     724.1145     529.4473   1422.51770     724.1145     529.4473
   1422.50244     723.8972     528.7866   1422.50244     723.8972     528.7866
   1422.48718     723.6875     526.9918   1422.48718     723.6875     526.9918
   1422.47192     723.2333     526.3033   1422.47192     723.2333     526.3033
   1422.45667     723.2966     525.3408   1422.45667     723.2966     525.3408
   1422.44141     723.9736     524.3309   1422.44141     723.9736     524.3309
   1422.42615     722.6404     523.5682   1422.42615     722.6404     523.5682
   1422.41089     723.1498     522.9095   1422.41089     723.1498     522.9095
   1422.39563     722.7502     521.0209   1422.39563     722.7502     521.0209
   1422.38037     723.1188     520.7120   1422.38037     723.1188     520.7120
   1422.36511     721.8515     519.0306   1422.36511     721.8515     519.0306
   1422.34985     722.5371     518.4424   1422.34985     722.5371     518.4424
   1422.33459     721.5332     517.6237   1422.33459     721.5332     517.6237
   1422.31934     722.6599     516.1518   1422.31934     722.6599     516.1518
   1422.30408     722.2706     516.0029   1422.30408     722.2706     516.0029
   1422.28882     721.5767     514.9453   1422.28882     721.5767     514.9453
   1422.27356     721.8290     513.6769   1422.27356     721.8290     513.6769
   1422.25830     721.9586     513.2750   1422.25830     721.9586     513.2750
   1422.24304     721.5002     513.1459   1422.24304     721.5002     513.1459
   1422.22778     723.0583     511.0281   1422.22778     723.0583     511.0281
   1422.21252     721.0091     510.1480   1422.21252     721.0091     510.1480
   1422.19727     722.2453     509.5499   1422.19727     722.2453     509.5499
   1422.18201     721.1565     508.8511   1422.18201     721.1565     508.8511
   1422.16675     720.5005     507.7907   1422.16675     720.5005     507.7907
   1422.15149     721.3758     507.4719   1422.15149     721.3758     507.4719
   1422.13623     720.8090     504.9392   1422.13623     720.8090     504.9392
   1422.12097     721.3537     504.5415   1422.12097     721.3537     504.5415
   1422.10571     719.9584     503.2881   1422.10571     719.9584     503.2881
   1422.09045     720.0330     502.7803   1422.09045     720.0330     502.7803
   1422.07520     720.3997     501.0300   1422.07520     720.3997     501.0300
   1422.05994     720.4590     500.5130   1422.05994     720.4590     500.5130
   1422.04468     721.2288     499.8944   1422.04468     721.2288     499.8944
   1422.02942     720.5021     498.8550   1422.02942     720.5021     498.8550
   1422.01416     720.5940     499.0026   1422.01416     720.5940     499.0026
   1421.99890     719.3230     497.5221   1421.99890     719.3230     497.5221
   1421.98364     719.5222     495.9787   1421.98364     719.5222     495.9787
   1421.96838     719.5431     495.1450   1421.96838     719.5431     495.1450
   1421.95312     719.8658     494.3785   1421.95312     719.8658     494.3785
   1421.93787     720.2534     493.0276   1421.93787     720.2534     493.0276
   1421.92261     719.7854     492.4533   1421.92261     719.7854     492.4533
   1421.90735     720.2148     491.5930   1421.90735     720.2148     491.5930
   1421.89209     718.7162     490.5554   1421.89209     718.7162     490.5554
   1421.87683     718.2736     489.8293   1421.87683     718.2736     489.8293
   1421.86157     718.1261     487.8839   1421.86157     718.1261     487.8839
   1421.84631     720.3312     487.7612   1421.84631     720.3312     487.7612
   1421.83105     719.5492     487.0207   1421.83105     719.5492     487.0207
   1421.81580     719.6614     486.0069   1421.81580     719.6614     486.0069
   1421.80054     717.9588     485.4538   1421.80054     717.9588     485.4538
   1421.78528     719.2367     485.1143   1421.78528     719.2367     485.1143
   1421.77002     718.4697     483.4557   1421.77002     718.4697     483.4557
   1421.75476     718.6831     482.5748   1421.75476     718.6831     482.5748
   1421.73950     718.8645     481.5608   1421.73950     718.8645     481.5608
   1421.72424     718.8230     481.3343   1421.72424     718.8230     481.3343
   1421.70898     718.0605     479.4909   1421.70898     718.0605     479.4909
   1421.69373     718.9726     479.2109   1421.69373     718.9726     479.2109
   1421.67847     718.4505     478.5621   1421.67847     718.4505     478.5621
   1421.66321     718.5313     477.2824   1421.66321     718.5313     477.2824
   1421.64795     718.3047     476.6033   1421.64795     718.3047     476.6033
   1421.63269     718.3184     476.0346   1421.63269     718.3184     476.0346
   1421.61743     718.2180     475.4221   1421.61743     718.2180     475.4221
   1421.60217     717.0118     474.0735   1421.60217     717.0118     474.0735
   1421.58691     718.4252     472.7853   1421.58691     718.4252     472.7853
   1421.57166     716.6873     472.0743   1421.57166     716.6873     472.0743
   1421.55640     718.2564     471.1897   1421.55640     718.2564     471.1897
   1421.54114     717.0693     470.2534   1421.54114     717.0693     470.2534
   1421.52588     716.4399     469.4624   1421.52588     716.4399     469.4624
   1421.51062     717.1495     468.9686   1421.51062     717.1495     468.9686
   1421.49536     716.8372     467.8230   1421.49536     716.8372     467.8230
   1421.48010     717.5833     466.3889   1421.48010     717.5833     466.3889
   1421.46484     716.0453     466.4615   1421.46484     716.0453     466.4615
   1421.44958     716.8213     465.5538   1421.44958     716.8213     465.5538
   1421.43433     715.8342     464.4923   1421.43433     715.8342     464.4923
   1421.41907     715.3576     463.7740   1421.41907     715.3576     463.7740
   1421.40381     716.2137     462.6140   1421.40381     716.2137     462.6140
   1421.38855     715.4337     461.5275   1421.38855     715.4337     461.5275
   1421.37329     717.2903     461.4537   1421.37329     717.2903     461.4537
   1421.35803     714.5098     460.8222   1421.35803     714.5098     460.8222
   1421.34277     714.8797     459.2780   1421.34277     714.8797     459.2780
   1421.32751     716.1532     458.3920   1421.32751     716.1532     458.3920
   1421.31226     715.0546     458.3598   1421.31226     715.0546     458.3598
   1421.29700     715.1028     457.0256   1421.29700     715.1028     457.0256
   1421.28174     714.5879     456.3549   1421.28174     714.5879     456.3549
   1421.26648     713.8790     455.8722   1421.26648     713.8790     455.8722
   1421.25122     715.0141     454.8045   1421.25122     715.0141     454.8045
   1421.23596     714.6995     454.3176   1421.23596     714.6995     454.3176
   1421.22070     713.9603     453.3193   1421.22070     713.9603     453.3193
   1421.20544     713.9722     452.6318   1421.20544     713.9722     452.6318
   1421.19019     713.5459     451.6117   1421.19019     713.5459     451.6117
   1421.17493     712.6605     451.3863   1421.17493     712.6605     451.3863
   1421.15967     713.7097     449.9758   1421.15967     713.7097     449.9758
   1421.14441     713.3583     448.6911   1421.14441     713.3583     448.6911
   1421.12915     712.9075     447.7563   1421.12915     712.9075     447.7563
   1421.11389     713.8134     448.4984   1421.11389     713.8134     448.4984
   1421.09863     713.1992     447.2925   1421.09863     713.1992     447.2925
   1421.08337     712.3653     445.8168   1421.08337     712.3653     445.8168
   1421.06812     711.9881     445.7556   1421.06812     711.9881     445.7556
   1421.05286     711.8837     444.5023   1421.05286     711.8837     444.5023
   1421.03760     712.1423     444.1823   1421.03760     712.1423     444.1823
   1421.02234     710.9702     444.0789   1421.02234     710.9702     444.0789
   1421.00708     711.7094     443.5483   1421.00708     711.7094     443.5483
   1420.99182     711.6889     441.5510   1420.99182     711.6889     441.5510
   1420.97656     712.1105     441.4447   1420.97656     712.1105     441.4447
   1420.96130     711.3033     440.7476   1420.96130     711.3033     440.7476
   1420.94604     710.7325     440.2236   1420.94604     710.7325     440.2236
   1420.93079     711.3567     439.1776   1420.93079     711.3567     439.1776
   1420.91553     711.7495     438.2674   1420.91553     711.7495     438.2674
   1420.90027     710.1729     438.0072   1420.90027     710.1729     438.0072
   1420.88501     710.0910     436.3091   1420.88501     710.0910     436.3091
   1420.86975     709.9465     435.7962   1420.86975     709.9465     435.7962
   1420.85449     709.7927     435.8520   1420.85449     709.7927     435.8520
   1420.83923     709.8684     434.4518   1420.83923     709.8684     434.4518
   1420.82397     709.9728     433.7859   1420.82397     709.9728     433.7859
   1420.80872     711.5196     433.9085   1420.80872     711.5196     433.9085
   1420.79346     711.2901     433.2715   1420.79346     711.2901     433.2715
   1420.77820     710.0834     433.1048   1420.77820     710.0834     433.1048
   1420.76294     709.9647     432.2233   1420.76294     709.9647     432.2233
   1420.74768     710.9634     431.4735   1420.74768     710.9634     431.4735
   1420.73242     709.6324     431.5224   1420.73242     709.6324     431.5224
   1420.71716     711.1075     430.5041   1420.71716     711.1075     430.5041
   1420.70190     710.1026     431.0974   1420.70190     710.1026     431.0974
   1420.68665     709.5457     429.8990   1420.68665     709.5457     429.8990
   1420.67139     711.1587     429.2531   1420.67139     711.1587     429.2531
   1420.65613     711.0707     428.3263   1420.65613     711.0707     428.3263
   1420.64087     711.2787     428.0972   1420.64087     711.2787     428.0972
   1420.62561     710.9718     427.5826   1420.62561     710.9718     427.5826
   1420.61035     712.6884     427.8978   1420.61035     712.6884     427.8978
   1420.59509     712.9991     427.0929   1420.59509     712.9991     427.0929
   1420.57983     713.6884     427.3427   1420.57983     713.6884     427.3427
   1420.56458     714.9467     428.6742   1420.56458     714.9467     428.6742
   1420.54932     718.3643     428.8367   1420.54932     718.3643     428.8367
   1420.53406     720.4113     429.4474   1420.53406     720.4113     429.4474
   1420.51880     722.8302     430.6436   1420.51880     722.8302     430.6436
   1420.50354     727.9679     433.0619   1420.50354     727.9679     433.0619
   1420.48828     733.5338     436.7050   1420.48828     733.5338     436.7050
   1420.47302     744.6172     441.9349   1420.47302     744.6172     441.9349
   1420.45776     763.6923     451.9640   1420.45776     763.6923     451.9640
   1420.44250     783.6508     462.7703   1420.44250     783.6508     462.7703
   1420.42725     802.1870     474.3890   1420.42725     802.1870     474.3890
   1420.41199     832.9117     489.5034   1420.41199     832.9117     489.5034
   1420.39673     888.1365     522.1711   1420.39673     888.1365     522.1711
   1420.38147    1013.0473     591.2884   1420.38147    1013.0473     591.2884
   1420.36621    1310.7670     760.2188   1420.36621    1310.7670     760.2188
   1420.35095    1769.2148    1021.1333   1420.35095    1769.2148    1021.1333
   1420.33569    2160.7468    1246.5804   1420.33569    2160.7468    1246.5804
   1420.32043    2407.6267    1382.0753   1420.32043    2407.6267    1382.0753
   1420.30518    2665.4009    1532.9569   1420.30518    2665.4009    1532.9569
   1420.28992    2706.8850    1554.2275   1420.28992    2706.8850    1554.2275
   1420.27466    2732.8850    1570.3970   1420.27466    2732.8850    1570.3970
   1420.25940    2684.3335    1535.5376   1420.25940    2684.3335    1535.5376
   1420.24414    2059.9631    1183.3524   1420.24414    2059.9631    1183.3524
   1420.22888    1359.4556     785.7394   1420.22888    1359.4556     785.7394
   1420.21362     969.4481     562.9780   1420.21362     969.4481     562.9780
   1420.19836     824.8725     480.4010   1420.19836     824.8725     480.4010
   1420.18311     768.3885     446.7114   1420.18311     768.3885     446.7114
   1420.16785     741.8180     431.4771   1420.16785     741.8180     431.4771
   1420.15259     727.8919     423.5968   1420.15259     727.8919     423.5968
   1420.13733     719.3331     418.3101   1420.13733     719.3331     418.3101
   1420.12207     714.7856     414.7986   1420.12207     714.7856     414.7986
   1420.10681     710.2815     412.7376   1420.10681     710.2815     412.7376
   1420.09155     707.1844     410.6208   1420.09155     707.1844     410.6208
   1420.07629     703.7647     408.9893   1420.07629     703.7647     408.9893
   1420.06104     704.2486     407.7973   1420.06104     704.2486     407.7973
   1420.04578     702.5394     406.6660   1420.04578     702.5394     406.6660
   1420.03052     701.7223     405.3481   1420.03052     701.7223     405.3481
   1420.01526     702.4762     405.5127   1420.01526     702.4762     405.5127
   1420.00000     702.6091     406.1701   1420.00000     702.6091     406.1701
   1419.98474     702.7420     406.8276   1419.98474     702.7420     406.8276
   1419.96948     702.3775     403.9272   1419.96948     702.3775     403.9272
   1419.95422     700.6171     403.0604   1419.95422     700.6171     403.0604
   1419.93896     699.7106     402.0107   1419.93896     699.7106     402.0107
   1419.92371     699.9567     401.4353   1419.92371     699.9567     401.4353
   1419.90845     699.0406     402.1977   1419.90845     699.0406     402.1977
   1419.89319     698.6260     400.7581   1419.89319     698.6260     400.7581
   1419.87793     698.2344     400.7568   1419.87793     698.2344     400.7568
   1419.86267     699.6021     400.4072   1419.86267     699.6021     400.4072
   1419.84741     699.0145     399.8735   1419.84741     699.0145     399.8735
   1419.83215     698.5275     399.7808   1419.83215     698.5275     399.7808
   1419.81689     698.5268     398.6202   1419.81689     698.5268     398.6202
   1419.80164     697.1207     398.9653   1419.80164     697.1207     398.9653
   1419.78638     697.1146     398.6137   1419.78638     697.1146     398.6137
   1419.77112     697.3681     397.7864   1419.77112     697.3681     397.7864
   1419.75586     697.7023     397.8113   1419.75586     697.7023     397.8113
   1419.74060     697.8241     397.4127   1419.74060     697.8241     397.4127
   1419.72534     697.1337     396.9793   1419.72534     697.1337     396.9793
   1419.71008     698.3173     396.8055   1419.71008     698.3173     396.8055
   1419.69482     697.5357     396.6467   1419.69482     697.5357     396.6467
   1419.67957     697.3526     396.5385   1419.67957     697.3526     396.5385
   1419.66431     697.7126     396.2638   1419.66431     697.7126     396.2638
   1419.64905     699.5866     395.5265   1419.64905     699.5866     395.5265
   1419.63379     697.7814     395.8215   1419.63379     697.7814     395.8215
   1419.61853     698.2297     395.5950   1419.61853     698.2297     395.5950
   1419.60327     698.0028     395.1948   1419.60327     698.0028     395.1948
   1419.58801     699.0706     395.6982   1419.58801     699.0706     395.6982
   1419.57275     698.6782     395.3957   1419.57275     698.6782     395.3957
   1419.55750     697.8368     395.6585   1419.55750     697.8368     395.6585
   1419.54224     698.5344     394.6742   1419.54224     698.5344     394.6742
   1419.52698     700.0130     395.1100   1419.52698     700.0130     395.1100
   1419.51172     699.9830     395.0910   1419.51172     699.9830     395.0910
   1419.49646     699.2191     395.3705   1419.49646     699.2191     395.3705
   1419.48120     700.2249     394.8434   1419.48120     700.2249     394.8434
   1419.46594     699.9274     394.6171   1419.46594     699.9274     394.6171
   1419.45068     700.4485     394.6870   1419.45068     700.4485     394.6870
   1419.43542     700.9473     394.0708   1419.43542     700.9473     394.0708
   1419.42017     701.4506     394.0324   1419.42017     701.4506     394.0324
   1419.40491     700.4788     394.7111   1419.40491     700.4788     394.7111
   1419.38965     700.4537     394.5226   1419.38965     700.4537     394.5226
   1419.37439     701.8328     394.2523   1419.37439     701.8328     394.2523
   1419.35913     701.1861     393.9744   1419.35913     701.1861     393.9744
   1419.34387     702.0338     394.3748   1419.34387     702.0338     394.3748
   1419.32861     702.1740     393.9950   1419.32861     702.1740     393.9950
   1419.31335     701.9780     394.8087   1419.31335     701.9780     394.8087
   1419.29810     702.6637     394.7822   1419.29810     702.6637     394.7822
   1419.28284     702.7726     394.7195   1419.28284     702.7726     394.7195
   1419.26758     704.6786     394.3260   1419.26758     704.6786     394.3260
   1419.25232     704.6261     394.9017   1419.25232     704.6261     394.9017
   1419.23706     703.7848     394.3008   1419.23706     703.7848     394.3008
   1419.22180     703.7559     395.5154   1419.22180     703.7559     395.5154
   1419.20654     704.4645     395.1272   1419.20654     704.4645     395.1272
   1419.19128     705.3462     395.6458   1419.19128     705.3462     395.6458
   1419.17603     706.1371     394.7430   1419.17603     706.1371     394.7430
   1419.16077     706.1243     395.6523   1419.16077     706.1243     395.6523
   1419.14551     705.7072     395.6313   1419.14551     705.7072     395.6313
   1419.13025     705.9239     395.5447   1419.13025     705.9239     395.5447
   1419.11499     707.0369     396.0936   1419.11499     707.0369     396.0936
   1419.09973     707.1459     395.9988   1419.09973     707.1459     395.9988
   1419.08447     706.8299     396.0531   1419.08447     706.8299     396.0531
   1419.06921     708.3621     396.4728   1419.06921     708.3621     396.4728
   1419.05396     708.7509     396.1334   1419.05396     708.7509     396.1334
   1419.03870     708.0073     396.6682   1419.03870     708.0073     396.6682
   1419.02344     709.3005     396.2690   1419.02344     709.3005     396.2690
   1419.00818     709.9286     397.0441   1419.00818     709.9286     397.0441
   1418.99292     710.5891     397.0498   1418.99292     710.5891     397.0498
   1418.97766     711.1117     397.2852   1418.97766     711.1117     397.2852
   1418.96240     711.7529     397.8671   1418.96240     711.7529     397.8671
   1418.94714     710.9490     397.8354   1418.94714     710.9490     397.8354
   1418.93188     712.2955     398.0311   1418.93188     712.2955     398.0311
   1418.91663     711.3664     398.3504   1418.91663     711.3664     398.3504
   1418.90137     713.9517     398.6496   1418.90137     713.9517     398.6496
   1418.88611     713.3708     398.7099   1418.88611     713.3708     398.7099
   1418.87085     714.5656     398.8714   1418.87085     714.5656     398.8714
   1418.85559     713.6689     399.1156   1418.85559     713.6689     399.1156
   1418.84033     715.1360     400.0398   1418.84033     715.1360     400.0398
   1418.82507     716.9891     400.1379   1418.82507     716.9891     400.1379
   1418.80981     716.6072     400.2341   1418.80981     716.6072     400.2341
   1418.79456     716.9182     400.2195   1418.79456     716.9182     400.2195
   1418.77930     717.0735     401.3424   1418.77930     717.0735     401.3424
   1418.76404     718.1546     401.3268   1418.76404     718.1546     401.3268
   1418.74878     718.6924     402.4905   1418.74878     718.6924     402.4905
   1418.73352     719.1954     402.5764   1418.73352     719.1954     402.5764
   1418.71826     720.7798     403.0708   1418.71826     720.7798     403.0708
   1418.70300     720.5919     403.9552   1418.70300     720.5919     403.9552
   1418.68774     721.7942     402.9349   1418.68774     721.7942     402.9349
   1418.67249     721.1619     404.0975   1418.67249     721.1619     404.0975
   1418.65723     721.7751     405.0235   1418.65723     721.7751     405.0235
   1418.64197     721.5790     404.4202   1418.64197     721.5790     404.4202
   1418.62671     723.9852     405.1356   1418.62671     723.9852     405.1356
   1418.61145     723.8966     406.0873   1418.61145     723.8966     406.0873
   1418.59619     724.2299     405.8624   1418.59619     724.2299     405.8624
   1418.58093     724.8110     406.8948   1418.58093     724.8110     406.8948
   1418.56567     726.0704     407.1078   1418.56567     726.0704     407.1078
   1418.55042     726.6064     407.8999   1418.55042     726.6064     407.8999
   1418.53516     728.0070     407.9150   1418.53516     728.0070     407.9150
   1418.51990     729.2026     408.5848   1418.51990     729.2026     408.5848
   1418.50464     729.2275     409.0089   1418.50464     729.2275     409.0089
   1418.48938     728.7857     409.6640   1418.48938     728.7857     409.6640
   1418.47412     730.1243     409.6736   1418.47412     730.1243     409.6736
   1418.45886     730.3997     411.4050   1418.45886     730.3997     411.4050
   1418.44360     731.9386     411.4192   1418.44360     731.9386     411.4192
   1418.42834     732.3353     411.5093   1418.42834     732.3353     411.5093
   1418.41309     733.5179     411.7562   1418.41309     733.5179     411.7562
   1418.39783     733.6536     413.5392   1418.39783     733.6536     413.5392
   1418.38257     734.7597     413.8574   1418.38257     734.7597     413.8574
   1418.36731     734.5232     414.2735   1418.36731     734.5232     414.2735
   1418.35205     734.9730     414.4818   1418.35205     734.9730     414.4818
   1418.33679     735.3139     415.6453   1418.33679     735.3139     415.6453
   1418.32153     737.0211     415.5693   1418.32153     737.0211     415.5693
   1418.30627     738.1177     416.4608   1418.30627     738.1177     416.4608
   1418.29102     738.0747     417.7535   1418.29102     738.0747     417.7535
   1418.27576     740.1235     417.8443   1418.27576     740.1235     417.8443
   1418.26050     739.4422     418.2430   1418.26050     739.4422     418.2430
   1418.24524     741.2382     419.4419   1418.24524     741.2382     419.4419
   1418.22998     741.4095     419.5500   1418.22998     741.4095     419.5500
   1418.21472     742.2034     420.4719   1418.21472     742.2034     420.4719
   1418.19946     743.4042     420.9827   1418.19946     743.4042     420.9827
   1418.18420     744.4431     422.7999   1418.18420     744.4431     422.7999
   1418.16895     744.4606     423.1413   1418.16895     744.4606     423.1413
   1418.15369     746.3851     423.3306   1418.15369     746.3851     423.3306
   1418.13843     747.0162     423.9755   1418.13843     747.0162     423.9755
   1418.12317     747.0065     424.6124   1418.12317     747.0065     424.6124
   1418.10791     748.8170     425.6118   1418.10791     748.8170     425.6118
   1418.09265     749.4662     425.9980   1418.09265     749.4662     425.9980
   1418.07739     749.6262     426.7646   1418.07739     749.6262     426.7646
   1418.06213     750.6246     427.9811   1418.06213     750.6246     427.9811
   1418.04688     751.4039     428.4494   1418.04688     751.4039     428.4494
   1418.03162     753.4432     429.5630   1418.03162     753.4432     429.5630
   1418.01636     752.8397     430.2031   1418.01636     752.8397     430.2031
   1418.00110     753.9182     430.8607   1418.00110     753.9182     430.8607
   1417.98584     753.5472     432.0125   1417.98584     753.5472     432.0125
   1417.97058     754.9946     432.2089   1417.97058     754.9946     432.2089
   1417.95532     755.7842     433.3615   1417.95532     755.7842     433.3615
   1417.94006     756.8281     434.8061   1417.94006     756.8281     434.8061
   1417.92480     757.8483     435.2662   1417.92480     757.8483     435.2662
   1417.90955     759.3939     436.1608   1417.90955     759.3939     436.1608
   1417.89429     759.4573     436.2009   1417.89429     759.4573     436.2009
   1417.87903     760.6172     438.3107   1417.87903     760.6172     438.3107
   1417.86377     762.4065     439.1346   1417.86377     762.4065     439.1346
   1417.84851     761.6913     439.2645   1417.84851     761.6913     439.2645
   1417.83325     762.9255     440.1328   1417.83325     762.9255     440.1328
   1417.81799     763.0800     441.1378   1417.81799     763.0800     441.1378
   1417.80273     763.6750     441.9202   1417.80273     763.6750     441.9202
   1417.78748     765.6702     442.8262   1417.78748     765.6702     442.8262
   1417.77222     763.7333     443.7911   1417.77222     763.7333     443.7911
   1417.75696     765.5420     444.2882   1417.75696     765.5420     444.2882
   1417.74170     766.7702     444.9747   1417.74170     766.7702     444.9747
   1417.72644     767.2893     445.8262   1417.72644     767.2893     445.8262
   1417.71118     768.5086     447.4994   1417.71118     768.5086     447.4994
   1417.69592     769.1497     448.3345   1417.69592     769.1497     448.3345
   1417.68066     770.3778     448.0011   1417.68066     770.3778     448.0011
   1417.66541     772.0914     450.1002   1417.66541     772.0914     450.1002
   1417.65015     772.4769     450.7791   1417.65015     772.4769     450.7791
   1417.63489     772.7859     450.9105   1417.63489     772.7859     450.9105
   1417.61963     773.3942     451.8830   1417.61963     773.3942     451.8830
   1417.60437     773.8843     452.8000   1417.60437     773.8843     452.8000
   1417.58911     774.1455     454.0645   1417.58911     774.1455     454.0645
   1417.57385     775.6235     454.7908   1417.57385     775.6235     454.7908
   1417.55859     776.7107     456.4472   1417.55859     776.7107     456.4472
   1417.54333     777.8226     457.1096   1417.54333     777.8226     457.1096
   1417.52808     778.0498     458.4967   1417.52808     778.0498     458.4967
   1417.51282     778.0784     459.1125   1417.51282     778.0784     459.1125
   1417.49756     779.7686     459.3433   1417.49756     779.7686     459.3433
   1417.48230     779.9680     460.4099   1417.48230     779.9680     460.4099
   1417.46704     780.3710     461.3575   1417.46704     780.3710     461.3575
   1417.45178     780.6837     462.8928   1417.45178     780.6837     462.8928
   1417.43652     782.0355     463.7504   1417.43652     782.0355     463.7504
   1417.42126     783.4404     464.6519   1417.42126     783.4404     464.6519
   1417.40601     782.9046     465.2382   1417.40601     782.9046     465.2382
   1417.39075     784.6597     466.1423   1417.39075     784.6597     466.1423
   1417.37549     785.7398     467.8807   1417.37549     785.7398     467.8807
   1417.36023     784.7084     468.0658   1417.36023     784.7084     468.0658
   1417.34497     785.8227     468.6511   1417.34497     785.8227     468.6511
   1417.32971     788.2744     469.9497   1417.32971     788.2744     469.9497
   1417.31445     787.5446     471.3071   1417.31445     787.5446     471.3071
   1417.29919     788.2379     471.1538   1417.29919     788.2379     471.1538
   1417.28394     789.9780     473.1065   1417.28394     789.9780     473.1065
   1417.26868     789.0194     473.4104   1417.26868     789.0194     473.4104
   1417.25342     790.9670     475.1350   1417.25342     790.9670     475.1350
   1417.23816     790.8393     475.8745   1417.23816     790.8393     475.8745
   1417.22290     791.2771     476.2169   1417.22290     791.2771     476.2169
   1417.20764     791.5092     477.3377   1417.20764     791.5092     477.3377
   1417.19238     792.0342     478.7516   1417.19238     792.0342     478.7516
   1417.17712     792.7224     479.5985   1417.17712     792.7224     479.5985
   1417.16187     791.5143     480.0792   1417.16187     791.5143     480.0792
   1417.14661     794.8881     481.3884   1417.14661     794.8881     481.3884
   1417.13135     794.8632     482.7862   1417.13135     794.8632     482.7862
   1417.11609     794.6543     483.2463   1417.11609     794.6543     483.2463
   1417.10083     795.5997     484.3133   1417.10083     795.5997     484.3133
   1417.08557     795.7376     484.8586   1417.08557     795.7376     484.8586
   1417.07031     796.0855     485.9665   1417.07031     796.0855     485.9665
   1417.05505     796.9628     486.1518   1417.05505     796.9628     486.1518
   1417.03979     797.3036     488.0173   1417.03979     797.3036     488.0173
   1417.02454     797.2667     488.0945   1417.02454     797.2667     488.0945
   1417.00928     797.4592     489.3250   1417.00928     797.4592     489.3250
   1416.99402     799.3235     489.9793   1416.99402     799.3235     489.9793
   1416.97876     799.4121     490.1072   1416.97876     799.4121     490.1072
   1416.96350     798.1714     490.8489   1416.96350     798.1714     490.8489
   1416.94824     799.3401     491.6767   1416.94824     799.3401     491.6767
   1416.93298     798.7130     492.2097   1416.93298     798.7130     492.2097
   1416.91772     799.4600     493.0324   1416.91772     799.4600     493.0324
   1416.90247     799.0490     494.4055   1416.90247     799.0490     494.4055
   1416.88721     801.1026     495.0232   1416.88721     801.1026     495.0232
   1416.87195     800.4542     495.7112   1416.87195     800.4542     495.7112
   1416.85669     800.2701     496.5110   1416.85669     800.2701     496.5110
   1416.84143     802.1437     497.9885   1416.84143     802.1437     497.9885
   1416.82617     800.4571     497.9628   1416.82617     800.4571     497.9628
   1416.81091     801.1198     498.7543   1416.81091     801.1198     498.7543
   1416.79565     801.2219     498.5682   1416.79565     801.2219     498.5682
   1416.78040     801.6339     500.4289   1416.78040     801.6339     500.4289
   1416.76514     802.0500     500.0403   1416.76514     802.0500     500.0403
   1416.74988     801.7772     500.6921   1416.74988     801.7772     500.6921
   1416.73462     802.2658     500.9394   1416.73462     802.2658     500.9394
   1416.71936     800.9976     502.3088   1416.71936     800.9976     502.3088
   1416.70410     800.7089     502.7993   1416.70410     800.7089     502.7993
   1416.68884     801.8000     502.9556   1416.68884     801.8000     502.9556
   1416.67358     801.6981     503.5040   1416.67358     801.6981     503.5040
   1416.65833     802.3383     504.9420   1416.65833     802.3383     504.9420
   1416.64307     801.8269     504.1812   1416.64307     801.8269     504.1812
   1416.62781     802.4669     505.4663   1416.62781     802.4669     505.4663
   1416.61255     801.2994     506.1118   1416.61255     801.2994     506.1118
   1416.59729     802.0948     504.8202   1416.59729     802.0948     504.8202
   1416.58203     800.9094     505.7739   1416.58203     800.9094     505.7739
   1416.56677     801.4315     507.0948   1416.56677     801.4315     507.0948
   1416.55151     800.5438     507.2534   1416.55151     800.5438     507.2534
   1416.53625     800.9936     507.4238   1416.53625     800.9936     507.4238
   1416.52100     801.5213     507.7644   1416.52100     801.5213     507.7644
   1416.50574     800.4428     509.0294   1416.50574     800.4428     509.0294
   1416.49048     798.4996     508.9583   1416.49048     798.4996     508.9583
   1416.47522     799.7078     509.5765   1416.47522     799.7078     509.5765
   1416.45996     799.6769     509.8860   1416.45996     799.6769     509.8860
   1416.44470     799.1772     509.9526   1416.44470     799.1772     509.9526
   1416.42944     798.8737     509.4805   1416.42944     798.8737     509.4805
   1416.41418     798.5857     510.7183   1416.41418     798.5857     510.7183
   1416.39893     798.4071     510.1944   1416.39893     798.4071     510.1944
   1416.38367     798.4931     510.4933   1416.38367     798.4931     510.4933
   1416.36841     799.3380     511.7121   1416.36841     799.3380     511.7121
   1416.35315     798.4911     510.7359   1416.35315     798.4911     510.7359
   1416.33789     797.9202     511.3061   1416.33789     797.9202     511.3061
   1416.32263     797.3385     511.6481   1416.32263     797.3385     511.6481
   1416.30737     797.7711     511.2271   1416.30737     797.7711     511.2271
   1416.29211     796.8373     511.3679   1416.29211     796.8373     511.3679
   1416.27686     796.4510     512.6180   1416.27686     796.4510     512.6180
   1416.26160     794.5844     512.2950   1416.26160     794.5844     512.2950
   1416.24634     795.2952     512.5344   1416.24634     795.2952     512.5344
   1416.23108     793.4672     512.5600   1416.23108     793.4672     512.5600
   1416.21582     793.4270     511.9669   1416.21582     793.4270     511.9669
   1416.20056     793.9969     511.8851   1416.20056     793.9969     511.8851
   1416.18530     792.7338     512.7626   1416.18530     792.7338     512.7626
   1416.17004     792.5168     512.3188   1416.17004     792.5168     512.3188
   1416.15479     791.6636     511.4338   1416.15479     791.6636     511.4338
   1416.13953     791.8658     511.9195   1416.13953     791.8658     511.9195
   1416.12427     791.5701     513.4622   1416.12427     791.5701     513.4622
   1416.10901     790.3195     512.9050   1416.10901     790.3195     512.9050
   1416.09375     790.2536     512.4854   1416.09375     790.2536     512.4854
   1416.07849     789.5844     512.4128   1416.07849     789.5844     512.4128
   1416.06323     789.3716     512.2126   1416.06323     789.3716     512.2126
   1416.04797     788.0463     512.7291   1416.04797     788.0463     512.7291
   1416.03271     787.4756     512.7527   1416.03271     787.4756     512.7527
   1416.01746     786.3465     511.5927   1416.01746     786.3465     511.5927
   1416.00220     787.2591     512.3091   1416.00220     787.2591     512.3091
   1415.98694     786.2492     512.4180   1415.98694     786.2492     512.4180
   1415.97168     785.2620     512.4478   1415.97168     785.2620     512.4478
   1415.95642     786.0731     511.6963   1415.95642     786.0731     511.6963
   1415.94116     783.9647     512.2078   1415.94116     783.9647     512.2078
   1415.92590     783.5277     511.2170   1415.92590     783.5277     511.2170
   1415.91064     782.3267     512.6743   1415.91064     782.3267     512.6743
   1415.89539     782.3511     511.7456   1415.89539     782.3511     511.7456
   1415.88013     781.2779     511.5243   1415.88013     781.2779     511.5243
   1415.86487     780.4639     511.4179   1415.86487     780.4639     511.4179
   1415.84961     780.4299     510.4920   1415.84961     780.4299     510.4920
   1415.83435     778.6450     510.6933   1415.83435     778.6450     510.6933
   1415.81909     775.5952     510.8142   1415.81909     775.5952     510.8142
   1415.80383     777.0883     510.8288   1415.80383     777.0883     510.8288
   1415.78857     775.7093     510.3264   1415.78857     775.7093     510.3264
   1415.77332     775.2839     510.5410   1415.77332     775.2839     510.5410
   1415.75806     775.0060     510.1877   1415.75806     775.0060     510.1877
   1415.74280     773.2574     510.1188   1415.74280     773.2574     510.1188
   1415.72754     771.2694     509.4985   1415.72754     771.2694     509.4985
   1415.71228     772.5533     509.9225   1415.71228     772.5533     509.9225
   1415.69702     771.4126     509.1087   1415.69702     771.4126     509.1087
   1415.68176     770.8528     509.0405   1415.68176     770.8528     509.0405
   1415.66650     770.2673     509.4136   1415.66650     770.2673     509.4136
   1415.65125     768.1064     508.8867   1415.65125     768.1064     508.8867
   1415.63599     767.9207     508.8454   1415.63599     767.9207     508.8454
   1415.62073     767.9073     508.8949   1415.62073     767.9073     508.8949
   1415.60547     766.2390     508.3126   1415.60547     766.2390     508.3126
   1415.59021     766.2504     507.9874   1415.59021     766.2504     507.9874
   1415.57495     765.1347     508.2211   1415.57495     765.1347     508.2211
   1415.55969     764.2800     508.0660   1415.55969     764.2800     508.0660
   1415.54443     762.1770     508.0269   1415.54443     762.1770     508.0269
   1415.52917     760.9603     507.3063   1415.52917     760.9603     507.3063
   1415.51392     761.6503     506.8075   1415.51392     761.6503     506.8075
   1415.49866     760.2756     506.8722   1415.49866     760.2756     506.8722
   1415.48340     758.7890     505.5478   1415.48340     758.7890     505.5478
   1415.46814     758.6234     505.9287   1415.46814     758.6234     505.9287
   1415.45288     756.5868     505.8519   1415.45288     756.5868     505.8519
   1415.43762     756.0940     505.0910   1415.43762     756.0940     505.0910
   1415.42236     754.5405     504.8577   1415.42236     754.5405     504.8577
   1415.40710     754.3617     504.9080   1415.40710     754.3617     504.9080
   1415.39185     751.6672     504.0771   1415.39185     751.6672     504.0771
   1415.37659     751.3311     504.5692   1415.37659     751.3311     504.5692
   1415.36133     751.1054     504.2879   1415.36133     751.1054     504.2879
   1415.34607     749.6392     503.3326   1415.34607     749.6392     503.3326
   1415.33081     747.6235     503.0081   1415.33081     747.6235     503.0081
   1415.31555     747.9376     502.2220   1415.31555     747.9376     502.2220
   1415.30029     746.1278     502.0984   1415.30029     746.1278     502.0984
   1415.28503     744.8945     501.6471   1415.28503     744.8945     501.6471
   1415.26978     742.4521     501.8844   1415.26978     742.4521     501.8844
   1415.25452     743.1229     500.1660   1415.25452     743.1229     500.1660
   1415.23926     741.2045     500.9791   1415.23926     741.2045     500.9791
   1415.22400     739.5253     500.6415   1415.22400     739.5253     500.6415
   1415.20874     738.2589     500.6137   1415.20874     738.2589     500.6137
   1415.19348     737.2672     498.6975   1415.19348     737.2672     498.6975
   1415.17822     737.3300     499.4134   1415.17822     737.3300     499.4134
   1415.16296     735.4131     498.5520   1415.16296     735.4131     498.5520
   1415.14771     732.4974     497.6940   1415.14771     732.4974     497.6940
   1415.13245     733.3323     497.5838   1415.13245     733.3323     497.5838
   1415.11719     730.5289     497.6824   1415.11719     730.5289     497.6824
   1415.10193     730.2576     497.2058   1415.10193     730.2576     497.2058
   1415.08667     728.2528     497.3676   1415.08667     728.2528     497.3676
   1415.07141     726.6639     495.2470   1415.07141     726.6639     495.2470
   1415.05615     725.4806     494.9175   1415.05615     725.4806     494.9175
   1415.04089     724.0630     494.7523   1415.04089     724.0630     494.7523
   1415.02563     722.6606     494.3589   1415.02563     722.6606     494.3589
   1415.01038     720.7648     493.5811   1415.01038     720.7648     493.5811
   1414.99512     720.1915     493.3404   1414.99512     720.1915     493.3404
   1414.97986     719.3224     492.9700   1414.97986     719.3224     492.9700
   1414.96460     716.6899     492.4252   1414.96460     716.6899     492.4252
   1414.94934     715.5186     491.7868   1414.94934     715.5186     491.7868
   1414.93408     715.6455     490.6927   1414.93408     715.6455     490.6927
   1414.91882     713.3491     489.8299   1414.91882     713.3491     489.8299
   1414.90356     711.5224     489.8704   1414.90356     711.5224     489.8704
   1414.88831     709.8275     489.1287   1414.88831     709.8275     489.1287
   1414.87305     708.2680     488.7039   1414.87305     708.2680     488.7039
   1414.85779     706.4064     488.1050   1414.85779     706.4064     488.1050
   1414.84253     704.4521     487.0209   1414.84253     704.4521     487.0209
   1414.82727     703.3832     486.3892   1414.82727     703.3832     486.3892
   1414.81201     700.7186     485.6772   1414.81201     700.7186     485.6772
   1414.79675     699.9990     485.7940   1414.79675     699.9990     485.7940
   1414.78149     698.9647     483.3475   1414.78149     698.9647     483.3475
   1414.76624     696.9299     483.9360   1414.76624     696.9299     483.9360
   1414.75098     695.8203     482.4692   1414.75098     695.8203     482.4692
   1414.73572     693.6927     482.1613   1414.73572     693.6927     482.1613
   1414.72046     691.1510     481.7660   1414.72046     691.1510     481.7660
   1414.70520     690.2996     480.1771   1414.70520     690.2996     480.1771
   1414.68994     688.0588     479.3601   1414.68994     688.0588     479.3601
   1414.67468     686.3485     478.3714   1414.67468     686.3485     478.3714
   1414.65942     683.7370     477.5750   1414.65942     683.7370     477.5750
   1414.64417     682.8164     476.9158   1414.64417     682.8164     476.9158
   1414.62891     680.0860     475.8249   1414.62891     680.0860     475.8249
   1414.61365     678.2710     475.3214   1414.61365     678.2710     475.3214
   1414.59839     677.0721     474.3986   1414.59839     677.0721     474.3986
   1414.58313     675.0010     473.3705   1414.58313     675.0010     473.3705
   1414.56787     672.5878     472.6293   1414.56787     672.5878     472.6293
   1414.55261     670.9992     471.8540   1414.55261     670.9992     471.8540
   1414.53735     669.3815     470.2868   1414.53735     669.3815     470.2868
   1414.52209     666.5110     469.4570   1414.52209     666.5110     469.4570
   1414.50684     665.2308     468.4715   1414.50684     665.2308     468.4715
   1414.49158     662.3438     466.9915   1414.49158     662.3438     466.9915
   1414.47632     661.5280     466.8828   1414.47632     661.5280     466.8828
   1414.46106     659.4048     465.9344   1414.46106     659.4048     465.9344
   1414.44580     656.7313     464.5455   1414.44580     656.7313     464.5455
   1414.43054     653.6844     463.4825   1414.43054     653.6844     463.4825
   1414.41528     652.2438     462.4136   1414.41528     652.2438     462.4136
   1414.40002     650.4862     460.8652   1414.40002     650.4862     460.8652
   1414.38477     647.9146     459.8672   1414.38477     647.9146     459.8672
   1414.36951     646.1222     458.5144   1414.36951     646.1222     458.5144
   1414.35425     643.4724     457.8488   1414.35425     643.4724     457.8488
   1414.33899     640.9390     456.9448   1414.33899     640.9390     456.9448
   1414.32373     638.4506     455.8015   1414.32373     638.4506     455.8015
   1414.30847     636.3032     454.2720   1414.30847     636.3032     454.2720
   1414.29321     634.5233     452.5329   1414.29321     634.5233     452.5329
   1414.27795     633.0381     452.6835   1414.27795     633.0381     452.6835
   1414.26270     630.6848     450.1493   1414.26270     630.6848     450.1493
   1414.24744     627.2847     449.5719   1414.24744     627.2847     449.5719
   1414.23218     626.6124     447.9726   1414.23218     626.6124     447.9726
   1414.21692     622.6627     447.0538   1414.21692     622.6627     447.0538
   1414.20166     619.2419     445.5735   1414.20166     619.2419     445.5735
   1414.18640     618.1910     443.9641   1414.18640     618.1910     443.9641
   1414.17114     616.4009     443.2278   1414.17114     616.4009     443.2278
   1414.15588     613.2212     441.8188   1414.15588     613.2212     441.8188
   1414.14062     611.1179     441.1269   1414.14062     611.1179     441.1269
   1414.12537     608.2948     440.4388   1414.12537     608.2948     440.4388
   1414.11011     606.4789     437.5735   1414.11011     606.4789     437.5735
   1414.09485     603.4448     436.8896   1414.09485     603.4448     436.8896
   1414.07959     600.1635     435.1649   1414.07959     600.1635     435.1649
   1414.06433     598.1824     434.4602   1414.06433     598.1824     434.4602
   1414.04907     595.3029     432.6072   1414.04907     595.3029     432.6072
   1414.03381     594.1028     431.2426   1414.03381     594.1028     431.2426
   1414.01855     592.0742     429.2545   1414.01855     592.0742     429.2545
   1414.00330     610.6043     433.5844   1414.00330     610.6043     433.5844
   1413.98804     586.6550     426.7614   1413.98804     586.6550     426.7614
   1413.97278     582.3524     424.6630   1413.97278     582.3524     424.6630
   1413.95752     580.5555     423.7592   1413.95752     580.5555     423.7592
   1413.94226     578.1329     423.3556   1413.94226     578.1329     423.3556
   1413.92700     574.3185     420.8939   1413.92700     574.3185     420.8939
   1413.91174     571.6657     419.3061   1413.91174     571.6657     419.3061
   1413.89648     569.8353     418.7350   1413.89648     569.8353     418.7350
   1413.88123     567.6675     416.4689   1413.88123     567.6675     416.4689
   1413.86597     564.3427     414.8315   1413.86597     564.3427     414.8315
   1413.85071     561.7105     413.1948   1413.85071     561.7105     413.1948
   1413.83545     557.7187     411.9269   1413.83545     557.7187     411.9269
   1413.82019     556.0579     410.5884   1413.82019     556.0579     410.5884
   1413.80493     554.1667     409.2203   1413.80493     554.1667     409.2203
   1413.78967     550.4390     407.4734   1413.78967     550.4390     407.4734
   1413.77441     548.7909     406.4879   1413.77441     548.7909     406.4879
   1413.75916     544.8655     404.6197   1413.75916     544.8655     404.6197
   1413.74390     542.3492     403.0656   1413.74390     542.3492     403.0656
   1413.72864     540.7131     400.8324   1413.72864     540.7131     400.8324
   1413.71338     536.7755     399.5506   1413.71338     536.7755     399.5506
   1413.69812     534.3192     398.1345   1413.69812     534.3192     398.1345
   1413.68286     531.9749     396.1869   1413.68286     531.9749     396.1869
   1413.66760     528.9774     395.3346   1413.66760     528.9774     395.3346
   1413.65234     527.1891     393.6237   1413.65234     527.1891     393.6237
   1413.63708     523.9145     392.0684   1413.63708     523.9145     392.0684
   1413.62183     520.5675     390.8980   1413.62183     520.5675     390.8980
   1413.60657     517.5334     388.9870   1413.60657     517.5334     388.9870
   1413.59131     515.1019     387.4977   1413.59131     515.1019     387.4977
   1413.57605     512.6142     385.9262   1413.57605     512.6142     385.9262
   1413.56079     509.3643     384.7693   1413.56079     509.3643     384.7693
   1413.54553     506.9412     383.3815   1413.54553     506.9412     383.3815
   1413.53027     504.6626     381.3981   1413.53027     504.6626     381.3981
   1413.51501     501.9736     379.2309   1413.51501     501.9736     379.2309
   1413.49976     499.3815     378.3027   1413.49976     499.3815     378.3027
   1413.48450     496.8896     376.4973   1413.48450     496.8896     376.4973
   1413.46924     493.5584     375.5002   1413.46924     493.5584     375.5002
   1413.45398     491.3286     373.8569   1413.45398     491.3286     373.8569
   1413.43872     488.3880     372.3281   1413.43872     488.3880     372.3281
   1413.42346     485.4619     370.6971   1413.42346     485.4619     370.6971
   1413.40820     483.5606     369.3010   1413.40820     483.5606     369.3010
   1413.39294     480.4665     368.1650   1413.39294     480.4665     368.1650
   1413.37769     477.9832     366.5301   1413.37769     477.9832     366.5301
   1413.36243     474.9966     365.7013   1413.36243     474.9966     365.7013
   1413.34717     472.9535     363.4375   1413.34717     472.9535     363.4375
   1413.33191     470.4659     362.3883   1413.33191     470.4659     362.3883
   1413.31665     467.6378     361.4109   1413.31665     467.6378     361.4109
   1413.30139     464.7803     359.5912   1413.30139     464.7803     359.5912
   1413.28613     462.5767     358.2569   1413.28613     462.5767     358.2569
   1413.27087     460.0615     356.8252   1413.27087     460.0615     356.8252
   1413.25562     457.8978     356.0168   1413.25562     457.8978     356.0168
   1413.24036     455.2456     354.1130   1413.24036     455.2456     354.1130
   1413.22510     452.7741     353.0372   1413.22510     452.7741     353.0372
   1413.20984     450.5574     352.1756   1413.20984     450.5574     352.1756
   1413.19458     448.1655     350.3516   1413.19458     448.1655     350.3516
   1413.17932     445.1539     348.9945   1413.17932     445.1539     348.9945
   1413.16406     444.0629     348.2716   1413.16406     444.0629     348.2716
   1413.14880     440.7248     347.0995   1413.14880     440.7248     347.0995
   1413.13354     439.4851     345.9492   1413.13354     439.4851     345.9492
   1413.11829     436.4027     344.4868   1413.11829     436.4027     344.4868
   1413.10303     434.2329     343.1020   1413.10303     434.2329     343.1020
   1413.08777     431.3320     342.5606   1413.08777     431.3320     342.5606
   1413.07251     430.1702     340.6798   1413.07251     430.1702     340.6798
   1413.05725     427.9552     341.0797   1413.05725     427.9552     341.0797
   1413.04199     424.8581     339.3802   1413.04199     424.8581     339.3802
   1413.02673     423.3444     338.4588   1413.02673     423.3444     338.4588
   1413.01147     421.3176     337.1382   1413.01147     421.3176     337.1382
   1412.99622     419.2001     336.0687   1412.99622     419.2001     336.0687
   1412.98096     417.4873     335.6456   1412.98096     417.4873     335.6456
   1412.96570     415.7701     334.9289   1412.96570     415.7701     334.9289
   1412.95044     413.0142     333.7112   1412.95044     413.0142     333.7112
   1412.93518     411.9973     332.8725   1412.93518     411.9973     332.8725
   1412.91992     410.0604     332.1251   1412.91992     410.0604     332.1251
   1412.90466     408.6205     331.5799   1412.90466     408.6205     331.5799
   1412.88940     406.6005     330.8320   1412.88940     406.6005     330.8320
   1412.87415     405.8235     330.6111   1412.87415     405.8235     330.6111
   1412.85889     403.4565     329.5158   1412.85889     403.4565     329.5158
   1412.84363     401.0538     329.1961   1412.84363     401.0538     329.1961
   1412.82837     399.8270     328.2763   1412.82837     399.8270     328.2763
   1412.81311     398.7348     328.8783   1412.81311     398.7348     328.8783
   1412.79785     396.9485     327.5755   1412.79785     396.9485     327.5755
   1412.78259     395.3737     327.0968   1412.78259     395.3737     327.0968
   1412.76733     393.9915     326.9184   1412.76733     393.9915     326.9184
   1412.75208     393.0001     326.5270   1412.75208     393.0001     326.5270
   1412.73682     391.7281     326.2857   1412.73682     391.7281     326.2857
   1412.72156     390.0204     326.0289   1412.72156     390.0204     326.0289
   1412.70630     389.1836     325.4096   1412.70630     389.1836     325.4096
   1412.69104     387.2564     325.5784   1412.69104     387.2564     325.5784
   1412.67578     386.0285     326.0291   1412.67578     386.0285     326.0291
   1412.66052     385.1938     325.4328   1412.66052     385.1938     325.4328
   1412.64526     383.9897     324.8867   1412.64526     383.9897     324.8867
   1412.63000     383.8097     325.0444   1412.63000     383.8097     325.0444
   1412.61475     382.1492     325.0285   1412.61475     382.1492     325.0285
   1412.59949     381.7787     325.5580   1412.59949     381.7787     325.5580
   1412.58423     380.5172     325.9414   1412.58423     380.5172     325.9414
   1412.56897     379.9099     326.2940   1412.56897     379.9099     326.2940
   1412.55371     379.4371     326.0475   1412.55371     379.4371     326.0475
   1412.53845     378.2863     326.4752   1412.53845     378.2863     326.4752
   1412.52319     378.0058     326.3454   1412.52319     378.0058     326.3454
   1412.50793     377.4358     326.9053   1412.50793     377.4358     326.9053
   1412.49268     376.9477     327.9817   1412.49268     376.9477     327.9817
   1412.47742     376.7379     327.8366   1412.47742     376.7379     327.8366
   1412.46216     375.9719     328.5215   1412.46216     375.9719     328.5215
   1412.44690     375.6892     329.0385   1412.44690     375.6892     329.0385
   1412.43164     374.9458     329.7729   1412.43164     374.9458     329.7729
   1412.41638     374.4971     329.7418   1412.41638     374.4971     329.7418
   1412.40112     375.0343     330.9583   1412.40112     375.0343     330.9583
   1412.38586     374.9727     331.1924   1412.38586     374.9727     331.1924
   1412.37061     374.6271     332.9160   1412.37061     374.6271     332.9160
   1412.35535     374.5848     333.8635   1412.35535     374.5848     333.8635
   1412.34009     374.6003     334.3599   1412.34009     374.6003     334.3599
   1412.32483     375.2263     335.0238   1412.32483     375.2263     335.0238
   1412.30957     374.6300     336.4626   1412.30957     374.6300     336.4626
   1412.29431     374.8878     337.3841   1412.29431     374.8878     337.3841
   1412.27905     375.1327     338.6018   1412.27905     375.1327     338.6018
   1412.26379     375.7587     339.2398   1412.26379     375.7587     339.2398
   1412.24854     375.7759     340.3253   1412.24854     375.7759     340.3253
   1412.23328     376.1132     342.1093   1412.23328     376.1132     342.1093
   1412.21802     376.2657     343.2093   1412.21802     376.2657     343.2093
   1412.20276     377.4779     344.5280   1412.20276     377.4779     344.5280