#     FILENAME=!Skynet_57528_lach-hhg-116_20390_20940.cyb.fits
#     BASENAME=Skynet_57528_lach-hhg-116_20390_20940
#     SRC_NAME=lach-hhg-116
#     OBSERVER=hhgmadison16_9500
#     DATE_OBS=2016-05-20T16:29:42.930
#        OBSID=20390
#      SCANNUM=20940
#          MJD=57528.6883
#          UTC=59471
#     SCANTYPE=track
#     DATAMODE=HIRES
#     TUNEFREQ=1420.0000
# Actual_FREQ1=1420.0000
# Actual_FREQ2=1420.0000
#    LO1Tuning=6870.000
#     RFFILTER=1355_1435
#        OBSBW=-15.6250
#        NCHAN=1024 
#        FOCUS=37.0709
#           RA=23:51:46.17
#          DEC=62:03:54.97
#      RA(hrs)=23.862800
#     DEC(deg)=62.065300
#    AZIM(deg)=324.561
#    ELEV(deg)=52.397
#     IFattens=10.00, 9.00
#      WARNING=None
#    TCAL_XL1=7.9635
#    TCAL_YR1=9.1340
#    TCAL_XL2=7.9635
#    TCAL_YR2=9.1340
#     TRX_XL1=11.7060
#     TRX_YR1=11.7060
#     TRX_XL2=11.7060
#     TRX_YR2=11.7060
#        TAVE=1.0000
#Freq1(MHz)          XL1          YR1  Freq2(MHz)          XL2          YR2 

   1427.81250     382.9775     278.8260   1427.81250     382.9775     278.8260
   1427.79724     383.2832     278.7564   1427.79724     383.2832     278.7564
   1427.78198     384.1583     280.1163   1427.78198     384.1583     280.1163
   1427.76672     384.0382     280.9659   1427.76672     384.0382     280.9659
   1427.75146     385.0366     281.6628   1427.75146     385.0366     281.6628
   1427.73621     386.4300     282.0394   1427.73621     386.4300     282.0394
   1427.72095     387.3931     283.3924   1427.72095     387.3931     283.3924
   1427.70569     387.7142     283.6567   1427.70569     387.7142     283.6567
   1427.69043     389.0017     284.9674   1427.69043     389.0017     284.9674
   1427.67517     390.2158     285.4851   1427.67517     390.2158     285.4851
   1427.65991     391.3382     286.5849   1427.65991     391.3382     286.5849
   1427.64465     392.5987     288.4561   1427.64465     392.5987     288.4561
   1427.62939     393.9406     288.7470   1427.62939     393.9406     288.7470
   1427.61414     395.1321     290.3328   1427.61414     395.1321     290.3328
   1427.59888     396.3198     292.1198   1427.59888     396.3198     292.1198
   1427.58362     397.8459     292.7624   1427.58362     397.8459     292.7624
   1427.56836     399.6258     293.7614   1427.56836     399.6258     293.7614
   1427.55310     400.8577     295.1275   1427.55310     400.8577     295.1275
   1427.53784     402.6428     296.3669   1427.53784     402.6428     296.3669
   1427.52258     404.0360     297.5910   1427.52258     404.0360     297.5910
   1427.50732     406.0739     299.2856   1427.50732     406.0739     299.2856
   1427.49207     407.2254     300.6573   1427.49207     407.2254     300.6573
   1427.47681     410.0183     301.8811   1427.47681     410.0183     301.8811
   1427.46155     410.9534     303.8568   1427.46155     410.9534     303.8568
   1427.44629     412.2868     305.3094   1427.44629     412.2868     305.3094
   1427.43103     415.1297     306.6885   1427.43103     415.1297     306.6885
   1427.41577     417.2612     308.4835   1427.41577     417.2612     308.4835
   1427.40051     419.5962     310.3220   1427.40051     419.5962     310.3220
   1427.38525     420.5431     312.0864   1427.38525     420.5431     312.0864
   1427.37000     422.7147     313.5508   1427.37000     422.7147     313.5508
   1427.35474     424.8874     315.3364   1427.35474     424.8874     315.3364
   1427.33948     427.2530     317.2943   1427.33948     427.2530     317.2943
   1427.32422     429.8145     319.2762   1427.32422     429.8145     319.2762
   1427.30896     432.2473     320.4625   1427.30896     432.2473     320.4625
   1427.29370     433.8895     322.5023   1427.29370     433.8895     322.5023
   1427.27844     435.9649     324.5946   1427.27844     435.9649     324.5946
   1427.26318     439.0520     326.0939   1427.26318     439.0520     326.0939
   1427.24792     441.3844     328.5096   1427.24792     441.3844     328.5096
   1427.23267     443.7425     330.0710   1427.23267     443.7425     330.0710
   1427.21741     445.9191     331.9912   1427.21741     445.9191     331.9912
   1427.20215     448.2692     334.0545   1427.20215     448.2692     334.0545
   1427.18689     450.7250     336.5995   1427.18689     450.7250     336.5995
   1427.17163     453.6737     338.2155   1427.17163     453.6737     338.2155
   1427.15637     456.1879     340.2198   1427.15637     456.1879     340.2198
   1427.14111     458.3250     342.6713   1427.14111     458.3250     342.6713
   1427.12585     461.9348     344.2843   1427.12585     461.9348     344.2843
   1427.11060     463.8521     347.3203   1427.11060     463.8521     347.3203
   1427.09534     466.4138     349.1951   1427.09534     466.4138     349.1951
   1427.08008     470.3928     351.5409   1427.08008     470.3928     351.5409
   1427.06482     472.2832     353.7302   1427.06482     472.2832     353.7302
   1427.04956     475.6107     356.2305   1427.04956     475.6107     356.2305
   1427.03430     478.5834     358.4774   1427.03430     478.5834     358.4774
   1427.01904     480.7006     360.3780   1427.01904     480.7006     360.3780
   1427.00378     483.7794     362.4536   1427.00378     483.7794     362.4536
   1426.98853     486.7305     365.0336   1426.98853     486.7305     365.0336
   1426.97327     489.7316     367.1824   1426.97327     489.7316     367.1824
   1426.95801     492.6015     369.9174   1426.95801     492.6015     369.9174
   1426.94275     495.7486     371.6888   1426.94275     495.7486     371.6888
   1426.92749     499.3663     373.8593   1426.92749     499.3663     373.8593
   1426.91223     501.6326     376.3185   1426.91223     501.6326     376.3185
   1426.89697     504.4535     379.3137   1426.89697     504.4535     379.3137
   1426.88171     507.4451     381.5854   1426.88171     507.4451     381.5854
   1426.86646     510.6199     384.0227   1426.86646     510.6199     384.0227
   1426.85120     512.9733     386.7478   1426.85120     512.9733     386.7478
   1426.83594     517.2710     388.8377   1426.83594     517.2710     388.8377
   1426.82068     519.7796     391.6176   1426.82068     519.7796     391.6176
   1426.80542     522.3283     393.4619   1426.80542     522.3283     393.4619
   1426.79016     524.3370     395.8409   1426.79016     524.3370     395.8409
   1426.77490     528.5669     399.1715   1426.77490     528.5669     399.1715
   1426.75964     532.2592     401.4816   1426.75964     532.2592     401.4816
   1426.74438     534.4924     403.9583   1426.74438     534.4924     403.9583
   1426.72913     538.0597     406.5902   1426.72913     538.0597     406.5902
   1426.71387     540.6229     408.6812   1426.71387     540.6229     408.6812
   1426.69861     544.1082     411.2796   1426.69861     544.1082     411.2796
   1426.68335     547.3932     413.6882   1426.68335     547.3932     413.6882
   1426.66809     549.9330     415.9539   1426.66809     549.9330     415.9539
   1426.65283     553.9623     418.3382   1426.65283     553.9623     418.3382
   1426.63757     557.0997     421.3711   1426.63757     557.0997     421.3711
   1426.62231     562.4974     423.9618   1426.62231     562.4974     423.9618
   1426.60706     564.2092     426.2579   1426.60706     564.2092     426.2579
   1426.59180     565.7930     428.1438   1426.59180     565.7930     428.1438
   1426.57654     569.1790     431.9538   1426.57654     569.1790     431.9538
   1426.56128     572.6518     433.4919   1426.56128     572.6518     433.4919
   1426.54602     575.2532     436.4240   1426.54602     575.2532     436.4240
   1426.53076     578.0061     438.4836   1426.53076     578.0061     438.4836
   1426.51550     581.1868     440.9105   1426.51550     581.1868     440.9105
   1426.50024     583.6006     443.7026   1426.50024     583.6006     443.7026
   1426.48499     586.0086     446.0522   1426.48499     586.0086     446.0522
   1426.46973     590.7958     448.4003   1426.46973     590.7958     448.4003
   1426.45447     593.1370     451.0139   1426.45447     593.1370     451.0139
   1426.43921     595.9323     454.0471   1426.43921     595.9323     454.0471
   1426.42395     599.4951     455.9531   1426.42395     599.4951     455.9531
   1426.40869     603.0660     459.0579   1426.40869     603.0660     459.0579
   1426.39343     605.3090     461.2477   1426.39343     605.3090     461.2477
   1426.37817     608.0054     463.5359   1426.37817     608.0054     463.5359
   1426.36292     610.9661     465.4756   1426.36292     610.9661     465.4756
   1426.34766     613.7277     468.2920   1426.34766     613.7277     468.2920
   1426.33240     617.0551     470.4976   1426.33240     617.0551     470.4976
   1426.31714     619.7452     473.3036   1426.31714     619.7452     473.3036
   1426.30188     622.2498     475.3511   1426.30188     622.2498     475.3511
   1426.28662     626.0844     477.5975   1426.28662     626.0844     477.5975
   1426.27136     627.3567     480.4795   1426.27136     627.3567     480.4795
   1426.25610     630.3380     482.6430   1426.25610     630.3380     482.6430
   1426.24084     634.2188     485.2512   1426.24084     634.2188     485.2512
   1426.22559     637.2146     487.8058   1426.22559     637.2146     487.8058
   1426.21033     638.8895     489.3707   1426.21033     638.8895     489.3707
   1426.19507     641.0245     492.4115   1426.19507     641.0245     492.4115
   1426.17981     644.3099     493.6872   1426.17981     644.3099     493.6872
   1426.16455     647.7265     497.0462   1426.16455     647.7265     497.0462
   1426.14929     649.4744     497.8888   1426.14929     649.4744     497.8888
   1426.13403     652.3630     501.4494   1426.13403     652.3630     501.4494
   1426.11877     655.5179     503.7751   1426.11877     655.5179     503.7751
   1426.10352     657.1119     505.8811   1426.10352     657.1119     505.8811
   1426.08826     661.0807     507.2241   1426.08826     661.0807     507.2241
   1426.07300     662.1680     510.0898   1426.07300     662.1680     510.0898
   1426.05774     664.0588     512.2592   1426.05774     664.0588     512.2592
   1426.04248     666.9696     514.7567   1426.04248     666.9696     514.7567
   1426.02722     669.5845     516.0135   1426.02722     669.5845     516.0135
   1426.01196     671.3270     519.5659   1426.01196     671.3270     519.5659
   1425.99670     674.2861     521.2027   1425.99670     674.2861     521.2027
   1425.98145     676.6507     522.9064   1425.98145     676.6507     522.9064
   1425.96619     679.2338     525.3036   1425.96619     679.2338     525.3036
   1425.95093     680.7048     527.2750   1425.95093     680.7048     527.2750
   1425.93567     682.7725     529.1946   1425.93567     682.7725     529.1946
   1425.92041     685.4587     531.2317   1425.92041     685.4587     531.2317
   1425.90515     687.6981     533.8250   1425.90515     687.6981     533.8250
   1425.88989     691.0167     535.4022   1425.88989     691.0167     535.4022
   1425.87463     691.5710     538.0687   1425.87463     691.5710     538.0687
   1425.85938     694.0229     538.7059   1425.85938     694.0229     538.7059
   1425.84412     697.0072     540.1868   1425.84412     697.0072     540.1868
   1425.82886     700.0980     542.8494   1425.82886     700.0980     542.8494
   1425.81360     699.9116     545.3528   1425.81360     699.9116     545.3528
   1425.79834     702.8729     547.4902   1425.79834     702.8729     547.4902
   1425.78308     705.4902     548.9373   1425.78308     705.4902     548.9373
   1425.76782     705.4951     550.0421   1425.76782     705.4951     550.0421
   1425.75256     707.7183     552.1252   1425.75256     707.7183     552.1252
   1425.73730     710.0785     554.8736   1425.73730     710.0785     554.8736
   1425.72205     712.4075     557.0680   1425.72205     712.4075     557.0680
   1425.70679     713.8186     557.4439   1425.70679     713.8186     557.4439
   1425.69153     715.0821     559.5136   1425.69153     715.0821     559.5136
   1425.67627     716.5973     561.2927   1425.67627     716.5973     561.2927
   1425.66101     717.8931     563.2948   1425.66101     717.8931     563.2948
   1425.64575     720.5611     565.9141   1425.64575     720.5611     565.9141
   1425.63049     721.8525     567.3537   1425.63049     721.8525     567.3537
   1425.61523     724.1249     568.8337   1425.61523     724.1249     568.8337
   1425.59998     725.0853     570.5991   1425.59998     725.0853     570.5991
   1425.58472     725.9778     571.9297   1425.58472     725.9778     571.9297
   1425.56946     727.2854     573.2333   1425.56946     727.2854     573.2333
   1425.55420     729.5240     575.9336   1425.55420     729.5240     575.9336
   1425.53894     730.6427     576.4259   1425.53894     730.6427     576.4259
   1425.52368     731.9766     578.2885   1425.52368     731.9766     578.2885
   1425.50842     733.9442     581.4498   1425.50842     733.9442     581.4498
   1425.49316     733.9874     581.9155   1425.49316     733.9874     581.9155
   1425.47791     736.0783     583.0468   1425.47791     736.0783     583.0468
   1425.46265     736.4498     585.5558   1425.46265     736.4498     585.5558
   1425.44739     738.0048     585.7924   1425.44739     738.0048     585.7924
   1425.43213     740.5219     588.5456   1425.43213     740.5219     588.5456
   1425.41687     741.8153     589.2596   1425.41687     741.8153     589.2596
   1425.40161     742.2525     590.7990   1425.40161     742.2525     590.7990
   1425.38635     743.8296     593.9491   1425.38635     743.8296     593.9491
   1425.37109     745.0742     592.9700   1425.37109     745.0742     592.9700
   1425.35583     745.5406     595.5908   1425.35583     745.5406     595.5908
   1425.34058     747.1099     596.7657   1425.34058     747.1099     596.7657
   1425.32532     746.7759     597.9491   1425.32532     746.7759     597.9491
   1425.31006     749.1348     599.4537   1425.31006     749.1348     599.4537
   1425.29480     749.6904     601.7369   1425.29480     749.6904     601.7369
   1425.27954     749.9305     601.9305   1425.27954     749.9305     601.9305
   1425.26428     752.2262     604.7175   1425.26428     752.2262     604.7175
   1425.24902     752.9007     604.9256   1425.24902     752.9007     604.9256
   1425.23376     753.7845     607.2217   1425.23376     753.7845     607.2217
   1425.21851     753.5590     607.8146   1425.21851     753.5590     607.8146
   1425.20325     754.5961     609.9470   1425.20325     754.5961     609.9470
   1425.18799     755.7950     611.1051   1425.18799     755.7950     611.1051
   1425.17273     755.5867     611.0005   1425.17273     755.5867     611.0005
   1425.15747     756.7449     612.8672   1425.15747     756.7449     612.8672
   1425.14221     758.1090     614.8494   1425.14221     758.1090     614.8494
   1425.12695     759.6534     615.2105   1425.12695     759.6534     615.2105
   1425.11169     759.2759     616.6420   1425.11169     759.2759     616.6420
   1425.09644     759.9075     618.0790   1425.09644     759.9075     618.0790
   1425.08118     759.1117     617.9741   1425.08118     759.1117     617.9741
   1425.06592     760.9466     620.2035   1425.06592     760.9466     620.2035
   1425.05066     761.9652     622.3423   1425.05066     761.9652     622.3423
   1425.03540     760.6380     622.5634   1425.03540     760.6380     622.5634
   1425.02014     760.6766     623.6951   1425.02014     760.6766     623.6951
   1425.00488     764.0621     624.5217   1425.00488     764.0621     624.5217
   1424.98962     761.9466     626.6028   1424.98962     761.9466     626.6028
   1424.97437     763.2270     626.0555   1424.97437     763.2270     626.0555
   1424.95911     763.4533     628.2406   1424.95911     763.4533     628.2406
   1424.94385     763.6686     628.5634   1424.94385     763.6686     628.5634
   1424.92859     764.3444     630.0629   1424.92859     764.3444     630.0629
   1424.91333     764.9067     630.6284   1424.91333     764.9067     630.6284
   1424.89807     764.1197     631.7236   1424.89807     764.1197     631.7236
   1424.88281     765.1799     632.2891   1424.88281     765.1799     632.2891
   1424.86755     764.9215     634.4164   1424.86755     764.9215     634.4164
   1424.85229     766.2784     635.4497   1424.85229     766.2784     635.4497
   1424.83704     766.4659     634.3637   1424.83704     766.4659     634.3637
   1424.82178     766.3865     635.3976   1424.82178     766.3865     635.3976
   1424.80652     765.5138     637.0132   1424.80652     765.5138     637.0132
   1424.79126     765.5126     638.7628   1424.79126     765.5126     638.7628
   1424.77600     767.7819     639.1388   1424.77600     767.7819     639.1388
   1424.76074     767.7566     639.8262   1424.76074     767.7566     639.8262
   1424.74548     768.0981     641.6796   1424.74548     768.0981     641.6796
   1424.73022     767.2770     640.9456   1424.73022     767.2770     640.9456
   1424.71497     767.8034     642.2007   1424.71497     767.8034     642.2007
   1424.69971     766.9661     641.8671   1424.69971     766.9661     641.8671
   1424.68445     767.2106     643.6599   1424.68445     767.2106     643.6599
   1424.66919     767.9838     644.8369   1424.66919     767.9838     644.8369
   1424.65393     767.4540     646.2882   1424.65393     767.4540     646.2882
   1424.63867     767.8306     645.6689   1424.63867     767.8306     645.6689
   1424.62341     767.9495     646.5068   1424.62341     767.9495     646.5068
   1424.60815     768.8302     648.3090   1424.60815     768.8302     648.3090
   1424.59290     767.6754     648.5159   1424.59290     767.6754     648.5159
   1424.57764     768.2286     649.5770   1424.57764     768.2286     649.5770
   1424.56238     768.3602     650.4094   1424.56238     768.3602     650.4094
   1424.54712     767.5679     650.2566   1424.54712     767.5679     650.2566
   1424.53186     766.1560     650.7298   1424.53186     766.1560     650.7298
   1424.51660     767.4214     653.2346   1424.51660     767.4214     653.2346
   1424.50134     766.1682     652.3558   1424.50134     766.1682     652.3558
   1424.48608     767.1967     652.6315   1424.48608     767.1967     652.6315
   1424.47083     767.4539     653.0560   1424.47083     767.4539     653.0560
   1424.45557     766.6055     654.4641   1424.45557     766.6055     654.4641
   1424.44031     767.6818     654.7288   1424.44031     767.6818     654.7288
   1424.42505     766.9120     655.3742   1424.42505     766.9120     655.3742
   1424.40979     766.8841     654.5787   1424.40979     766.8841     654.5787
   1424.39453     765.6572     656.0894   1424.39453     765.6572     656.0894
   1424.37927     765.2255     657.2828   1424.37927     765.2255     657.2828
   1424.36401     767.7628     658.3697   1424.36401     767.7628     658.3697
   1424.34875     765.1501     657.4800   1424.34875     765.1501     657.4800
   1424.33350     766.1492     658.1424   1424.33350     766.1492     658.1424
   1424.31824     765.1938     658.1661   1424.31824     765.1938     658.1661
   1424.30298     764.0598     659.3867   1424.30298     764.0598     659.3867
   1424.28772     764.8766     659.8395   1424.28772     764.8766     659.8395
   1424.27246     764.7445     659.9750   1424.27246     764.7445     659.9750
   1424.25720     764.5458     660.5551   1424.25720     764.5458     660.5551
   1424.24194     764.3990     661.0565   1424.24194     764.3990     661.0565
   1424.22668     763.2300     659.7581   1424.22668     763.2300     659.7581
   1424.21143     762.8265     662.4177   1424.21143     762.8265     662.4177
   1424.19617     762.7167     662.1802   1424.19617     762.7167     662.1802
   1424.18091     762.7439     662.7592   1424.18091     762.7439     662.7592
   1424.16565     762.9484     662.4830   1424.16565     762.9484     662.4830
   1424.15039     761.7784     664.3491   1424.15039     761.7784     664.3491
   1424.13513     762.8380     663.3361   1424.13513     762.8380     663.3361
   1424.11987     761.4357     663.7759   1424.11987     761.4357     663.7759
   1424.10461     761.9708     664.0200   1424.10461     761.9708     664.0200
   1424.08936     760.4782     665.4929   1424.08936     760.4782     665.4929
   1424.07410     760.7110     663.8660   1424.07410     760.7110     663.8660
   1424.05884     760.0385     664.6494   1424.05884     760.0385     664.6494
   1424.04358     761.1669     664.8365   1424.04358     761.1669     664.8365
   1424.02832     758.8727     666.3820   1424.02832     758.8727     666.3820
   1424.01306     758.6717     665.7946   1424.01306     758.6717     665.7946
   1423.99780     758.6848     665.6608   1423.99780     758.6848     665.6608
   1423.98254     758.9883     666.4174   1423.98254     758.9883     666.4174
   1423.96729     758.2167     667.6097   1423.96729     758.2167     667.6097
   1423.95203     758.4313     666.0474   1423.95203     758.4313     666.0474
   1423.93677     756.9190     667.2583   1423.93677     756.9190     667.2583
   1423.92151     757.3968     667.7089   1423.92151     757.3968     667.7089
   1423.90625     755.6531     667.2097   1423.90625     755.6531     667.2097
   1423.89099     756.7451     666.3171   1423.89099     756.7451     666.3171
   1423.87573     757.5245     665.7608   1423.87573     757.5245     665.7608
   1423.86047     756.3131     667.3823   1423.86047     756.3131     667.3823
   1423.84521     755.3572     668.1188   1423.84521     755.3572     668.1188
   1423.82996     755.2640     667.7660   1423.82996     755.2640     667.7660
   1423.81470     755.1356     667.4814   1423.81470     755.1356     667.4814
   1423.79944     755.1383     666.4688   1423.79944     755.1383     666.4688
   1423.78418     754.5865     667.5684   1423.78418     754.5865     667.5684
   1423.76892     754.6121     668.4753   1423.76892     754.6121     668.4753
   1423.75366     753.2895     667.9088   1423.75366     753.2895     667.9088
   1423.73840     753.8960     667.7396   1423.73840     753.8960     667.7396
   1423.72314     752.5471     668.6663   1423.72314     752.5471     668.6663
   1423.70789     750.4885     668.0988   1423.70789     750.4885     668.0988
   1423.69263     752.3098     668.5564   1423.69263     752.3098     668.5564
   1423.67737     752.3142     666.8927   1423.67737     752.3142     666.8927
   1423.66211     751.3694     667.6794   1423.66211     751.3694     667.6794
   1423.64685     752.0847     667.4214   1423.64685     752.0847     667.4214
   1423.63159     751.2495     667.9840   1423.63159     751.2495     667.9840
   1423.61633     750.5308     667.7219   1423.61633     750.5308     667.7219
   1423.60107     750.4118     667.9692   1423.60107     750.4118     667.9692
   1423.58582     750.7725     668.3002   1423.58582     750.7725     668.3002
   1423.57056     749.8536     666.9556   1423.57056     749.8536     666.9556
   1423.55530     748.8022     667.5151   1423.55530     748.8022     667.5151
   1423.54004     748.1959     666.8949   1423.54004     748.1959     666.8949
   1423.52478     748.1184     666.5825   1423.52478     748.1184     666.5825
   1423.50952     747.7745     666.3663   1423.50952     747.7745     666.3663
   1423.49426     747.1963     667.0533   1423.49426     747.1963     667.0533
   1423.47900     746.8692     666.2864   1423.47900     746.8692     666.2864
   1423.46375     746.4457     666.0463   1423.46375     746.4457     666.0463
   1423.44849     746.7987     665.1567   1423.44849     746.7987     665.1567
   1423.43323     745.6625     666.2049   1423.43323     745.6625     666.2049
   1423.41797     746.2111     663.5936   1423.41797     746.2111     663.5936
   1423.40271     745.8287     664.9910   1423.40271     745.8287     664.9910
   1423.38745     745.8362     663.2599   1423.38745     745.8362     663.2599
   1423.37219     744.5806     664.3797   1423.37219     744.5806     664.3797
   1423.35693     744.9648     663.1271   1423.35693     744.9648     663.1271
   1423.34167     744.7493     662.7686   1423.34167     744.7493     662.7686
   1423.32642     743.2114     662.8113   1423.32642     743.2114     662.8113
   1423.31116     743.5536     662.4237   1423.31116     743.5536     662.4237
   1423.29590     743.4186     661.8979   1423.29590     743.4186     661.8979
   1423.28064     742.2859     661.1852   1423.28064     742.2859     661.1852
   1423.26538     743.0973     661.4018   1423.26538     743.0973     661.4018
   1423.25012     740.9876     660.0616   1423.25012     740.9876     660.0616
   1423.23486     742.6674     661.8450   1423.23486     742.6674     661.8450
   1423.21960     741.9274     659.3253   1423.21960     741.9274     659.3253
   1423.20435     742.9159     660.5663   1423.20435     742.9159     660.5663
   1423.18909     742.0292     659.3525   1423.18909     742.0292     659.3525
   1423.17383     739.7605     657.9220   1423.17383     739.7605     657.9220
   1423.15857     739.8916     658.0837   1423.15857     739.8916     658.0837
   1423.14331     738.9111     657.5101   1423.14331     738.9111     657.5101
   1423.12805     740.5062     657.3672   1423.12805     740.5062     657.3672
   1423.11279     738.3478     656.2775   1423.11279     738.3478     656.2775
   1423.09753     740.6696     655.8384   1423.09753     740.6696     655.8384
   1423.08228     739.0521     654.1928   1423.08228     739.0521     654.1928
   1423.06702     738.7227     654.7027   1423.06702     738.7227     654.7027
   1423.05176     738.3883     654.2848   1423.05176     738.3883     654.2848
   1423.03650     737.9903     653.4493   1423.03650     737.9903     653.4493
   1423.02124     737.1370     652.4213   1423.02124     737.1370     652.4213
   1423.00598     737.2621     651.9508   1423.00598     737.2621     651.9508
   1422.99072     737.7278     650.8471   1422.99072     737.7278     650.8471
   1422.97546     738.1336     649.8459   1422.97546     738.1336     649.8459
   1422.96021     735.6439     650.6514   1422.96021     735.6439     650.6514
   1422.94495     736.7256     648.5260   1422.94495     736.7256     648.5260
   1422.92969     736.1343     648.9122   1422.92969     736.1343     648.9122
   1422.91443     735.4963     647.7184   1422.91443     735.4963     647.7184
   1422.89917     735.1412     645.9756   1422.89917     735.1412     645.9756
   1422.88391     735.3494     645.5105   1422.88391     735.3494     645.5105
   1422.86865     734.9971     644.1039   1422.86865     734.9971     644.1039
   1422.85339     735.0963     644.4129   1422.85339     735.0963     644.4129
   1422.83813     733.7635     643.7949   1422.83813     733.7635     643.7949
   1422.82288     734.7266     643.2992   1422.82288     734.7266     643.2992
   1422.80762     733.7850     642.3214   1422.80762     733.7850     642.3214
   1422.79236     733.8181     641.1177   1422.79236     733.8181     641.1177
   1422.77710     734.1984     640.5800   1422.77710     734.1984     640.5800
   1422.76184     733.2205     638.5836   1422.76184     733.2205     638.5836
   1422.74658     733.9441     638.5400   1422.74658     733.9441     638.5400
   1422.73132     733.8092     637.8234   1422.73132     733.8092     637.8234
   1422.71606     732.5962     636.7919   1422.71606     732.5962     636.7919
   1422.70081     732.4673     635.0775   1422.70081     732.4673     635.0775
   1422.68555     731.2605     633.5554   1422.68555     731.2605     633.5554
   1422.67029     732.7310     633.2401   1422.67029     732.7310     633.2401
   1422.65503     731.8420     631.3836   1422.65503     731.8420     631.3836
   1422.63977     730.1281     630.8251   1422.63977     730.1281     630.8251
   1422.62451     731.5745     631.4921   1422.62451     731.5745     631.4921
   1422.60925     730.7697     629.2794   1422.60925     730.7697     629.2794
   1422.59399     731.5728     628.5208   1422.59399     731.5728     628.5208
   1422.57874     730.8333     626.3705   1422.57874     730.8333     626.3705
   1422.56348     730.8563     626.7699   1422.56348     730.8563     626.7699
   1422.54822     730.1174     626.2006   1422.54822     730.1174     626.2006
   1422.53296     730.5154     623.6292   1422.53296     730.5154     623.6292
   1422.51770     730.4799     623.0660   1422.51770     730.4799     623.0660
   1422.50244     728.6239     622.1552   1422.50244     728.6239     622.1552
   1422.48718     729.5403     620.8112   1422.48718     729.5403     620.8112
   1422.47192     729.6276     619.9203   1422.47192     729.6276     619.9203
   1422.45667     729.2330     618.5209   1422.45667     729.2330     618.5209
   1422.44141     728.1753     617.5253   1422.44141     728.1753     617.5253
   1422.42615     728.9807     616.2808   1422.42615     728.9807     616.2808
   1422.41089     728.7212     614.6544   1422.41089     728.7212     614.6544
   1422.39563     728.5573     614.2120   1422.39563     728.5573     614.2120
   1422.38037     728.9333     612.6257   1422.38037     728.9333     612.6257
   1422.36511     727.5809     611.4011   1422.36511     727.5809     611.4011
   1422.34985     727.1501     610.3539   1422.34985     727.1501     610.3539
   1422.33459     728.0557     608.7080   1422.33459     728.0557     608.7080
   1422.31934     727.9460     608.0754   1422.31934     727.9460     608.0754
   1422.30408     728.1501     607.5860   1422.30408     728.1501     607.5860
   1422.28882     726.8189     606.2556   1422.28882     726.8189     606.2556
   1422.27356     726.3502     604.6074   1422.27356     726.3502     604.6074
   1422.25830     727.3494     604.2705   1422.25830     727.3494     604.2705
   1422.24304     726.3709     602.0316   1422.24304     726.3709     602.0316
   1422.22778     727.1398     600.6824   1422.22778     727.1398     600.6824
   1422.21252     726.9024     600.4385   1422.21252     726.9024     600.4385
   1422.19727     725.7532     598.0056   1422.19727     725.7532     598.0056
   1422.18201     725.7169     597.6484   1422.18201     725.7169     597.6484
   1422.16675     725.0124     595.4122   1422.16675     725.0124     595.4122
   1422.15149     725.8987     594.6132   1422.15149     725.8987     594.6132
   1422.13623     725.8917     593.5231   1422.13623     725.8917     593.5231
   1422.12097     725.9129     592.9404   1422.12097     725.9129     592.9404
   1422.10571     725.3488     590.5814   1422.10571     725.3488     590.5814
   1422.09045     725.3087     588.9008   1422.09045     725.3087     588.9008
   1422.07520     724.4640     586.9191   1422.07520     724.4640     586.9191
   1422.05994     725.9582     586.1462   1422.05994     725.9582     586.1462
   1422.04468     725.2537     585.3477   1422.04468     725.2537     585.3477
   1422.02942     724.3808     582.7308   1422.02942     724.3808     582.7308
   1422.01416     725.0480     583.1975   1422.01416     725.0480     583.1975
   1421.99890     723.5602     582.5490   1421.99890     723.5602     582.5490
   1421.98364     724.1946     580.1777   1421.98364     724.1946     580.1777
   1421.96838     723.4231     579.3273   1421.96838     723.4231     579.3273
   1421.95312     723.6571     577.6308   1421.95312     723.6571     577.6308
   1421.93787     723.0416     576.2740   1421.93787     723.0416     576.2740
   1421.92261     722.2076     574.0504   1421.92261     722.2076     574.0504
   1421.90735     721.8102     573.0967   1421.90735     721.8102     573.0967
   1421.89209     722.7230     572.2598   1421.89209     722.7230     572.2598
   1421.87683     724.1106     571.1598   1421.87683     724.1106     571.1598
   1421.86157     721.8887     569.0570   1421.86157     721.8887     569.0570
   1421.84631     722.6609     567.7155   1421.84631     722.6609     567.7155
   1421.83105     721.9136     566.2842   1421.83105     721.9136     566.2842
   1421.81580     722.5932     565.3837   1421.81580     722.5932     565.3837
   1421.80054     721.7296     562.6068   1421.80054     721.7296     562.6068
   1421.78528     720.3302     562.0201   1421.78528     720.3302     562.0201
   1421.77002     721.6827     560.3199   1421.77002     721.6827     560.3199
   1421.75476     722.5848     559.5142   1421.75476     722.5848     559.5142
   1421.73950     721.1638     558.1591   1421.73950     721.1638     558.1591
   1421.72424     721.5731     556.2392   1421.72424     721.5731     556.2392
   1421.70898     721.2272     555.0297   1421.70898     721.2272     555.0297
   1421.69373     720.4024     553.5894   1421.69373     720.4024     553.5894
   1421.67847     720.8475     553.2945   1421.67847     720.8475     553.2945
   1421.66321     720.0629     551.0931   1421.66321     720.0629     551.0931
   1421.64795     720.4844     549.5821   1421.64795     720.4844     549.5821
   1421.63269     720.3223     547.8322   1421.63269     720.3223     547.8322
   1421.61743     720.5811     547.5561   1421.61743     720.5811     547.5561
   1421.60217     719.7573     545.2893   1421.60217     719.7573     545.2893
   1421.58691     719.2697     544.0509   1421.58691     719.2697     544.0509
   1421.57166     720.0892     542.6221   1421.57166     720.0892     542.6221
   1421.55640     717.7632     541.2443   1421.55640     717.7632     541.2443
   1421.54114     718.9528     539.4614   1421.54114     718.9528     539.4614
   1421.52588     719.2678     538.4077   1421.52588     719.2678     538.4077
   1421.51062     718.3497     537.4595   1421.51062     718.3497     537.4595
   1421.49536     719.0812     536.6755   1421.49536     719.0812     536.6755
   1421.48010     718.8647     534.5847   1421.48010     718.8647     534.5847
   1421.46484     718.5795     532.4732   1421.46484     718.5795     532.4732
   1421.44958     718.1490     531.2253   1421.44958     718.1490     531.2253
   1421.43433     719.3702     531.8934   1421.43433     719.3702     531.8934
   1421.41907     718.7561     530.7126   1421.41907     718.7561     530.7126
   1421.40381     720.2337     529.1874   1421.40381     720.2337     529.1874
   1421.38855     720.2786     527.1649   1421.38855     720.2786     527.1649
   1421.37329     720.5397     526.8002   1421.37329     720.5397     526.8002
   1421.35803     722.0450     526.5394   1421.35803     722.0450     526.5394
   1421.34277     721.8005     524.8873   1421.34277     721.8005     524.8873
   1421.32751     721.8654     524.2657   1421.32751     721.8654     524.2657
   1421.31226     721.4272     522.5013   1421.31226     721.4272     522.5013
   1421.29700     721.4012     521.8650   1421.29700     721.4012     521.8650
   1421.28174     722.0338     520.4102   1421.28174     722.0338     520.4102
   1421.26648     720.3630     519.0348   1421.26648     720.3630     519.0348
   1421.25122     720.6810     517.1440   1421.25122     720.6810     517.1440
   1421.23596     720.0099     515.7456   1421.23596     720.0099     515.7456
   1421.22070     718.1389     513.2963   1421.22070     718.1389     513.2963
   1421.20544     720.0626     512.9169   1421.20544     720.0626     512.9169
   1421.19019     719.7454     512.2233   1421.19019     719.7454     512.2233
   1421.17493     721.5585     511.3524   1421.17493     721.5585     511.3524
   1421.15967     723.1538     511.8410   1421.15967     723.1538     511.8410
   1421.14441     726.7958     513.5113   1421.14441     726.7958     513.5113
   1421.12915     732.3623     515.9636   1421.12915     732.3623     515.9636
   1421.11389     740.8477     520.8883   1421.11389     740.8477     520.8883
   1421.09863     752.8818     527.8124   1421.09863     752.8818     527.8124
   1421.08337     764.9431     534.6279   1421.08337     764.9431     534.6279
   1421.06812     781.5397     545.7474   1421.06812     781.5397     545.7474
   1421.05286     790.9245     550.6009   1421.05286     790.9245     550.6009
   1421.03760     789.8904     548.9946   1421.03760     789.8904     548.9946
   1421.02234     794.2886     549.6953   1421.02234     794.2886     549.6953
   1421.00708     810.5925     560.7504   1421.00708     810.5925     560.7504
   1420.99182     838.1486     578.7821   1420.99182     838.1486     578.7821
   1420.97656     922.4630     633.8407   1420.97656     922.4630     633.8407
   1420.96130    1099.9882     753.0457   1420.96130    1099.9882     753.0457
   1420.94604    1098.3884     751.5316   1420.94604    1098.3884     751.5316
   1420.93079    1010.4590     690.9193   1420.93079    1010.4590     690.9193
   1420.91553     993.0007     674.3467   1420.91553     993.0007     674.3467
   1420.90027     971.9839     658.5979   1420.90027     971.9839     658.5979
   1420.88501     901.2625     610.5238   1420.88501     901.2625     610.5238
   1420.86975     890.7876     603.5656   1420.86975     890.7876     603.5656
   1420.85449     925.0197     622.9164   1420.85449     925.0197     622.9164
   1420.83923     924.9106     621.3925   1420.83923     924.9106     621.3925
   1420.82397     986.5958     660.2516   1420.82397     986.5958     660.2516
   1420.80872    1073.2407     716.9753   1420.80872    1073.2407     716.9753
   1420.79346    1146.7144     768.7070   1420.79346    1146.7144     768.7070
   1420.77820    1324.7167     881.9431   1420.77820    1324.7167     881.9431
   1420.76294    1545.6288    1027.8684   1420.76294    1545.6288    1027.8684
   1420.74768    1711.3068    1130.9591   1420.74768    1711.3068    1130.9591
   1420.73242    1927.6080    1271.3649   1420.73242    1927.6080    1271.3649
   1420.71716    2119.3525    1393.8977   1420.71716    2119.3525    1393.8977
   1420.70190    2075.6589    1364.0411   1420.70190    2075.6589    1364.0411
   1420.68665    1915.4441    1254.0558   1420.68665    1915.4441    1254.0558
   1420.67139    1701.4467    1111.0375   1420.67139    1701.4467    1111.0375
   1420.65613    1437.8195     941.0975   1420.65613    1437.8195     941.0975
   1420.64087    1291.2195     844.1085   1420.64087    1291.2195     844.1085
   1420.62561    1235.9441     805.1381   1420.62561    1235.9441     805.1381
   1420.61035    1078.1342     702.1397   1420.61035    1078.1342     702.1397
   1420.59509     989.8288     645.6927   1420.59509     989.8288     645.6927
   1420.57983    1024.5074     665.6335   1420.57983    1024.5074     665.6335
   1420.56458    1166.9994     752.7459   1420.56458    1166.9994     752.7459
   1420.54932    1299.2812     837.9897   1420.54932    1299.2812     837.9897
   1420.53406    1492.9215     960.9777   1420.53406    1492.9215     960.9777
   1420.51880    1663.9594    1066.0292   1420.51880    1663.9594    1066.0292
   1420.50354    1776.0320    1136.9153   1420.50354    1776.0320    1136.9153
   1420.48828    1878.7015    1198.4729   1420.48828    1878.7015    1198.4729
   1420.47302    1631.9515    1041.4242   1420.47302    1631.9515    1041.4242
   1420.45776    1153.5630     736.2090   1420.45776    1153.5630     736.2090
   1420.44250     949.6090     604.5588   1420.44250     949.6090     604.5588
   1420.42725     873.9141     557.5681   1420.42725     873.9141     557.5681
   1420.41199     827.2596     526.7767   1420.41199     827.2596     526.7767
   1420.39673     790.0051     503.8979   1420.39673     790.0051     503.8979
   1420.38147     760.7598     483.2495   1420.38147     760.7598     483.2495
   1420.36621     741.0757     470.7783   1420.36621     741.0757     470.7783
   1420.35095     730.8214     462.4135   1420.35095     730.8214     462.4135
   1420.33569     722.5352     457.9191   1420.33569     722.5352     457.9191
   1420.32043     718.8527     454.6948   1420.32043     718.8527     454.6948
   1420.30518     716.2104     452.6522   1420.30518     716.2104     452.6522
   1420.28992     714.3011     451.2594   1420.28992     714.3011     451.2594
   1420.27466     712.4318     449.3776   1420.27466     712.4318     449.3776
   1420.25940     713.5190     448.4599   1420.25940     713.5190     448.4599
   1420.24414     711.9188     447.4884   1420.24414     711.9188     447.4884
   1420.22888     711.6658     446.2538   1420.22888     711.6658     446.2538
   1420.21362     711.0289     445.2361   1420.21362     711.0289     445.2361
   1420.19836     710.2941     442.9283   1420.19836     710.2941     442.9283
   1420.18311     709.5555     442.4540   1420.18311     709.5555     442.4540
   1420.16785     709.9899     441.2781   1420.16785     709.9899     441.2781
   1420.15259     709.3468     439.7007   1420.15259     709.3468     439.7007
   1420.13733     707.7256     440.1113   1420.13733     707.7256     440.1113
   1420.12207     707.3737     439.0210   1420.12207     707.3737     439.0210
   1420.10681     706.9958     437.4199   1420.10681     706.9958     437.4199
   1420.09155     706.1212     436.2868   1420.09155     706.1212     436.2868
   1420.07629     705.3276     435.4544   1420.07629     705.3276     435.4544
   1420.06104     705.1166     434.9073   1420.06104     705.1166     434.9073
   1420.04578     705.4633     434.1731   1420.04578     705.4633     434.1731
   1420.03052     705.6592     433.1554   1420.03052     705.6592     433.1554
   1420.01526     705.2998     433.4368   1420.01526     705.2998     433.4368
   1420.00000     706.3970     433.8549   1420.00000     706.3970     433.8549
   1419.98474     707.4942     434.2731   1419.98474     707.4942     434.2731
   1419.96948     707.6747     432.0961   1419.96948     707.6747     432.0961
   1419.95422     704.0800     430.5297   1419.95422     704.0800     430.5297
   1419.93896     705.2431     429.9916   1419.93896     705.2431     429.9916
   1419.92371     705.6476     428.9940   1419.92371     705.6476     428.9940
   1419.90845     703.6024     429.0676   1419.90845     703.6024     429.0676
   1419.89319     704.9935     427.9939   1419.89319     704.9935     427.9939
   1419.87793     705.2185     427.5915   1419.87793     705.2185     427.5915
   1419.86267     706.1215     427.7166   1419.86267     706.1215     427.7166
   1419.84741     706.2342     427.2245   1419.84741     706.2342     427.2245
   1419.83215     704.3094     426.2729   1419.83215     704.3094     426.2729
   1419.81689     705.5278     426.0269   1419.81689     705.5278     426.0269
   1419.80164     704.9195     425.6376   1419.80164     704.9195     425.6376
   1419.78638     706.7689     425.9271   1419.78638     706.7689     425.9271
   1419.77112     705.7815     425.2483   1419.77112     705.7815     425.2483
   1419.75586     706.1339     424.5143   1419.75586     706.1339     424.5143
   1419.74060     706.8368     424.5166   1419.74060     706.8368     424.5166
   1419.72534     707.7018     424.3723   1419.72534     707.7018     424.3723
   1419.71008     706.2078     423.4862   1419.71008     706.2078     423.4862
   1419.69482     707.6257     423.2829   1419.69482     707.6257     423.2829
   1419.67957     706.8030     423.0069   1419.67957     706.8030     423.0069
   1419.66431     707.0742     422.9478   1419.66431     707.0742     422.9478
   1419.64905     707.3832     422.9835   1419.64905     707.3832     422.9835
   1419.63379     707.2646     422.6491   1419.63379     707.2646     422.6491
   1419.61853     707.3141     422.6629   1419.61853     707.3141     422.6629
   1419.60327     708.2903     422.6007   1419.60327     708.2903     422.6007
   1419.58801     706.9403     421.9979   1419.58801     706.9403     421.9979
   1419.57275     709.2130     422.4579   1419.57275     709.2130     422.4579
   1419.55750     708.6381     421.5884   1419.55750     708.6381     421.5884
   1419.54224     708.9796     421.6570   1419.54224     708.9796     421.6570
   1419.52698     709.1624     421.1505   1419.52698     709.1624     421.1505
   1419.51172     709.9868     421.7079   1419.51172     709.9868     421.7079
   1419.49646     710.0103     421.1164   1419.49646     710.0103     421.1164
   1419.48120     710.1490     421.1762   1419.48120     710.1490     421.1762
   1419.46594     711.1547     421.8938   1419.46594     711.1547     421.8938
   1419.45068     711.9335     421.1520   1419.45068     711.9335     421.1520
   1419.43542     711.7781     420.7691   1419.43542     711.7781     420.7691
   1419.42017     712.1135     421.8815   1419.42017     712.1135     421.8815
   1419.40491     712.0593     421.8131   1419.40491     712.0593     421.8131
   1419.38965     712.2811     421.0038   1419.38965     712.2811     421.0038
   1419.37439     711.6493     421.2829   1419.37439     711.6493     421.2829
   1419.35913     712.6030     421.2401   1419.35913     712.6030     421.2401
   1419.34387     713.5685     421.8438   1419.34387     713.5685     421.8438
   1419.32861     713.0274     421.7240   1419.32861     713.0274     421.7240
   1419.31335     713.8700     421.9210   1419.31335     713.8700     421.9210
   1419.29810     714.4866     421.6973   1419.29810     714.4866     421.6973
   1419.28284     714.3402     422.0589   1419.28284     714.3402     422.0589
   1419.26758     716.1091     421.5601   1419.26758     716.1091     421.5601
   1419.25232     715.7303     422.4397   1419.25232     715.7303     422.4397
   1419.23706     716.4280     422.9725   1419.23706     716.4280     422.9725
   1419.22180     717.9703     422.7265   1419.22180     717.9703     422.7265
   1419.20654     716.9087     422.5636   1419.20654     716.9087     422.5636
   1419.19128     718.6401     422.7394   1419.19128     718.6401     422.7394
   1419.17603     718.1715     422.9760   1419.17603     718.1715     422.9760
   1419.16077     717.8310     423.5801   1419.16077     717.8310     423.5801
   1419.14551     718.2789     423.0745   1419.14551     718.2789     423.0745
   1419.13025     718.9640     423.4488   1419.13025     718.9640     423.4488
   1419.11499     719.9495     424.3805   1419.11499     719.9495     424.3805
   1419.09973     720.4943     424.0862   1419.09973     720.4943     424.0862
   1419.08447     721.1446     424.6073   1419.08447     721.1446     424.6073
   1419.06921     721.0515     424.2720   1419.06921     721.0515     424.2720
   1419.05396     722.1776     424.9476   1419.05396     722.1776     424.9476
   1419.03870     721.5606     425.1894   1419.03870     721.5606     425.1894
   1419.02344     723.7869     425.5150   1419.02344     723.7869     425.5150
   1419.00818     720.8428     425.4096   1419.00818     720.8428     425.4096
   1418.99292     724.7430     425.8981   1418.99292     724.7430     425.8981
   1418.97766     722.4628     426.3714   1418.97766     722.4628     426.3714
   1418.96240     724.9742     426.9454   1418.96240     724.9742     426.9454
   1418.94714     725.6859     427.2589   1418.94714     725.6859     427.2589
   1418.93188     726.1881     427.1576   1418.93188     726.1881     427.1576
   1418.91663     726.8554     428.0001   1418.91663     726.8554     428.0001
   1418.90137     726.4337     428.6216   1418.90137     726.4337     428.6216
   1418.88611     727.0692     428.4885   1418.88611     727.0692     428.4885
   1418.87085     727.2562     428.9094   1418.87085     727.2562     428.9094
   1418.85559     728.5557     429.4309   1418.85559     728.5557     429.4309
   1418.84033     730.1725     430.5818   1418.84033     730.1725     430.5818
   1418.82507     729.8326     430.9354   1418.82507     729.8326     430.9354
   1418.80981     731.2817     431.2043   1418.80981     731.2817     431.2043
   1418.79456     731.6710     431.4366   1418.79456     731.6710     431.4366
   1418.77930     731.8688     431.8039   1418.77930     731.8688     431.8039
   1418.76404     731.8900     432.1318   1418.76404     731.8900     432.1318
   1418.74878     733.1336     433.1349   1418.74878     733.1336     433.1349
   1418.73352     733.7745     433.7752   1418.73352     733.7745     433.7752
   1418.71826     733.6474     433.9388   1418.71826     733.6474     433.9388
   1418.70300     733.5684     434.4406   1418.70300     733.5684     434.4406
   1418.68774     736.2126     435.3601   1418.68774     736.2126     435.3601
   1418.67249     736.4716     435.5292   1418.67249     736.4716     435.5292
   1418.65723     736.3844     436.0951   1418.65723     736.3844     436.0951
   1418.64197     738.1530     436.6754   1418.64197     738.1530     436.6754
   1418.62671     738.1024     436.9685   1418.62671     738.1024     436.9685
   1418.61145     739.2212     438.5513   1418.61145     739.2212     438.5513
   1418.59619     739.3203     438.8657   1418.59619     739.3203     438.8657
   1418.58093     740.2479     439.7729   1418.58093     740.2479     439.7729
   1418.56567     740.7239     439.5649   1418.56567     740.7239     439.5649
   1418.55042     741.6042     440.7366   1418.55042     741.6042     440.7366
   1418.53516     741.6152     440.9828   1418.53516     741.6152     440.9828
   1418.51990     743.3755     442.4370   1418.51990     743.3755     442.4370
   1418.50464     745.4541     442.9623   1418.50464     745.4541     442.9623
   1418.48938     744.0195     443.0855   1418.48938     744.0195     443.0855
   1418.47412     745.8312     444.1649   1418.47412     745.8312     444.1649
   1418.45886     746.7861     444.6876   1418.45886     746.7861     444.6876
   1418.44360     747.4880     445.4949   1418.44360     747.4880     445.4949
   1418.42834     748.4966     445.8601   1418.42834     748.4966     445.8601
   1418.41309     749.1055     446.9062   1418.41309     749.1055     446.9062
   1418.39783     749.8393     447.5330   1418.39783     749.8393     447.5330
   1418.38257     750.8773     448.3011   1418.38257     750.8773     448.3011
   1418.36731     751.6984     449.3907   1418.36731     751.6984     449.3907
   1418.35205     752.5173     449.8974   1418.35205     752.5173     449.8974
   1418.33679     753.2880     451.7273   1418.33679     753.2880     451.7273
   1418.32153     754.5558     451.7196   1418.32153     754.5558     451.7196
   1418.30627     754.7342     452.4425   1418.30627     754.7342     452.4425
   1418.29102     756.4245     453.3282   1418.29102     756.4245     453.3282
   1418.27576     757.4307     453.8348   1418.27576     757.4307     453.8348
   1418.26050     758.0459     454.8822   1418.26050     758.0459     454.8822
   1418.24524     758.8649     456.0357   1418.24524     758.8649     456.0357
   1418.22998     759.3691     456.4346   1418.22998     759.3691     456.4346
   1418.21472     761.3792     456.7875   1418.21472     761.3792     456.7875
   1418.19946     760.2473     458.9125   1418.19946     760.2473     458.9125
   1418.18420     761.1805     459.2419   1418.18420     761.1805     459.2419
   1418.16895     764.5760     459.7594   1418.16895     764.5760     459.7594
   1418.15369     765.3575     461.0778   1418.15369     765.3575     461.0778
   1418.13843     765.0758     461.5858   1418.13843     765.0758     461.5858
   1418.12317     766.0994     462.9704   1418.12317     766.0994     462.9704
   1418.10791     767.4680     463.5477   1418.10791     767.4680     463.5477
   1418.09265     768.5670     464.1228   1418.09265     768.5670     464.1228
   1418.07739     769.7244     464.8833   1418.07739     769.7244     464.8833
   1418.06213     770.1498     466.1524   1418.06213     770.1498     466.1524
   1418.04688     769.7932     467.0571   1418.04688     769.7932     467.0571
   1418.03162     770.7513     468.2862   1418.03162     770.7513     468.2862
   1418.01636     773.3444     468.7376   1418.01636     773.3444     468.7376
   1418.00110     772.9619     469.4435   1418.00110     772.9619     469.4435
   1417.98584     773.3958     470.2542   1417.98584     773.3958     470.2542
   1417.97058     774.0948     472.0060   1417.97058     774.0948     472.0060
   1417.95532     776.5804     472.2076   1417.95532     776.5804     472.2076
   1417.94006     777.0307     472.8912   1417.94006     777.0307     472.8912
   1417.92480     777.8466     474.0269   1417.92480     777.8466     474.0269
   1417.90955     778.9943     475.2883   1417.90955     778.9943     475.2883
   1417.89429     781.1564     476.8986   1417.89429     781.1564     476.8986
   1417.87903     782.2780     478.0544   1417.87903     782.2780     478.0544
   1417.86377     781.6610     478.7257   1417.86377     781.6610     478.7257
   1417.84851     783.1641     479.3151   1417.84851     783.1641     479.3151
   1417.83325     785.9939     480.5400   1417.83325     785.9939     480.5400
   1417.81799     785.4396     481.5036   1417.81799     785.4396     481.5036
   1417.80273     786.3277     482.2828   1417.80273     786.3277     482.2828
   1417.78748     787.8139     483.7082   1417.78748     787.8139     483.7082
   1417.77222     789.8755     484.7208   1417.77222     789.8755     484.7208
   1417.75696     789.2298     484.9359   1417.75696     789.2298     484.9359
   1417.74170     792.0615     485.9546   1417.74170     792.0615     485.9546
   1417.72644     790.5283     487.2922   1417.72644     790.5283     487.2922
   1417.71118     792.8549     487.7828   1417.71118     792.8549     487.7828
   1417.69592     792.7833     489.4486   1417.69592     792.7833     489.4486
   1417.68066     794.4451     490.4991   1417.68066     794.4451     490.4991
   1417.66541     794.3024     490.7234   1417.66541     794.3024     490.7234
   1417.65015     796.4775     492.5420   1417.65015     796.4775     492.5420
   1417.63489     797.8994     492.7280   1417.63489     797.8994     492.7280
   1417.61963     797.6799     494.6891   1417.61963     797.6799     494.6891
   1417.60437     799.1556     494.7238   1417.60437     799.1556     494.7238
   1417.58911     801.6135     495.9849   1417.58911     801.6135     495.9849
   1417.57385     801.6627     497.2904   1417.57385     801.6627     497.2904
   1417.55859     803.1160     498.0990   1417.55859     803.1160     498.0990
   1417.54333     805.1226     499.5403   1417.54333     805.1226     499.5403
   1417.52808     805.3683     500.0477   1417.52808     805.3683     500.0477
   1417.51282     805.7260     500.8422   1417.51282     805.7260     500.8422
   1417.49756     806.1776     501.5239   1417.49756     806.1776     501.5239
   1417.48230     807.8175     502.8961   1417.48230     807.8175     502.8961
   1417.46704     809.6437     503.3651   1417.46704     809.6437     503.3651
   1417.45178     809.6706     504.9960   1417.45178     809.6706     504.9960
   1417.43652     811.3365     505.2454   1417.43652     811.3365     505.2454
   1417.42126     811.9095     507.1661   1417.42126     811.9095     507.1661
   1417.40601     813.8226     507.8243   1417.40601     813.8226     507.8243
   1417.39075     814.6539     508.2775   1417.39075     814.6539     508.2775
   1417.37549     815.3286     509.8866   1417.37549     815.3286     509.8866
   1417.36023     816.5983     510.5621   1417.36023     816.5983     510.5621
   1417.34497     816.9744     511.1030   1417.34497     816.9744     511.1030
   1417.32971     817.8468     512.2279   1417.32971     817.8468     512.2279
   1417.31445     817.7769     513.6729   1417.31445     817.7769     513.6729
   1417.29919     819.1967     514.0875   1417.29919     819.1967     514.0875
   1417.28394     820.3304     515.2698   1417.28394     820.3304     515.2698
   1417.26868     820.7732     515.7761   1417.26868     820.7732     515.7761
   1417.25342     822.5346     516.8788   1417.25342     822.5346     516.8788
   1417.23816     823.5265     516.5784   1417.23816     823.5265     516.5784
   1417.22290     824.4337     518.7465   1417.22290     824.4337     518.7465
   1417.20764     826.4802     518.5646   1417.20764     826.4802     518.5646
   1417.19238     826.3372     519.8194   1417.19238     826.3372     519.8194
   1417.17712     826.3285     521.0689   1417.17712     826.3285     521.0689
   1417.16187     827.8477     520.8632   1417.16187     827.8477     520.8632
   1417.14661     829.3129     522.3608   1417.14661     829.3129     522.3608
   1417.13135     829.4398     523.7036   1417.13135     829.4398     523.7036
   1417.11609     830.6425     524.0184   1417.11609     830.6425     524.0184
   1417.10083     832.3038     524.7567   1417.10083     832.3038     524.7567
   1417.08557     832.1345     526.5200   1417.08557     832.1345     526.5200
   1417.07031     834.2695     526.4034   1417.07031     834.2695     526.4034
   1417.05505     833.9087     527.0298   1417.05505     833.9087     527.0298
   1417.03979     835.0428     527.9865   1417.03979     835.0428     527.9865
   1417.02454     835.8181     529.4384   1417.02454     835.8181     529.4384
   1417.00928     835.0843     529.1152   1417.00928     835.0843     529.1152
   1416.99402     837.5291     530.2952   1416.99402     837.5291     530.2952
   1416.97876     837.3236     530.6024   1416.97876     837.3236     530.6024
   1416.96350     837.8686     531.1320   1416.96350     837.8686     531.1320
   1416.94824     838.6851     532.0983   1416.94824     838.6851     532.0983
   1416.93298     839.3106     532.4069   1416.93298     839.3106     532.4069
   1416.91772     839.0262     532.3852   1416.91772     839.0262     532.3852
   1416.90247     841.9560     533.2267   1416.90247     841.9560     533.2267
   1416.88721     840.6999     533.4300   1416.88721     840.6999     533.4300
   1416.87195     842.2274     535.4388   1416.87195     842.2274     535.4388
   1416.85669     842.2693     535.3801   1416.85669     842.2693     535.3801
   1416.84143     843.4283     536.3275   1416.84143     843.4283     536.3275
   1416.82617     843.9918     535.8022   1416.82617     843.9918     535.8022
   1416.81091     845.0237     536.3755   1416.81091     845.0237     536.3755
   1416.79565     845.3941     537.4678   1416.79565     845.3941     537.4678
   1416.78040     845.1908     536.9247   1416.78040     845.1908     536.9247
   1416.76514     845.8652     538.7512   1416.76514     845.8652     538.7512
   1416.74988     846.4235     538.8356   1416.74988     846.4235     538.8356
   1416.73462     847.8733     539.3451   1416.73462     847.8733     539.3451
   1416.71936     846.9480     538.8192   1416.71936     846.9480     538.8192
   1416.70410     847.5330     539.1461   1416.70410     847.5330     539.1461
   1416.68884     847.2868     539.4509   1416.68884     847.2868     539.4509
   1416.67358     848.5791     540.1476   1416.67358     848.5791     540.1476
   1416.65833     849.2388     540.1149   1416.65833     849.2388     540.1149
   1416.64307     848.9807     540.5393   1416.64307     848.9807     540.5393
   1416.62781     851.7975     540.5857   1416.62781     851.7975     540.5857
   1416.61255     850.6518     540.3548   1416.61255     850.6518     540.3548
   1416.59729     850.1006     541.2311   1416.59729     850.1006     541.2311
   1416.58203     851.0829     540.9044   1416.58203     851.0829     540.9044
   1416.56677     851.6172     541.5122   1416.56677     851.6172     541.5122
   1416.55151     850.7137     541.9969   1416.55151     850.7137     541.9969
   1416.53625     850.3838     541.8416   1416.53625     850.3838     541.8416
   1416.52100     851.5444     541.9581   1416.52100     851.5444     541.9581
   1416.50574     852.1669     542.1209   1416.50574     852.1669     542.1209
   1416.49048     851.6414     542.2250   1416.49048     851.6414     542.2250
   1416.47522     852.7669     542.0895   1416.47522     852.7669     542.0895
   1416.45996     852.5524     541.2336   1416.45996     852.5524     541.2336
   1416.44470     851.4901     541.4972   1416.44470     851.4901     541.4972
   1416.42944     853.6413     541.2917   1416.42944     853.6413     541.2917
   1416.41418     853.0537     541.0082   1416.41418     853.0537     541.0082
   1416.39893     853.4786     540.5302   1416.39893     853.4786     540.5302
   1416.38367     853.0323     541.3400   1416.38367     853.0323     541.3400
   1416.36841     852.2845     541.5503   1416.36841     852.2845     541.5503
   1416.35315     853.4356     540.7361   1416.35315     853.4356     540.7361
   1416.33789     852.1885     540.6514   1416.33789     852.1885     540.6514
   1416.32263     853.4665     539.6161   1416.32263     853.4665     539.6161
   1416.30737     853.9208     540.5162   1416.30737     853.9208     540.5162
   1416.29211     853.1949     539.6044   1416.29211     853.1949     539.6044
   1416.27686     855.2952     539.3743   1416.27686     855.2952     539.3743
   1416.26160     853.6669     539.0516   1416.26160     853.6669     539.0516
   1416.24634     853.3452     539.7446   1416.24634     853.3452     539.7446
   1416.23108     852.5325     538.6110   1416.23108     852.5325     538.6110
   1416.21582     852.8349     539.9948   1416.21582     852.8349     539.9948
   1416.20056     852.7628     538.2497   1416.20056     852.7628     538.2497
   1416.18530     852.1094     537.9495   1416.18530     852.1094     537.9495
   1416.17004     851.9560     538.5535   1416.17004     851.9560     538.5535
   1416.15479     851.7026     537.8231   1416.15479     851.7026     537.8231
   1416.13953     852.3674     537.7098   1416.13953     852.3674     537.7098
   1416.12427     852.2576     537.0975   1416.12427     852.2576     537.0975
   1416.10901     850.6094     535.7717   1416.10901     850.6094     535.7717
   1416.09375     851.2505     536.2877   1416.09375     851.2505     536.2877
   1416.07849     852.2156     535.4993   1416.07849     852.2156     535.4993
   1416.06323     848.9060     535.9794   1416.06323     848.9060     535.9794
   1416.04797     850.8764     535.8912   1416.04797     850.8764     535.8912
   1416.03271     850.6038     534.9847   1416.03271     850.6038     534.9847
   1416.01746     849.5842     534.5295   1416.01746     849.5842     534.5295
   1416.00220     848.5244     534.2195   1416.00220     848.5244     534.2195
   1415.98694     848.8133     533.0745   1415.98694     848.8133     533.0745
   1415.97168     849.5259     532.9276   1415.97168     849.5259     532.9276
   1415.95642     847.0140     532.5046   1415.95642     847.0140     532.5046
   1415.94116     847.3007     532.3005   1415.94116     847.3007     532.3005
   1415.92590     846.2806     531.2465   1415.92590     846.2806     531.2465
   1415.91064     846.3544     531.1576   1415.91064     846.3544     531.1576
   1415.89539     845.1503     529.3199   1415.89539     845.1503     529.3199
   1415.88013     845.0518     529.9945   1415.88013     845.0518     529.9945
   1415.86487     846.0045     529.7305   1415.86487     846.0045     529.7305
   1415.84961     844.2596     528.9286   1415.84961     844.2596     528.9286
   1415.83435     843.6318     528.6175   1415.83435     843.6318     528.6175
   1415.81909     843.6111     527.5378   1415.81909     843.6111     527.5378
   1415.80383     842.3438     527.3538   1415.80383     842.3438     527.3538
   1415.78857     841.9664     527.9769   1415.78857     841.9664     527.9769
   1415.77332     842.1318     526.8066   1415.77332     842.1318     526.8066
   1415.75806     842.2424     525.2678   1415.75806     842.2424     525.2678
   1415.74280     840.8032     524.9990   1415.74280     840.8032     524.9990
   1415.72754     839.6528     524.8095   1415.72754     839.6528     524.8095
   1415.71228     839.3479     523.3372   1415.71228     839.3479     523.3372
   1415.69702     836.5613     522.6726   1415.69702     836.5613     522.6726
   1415.68176     836.3682     521.9364   1415.68176     836.3682     521.9364
   1415.66650     836.0257     522.0231   1415.66650     836.0257     522.0231
   1415.65125     835.7535     521.0790   1415.65125     835.7535     521.0790
   1415.63599     834.4493     520.4867   1415.63599     834.4493     520.4867
   1415.62073     833.3314     521.3414   1415.62073     833.3314     521.3414
   1415.60547     833.7869     519.7331   1415.60547     833.7869     519.7331
   1415.59021     834.0777     519.2690   1415.59021     834.0777     519.2690
   1415.57495     832.2603     518.5552   1415.57495     832.2603     518.5552
   1415.55969     831.0588     517.6415   1415.55969     831.0588     517.6415
   1415.54443     830.9772     516.4977   1415.54443     830.9772     516.4977
   1415.52917     830.0417     516.3230   1415.52917     830.0417     516.3230
   1415.51392     829.0399     515.3509   1415.51392     829.0399     515.3509
   1415.49866     826.6864     515.3981   1415.49866     826.6864     515.3981
   1415.48340     826.8676     514.8334   1415.48340     826.8676     514.8334
   1415.46814     825.8353     514.2001   1415.46814     825.8353     514.2001
   1415.45288     825.0710     513.7142   1415.45288     825.0710     513.7142
   1415.43762     823.5827     512.9229   1415.43762     823.5827     512.9229
   1415.42236     823.2453     511.9806   1415.42236     823.2453     511.9806
   1415.40710     823.3411     511.4675   1415.40710     823.3411     511.4675
   1415.39185     820.9296     510.4107   1415.39185     820.9296     510.4107
   1415.37659     819.1293     510.6116   1415.37659     819.1293     510.6116
   1415.36133     818.1373     508.8849   1415.36133     818.1373     508.8849
   1415.34607     817.1298     508.6257   1415.34607     817.1298     508.6257
   1415.33081     816.9347     507.4154   1415.33081     816.9347     507.4154
   1415.31555     816.5400     507.1518   1415.31555     816.5400     507.1518
   1415.30029     813.7504     505.7181   1415.30029     813.7504     505.7181
   1415.28503     812.0902     505.1080   1415.28503     812.0902     505.1080
   1415.26978     811.6724     504.7759   1415.26978     811.6724     504.7759
   1415.25452     810.5228     503.7250   1415.25452     810.5228     503.7250
   1415.23926     809.5531     502.3475   1415.23926     809.5531     502.3475
   1415.22400     807.8303     501.9474   1415.22400     807.8303     501.9474
   1415.20874     806.9487     500.9073   1415.20874     806.9487     500.9073
   1415.19348     805.3363     500.4632   1415.19348     805.3363     500.4632
   1415.17822     806.0806     500.4441   1415.17822     806.0806     500.4441
   1415.16296     801.1114     498.6740   1415.16296     801.1114     498.6740
   1415.14771     801.4464     497.4123   1415.14771     801.4464     497.4123
   1415.13245     800.1255     497.2192   1415.13245     800.1255     497.2192
   1415.11719     799.2285     495.9541   1415.11719     799.2285     495.9541
   1415.10193     797.8567     495.6024   1415.10193     797.8567     495.6024
   1415.08667     795.5471     494.8345   1415.08667     795.5471     494.8345
   1415.07141     793.2035     493.7360   1415.07141     793.2035     493.7360
   1415.05615     792.3579     492.7715   1415.05615     792.3579     492.7715
   1415.04089     790.8773     491.5884   1415.04089     790.8773     491.5884
   1415.02563     787.6374     491.0755   1415.02563     787.6374     491.0755
   1415.01038     788.0798     489.9486   1415.01038     788.0798     489.9486
   1414.99512     785.4924     489.5633   1414.99512     785.4924     489.5633
   1414.97986     784.3353     488.1089   1414.97986     784.3353     488.1089
   1414.96460     782.1564     486.9181   1414.96460     782.1564     486.9181
   1414.94934     781.7388     486.1448   1414.94934     781.7388     486.1448
   1414.93408     778.7990     484.5653   1414.93408     778.7990     484.5653
   1414.91882     777.3085     483.7975   1414.91882     777.3085     483.7975
   1414.90356     774.5025     482.0022   1414.90356     774.5025     482.0022
   1414.88831     773.5165     482.0244   1414.88831     773.5165     482.0244
   1414.87305     772.0847     480.5946   1414.87305     772.0847     480.5946
   1414.85779     768.6458     479.6395   1414.85779     768.6458     479.6395
   1414.84253     767.5413     478.1974   1414.84253     767.5413     478.1974
   1414.82727     765.2659     478.2757   1414.82727     765.2659     478.2757
   1414.81201     763.8752     476.5796   1414.81201     763.8752     476.5796
   1414.79675     762.1566     475.1506   1414.79675     762.1566     475.1506
   1414.78149     759.0902     473.9644   1414.78149     759.0902     473.9644
   1414.76624     757.8727     473.8149   1414.76624     757.8727     473.8149
   1414.75098     754.2704     472.3533   1414.75098     754.2704     472.3533
   1414.73572     753.4589     471.1422   1414.73572     753.4589     471.1422
   1414.72046     750.8080     470.0714   1414.72046     750.8080     470.0714
   1414.70520     748.6719     469.1680   1414.70520     748.6719     469.1680
   1414.68994     746.5748     467.9413   1414.68994     746.5748     467.9413
   1414.67468     745.1653     465.9537   1414.67468     745.1653     465.9537
   1414.65942     743.0623     465.1931   1414.65942     743.0623     465.1931
   1414.64417     739.8701     463.5783   1414.64417     739.8701     463.5783
   1414.62891     737.4907     462.1388   1414.62891     737.4907     462.1388
   1414.61365     736.1384     461.6060   1414.61365     736.1384     461.6060
   1414.59839     733.4622     460.4888   1414.59839     733.4622     460.4888
   1414.58313     731.7426     459.0373   1414.58313     731.7426     459.0373
   1414.56787     729.3331     457.7098   1414.56787     729.3331     457.7098
   1414.55261     727.5780     456.5662   1414.55261     727.5780     456.5662
   1414.53735     724.9940     455.6609   1414.53735     724.9940     455.6609
   1414.52209     722.9048     453.9622   1414.52209     722.9048     453.9622
   1414.50684     720.0054     453.3687   1414.50684     720.0054     453.3687
   1414.49158     716.8173     450.7504   1414.49158     716.8173     450.7504
   1414.47632     714.2965     449.7609   1414.47632     714.2965     449.7609
   1414.46106     711.3557     449.1775   1414.46106     711.3557     449.1775
   1414.44580     709.8810     447.0334   1414.44580     709.8810     447.0334
   1414.43054     706.2739     446.0366   1414.43054     706.2739     446.0366
   1414.41528     704.7117     443.9041   1414.41528     704.7117     443.9041
   1414.40002     701.4179     442.5091   1414.40002     701.4179     442.5091
   1414.38477     698.6596     441.5392   1414.38477     698.6596     441.5392
   1414.36951     696.0114     439.8642   1414.36951     696.0114     439.8642
   1414.35425     693.1258     438.7365   1414.35425     693.1258     438.7365
   1414.33899     690.4614     437.5138   1414.33899     690.4614     437.5138
   1414.32373     687.9763     435.2787   1414.32373     687.9763     435.2787
   1414.30847     685.2275     433.4780   1414.30847     685.2275     433.4780
   1414.29321     682.7575     432.8249   1414.29321     682.7575     432.8249
   1414.27795     679.2156     430.8473   1414.27795     679.2156     430.8473
   1414.26270     677.7953     430.1758   1414.26270     677.7953     430.1758
   1414.24744     674.9690     427.8019   1414.24744     674.9690     427.8019
   1414.23218     671.5295     426.6795   1414.23218     671.5295     426.6795
   1414.21692     669.2083     425.7364   1414.21692     669.2083     425.7364
   1414.20166     665.1973     423.3623   1414.20166     665.1973     423.3623
   1414.18640     663.2353     421.7783   1414.18640     663.2353     421.7783
   1414.17114     659.9274     420.4438   1414.17114     659.9274     420.4438
   1414.15588     655.2311     418.7841   1414.15588     655.2311     418.7841
   1414.14062     653.0502     416.7871   1414.14062     653.0502     416.7871
   1414.12537     650.2621     415.8878   1414.12537     650.2621     415.8878
   1414.11011     648.7194     413.5102   1414.11011     648.7194     413.5102
   1414.09485     645.3740     412.2640   1414.09485     645.3740     412.2640
   1414.07959     641.9883     410.0262   1414.07959     641.9883     410.0262
   1414.06433     639.2662     409.1405   1414.06433     639.2662     409.1405
   1414.04907     635.2283     407.8700   1414.04907     635.2283     407.8700
   1414.03381     633.0920     406.4235   1414.03381     633.0920     406.4235
   1414.01855     630.6403     404.2943   1414.01855     630.6403     404.2943
   1414.00330     653.0490     411.6797   1414.00330     653.0490     411.6797
   1413.98804     625.8393     402.0556   1413.98804     625.8393     402.0556
   1413.97278     620.4963     399.2872   1413.97278     620.4963     399.2872
   1413.95752     617.9582     398.0778   1413.95752     617.9582     398.0778
   1413.94226     614.1432     395.8169   1413.94226     614.1432     395.8169
   1413.92700     612.0723     394.8282   1413.92700     612.0723     394.8282
   1413.91174     607.9758     393.2168   1413.91174     607.9758     393.2168
   1413.89648     604.3603     391.2712   1413.89648     604.3603     391.2712
   1413.88123     601.6665     388.9391   1413.88123     601.6665     388.9391
   1413.86597     596.9860     387.7689   1413.86597     596.9860     387.7689
   1413.85071     593.6172     385.9221   1413.85071     593.6172     385.9221
   1413.83545     590.8665     384.3125   1413.83545     590.8665     384.3125
   1413.82019     588.1268     382.6336   1413.82019     588.1268     382.6336
   1413.80493     585.3329     380.7187   1413.80493     585.3329     380.7187
   1413.78967     582.3495     379.8217   1413.78967     582.3495     379.8217
   1413.77441     579.0049     377.7960   1413.77441     579.0049     377.7960
   1413.75916     574.6620     376.2507   1413.75916     574.6620     376.2507
   1413.74390     572.8593     374.0741   1413.74390     572.8593     374.0741
   1413.72864     568.4338     372.1662   1413.72864     568.4338     372.1662
   1413.71338     565.5915     370.4427   1413.71338     565.5915     370.4427
   1413.69812     563.0515     369.4413   1413.69812     563.0515     369.4413
   1413.68286     559.2224     366.7996   1413.68286     559.2224     366.7996
   1413.66760     557.1439     365.5695   1413.66760     557.1439     365.5695
   1413.65234     553.8058     363.1345   1413.65234     553.8058     363.1345
   1413.63708     549.8011     361.4316   1413.63708     549.8011     361.4316
   1413.62183     546.5540     360.5124   1413.62183     546.5540     360.5124
   1413.60657     543.2678     358.6982   1413.60657     543.2678     358.6982
   1413.59131     539.9695     356.8849   1413.59131     539.9695     356.8849
   1413.57605     536.9113     355.4391   1413.57605     536.9113     355.4391
   1413.56079     533.2729     353.8487   1413.56079     533.2729     353.8487
   1413.54553     530.8583     351.4589   1413.54553     530.8583     351.4589
   1413.53027     527.2592     349.9732   1413.53027     527.2592     349.9732
   1413.51501     524.6982     348.0978   1413.51501     524.6982     348.0978
   1413.49976     521.0072     346.8741   1413.49976     521.0072     346.8741
   1413.48450     517.3265     345.0651   1413.48450     517.3265     345.0651
   1413.46924     514.3275     343.3403   1413.46924     514.3275     343.3403
   1413.45398     512.1138     341.8055   1413.45398     512.1138     341.8055
   1413.43872     508.5809     339.5878   1413.43872     508.5809     339.5878
   1413.42346     505.1535     338.8071   1413.42346     505.1535     338.8071
   1413.40820     502.8082     336.1038   1413.40820     502.8082     336.1038
   1413.39294     500.9389     335.1010   1413.39294     500.9389     335.1010
   1413.37769     496.6334     333.3367   1413.37769     496.6334     333.3367
   1413.36243     493.5088     331.4212   1413.36243     493.5088     331.4212
   1413.34717     490.9760     329.8531   1413.34717     490.9760     329.8531
   1413.33191     488.1419     329.0902   1413.33191     488.1419     329.0902
   1413.31665     484.9371     327.0827   1413.31665     484.9371     327.0827
   1413.30139     481.6378     325.4507   1413.30139     481.6378     325.4507
   1413.28613     479.1347     323.7883   1413.28613     479.1347     323.7883
   1413.27087     475.9443     321.7930   1413.27087     475.9443     321.7930
   1413.25562     473.6426     320.5942   1413.25562     473.6426     320.5942
   1413.24036     470.6922     319.6642   1413.24036     470.6922     319.6642
   1413.22510     467.3458     318.1868   1413.22510     467.3458     318.1868
   1413.20984     465.3089     316.3094   1413.20984     465.3089     316.3094
   1413.19458     461.7279     314.5205   1413.19458     461.7279     314.5205
   1413.17932     459.7219     313.1078   1413.17932     459.7219     313.1078
   1413.16406     456.2277     311.8549   1413.16406     456.2277     311.8549
   1413.14880     454.6988     310.6015   1413.14880     454.6988     310.6015
   1413.13354     451.8327     309.1008   1413.13354     451.8327     309.1008
   1413.11829     448.8748     307.8992   1413.11829     448.8748     307.8992
   1413.10303     446.6651     306.6759   1413.10303     446.6651     306.6759
   1413.08777     443.9887     304.9881   1413.08777     443.9887     304.9881
   1413.07251     441.1004     304.0872   1413.07251     441.1004     304.0872
   1413.05725     438.9164     302.6475   1413.05725     438.9164     302.6475
   1413.04199     436.7733     301.2793   1413.04199     436.7733     301.2793
   1413.02673     434.8810     299.5080   1413.02673     434.8810     299.5080
   1413.01147     431.9919     298.6810   1413.01147     431.9919     298.6810
   1412.99622     429.3217     298.4680   1412.99622     429.3217     298.4680
   1412.98096     427.3953     296.4724   1412.98096     427.3953     296.4724
   1412.96570     425.1383     295.3055   1412.96570     425.1383     295.3055
   1412.95044     423.1166     293.9692   1412.95044     423.1166     293.9692
   1412.93518     421.3835     292.8260   1412.93518     421.3835     292.8260
   1412.91992     418.9315     292.3073   1412.91992     418.9315     292.3073
   1412.90466     417.3561     290.8037   1412.90466     417.3561     290.8037
   1412.88940     415.4904     289.8288   1412.88940     415.4904     289.8288
   1412.87415     413.4229     289.5497   1412.87415     413.4229     289.5497
   1412.85889     410.4768     287.9440   1412.85889     410.4768     287.9440
   1412.84363     409.6250     286.7087   1412.84363     409.6250     286.7087
   1412.82837     407.5176     285.6694   1412.82837     407.5176     285.6694
   1412.81311     406.2233     285.3036   1412.81311     406.2233     285.3036
   1412.79785     404.4612     284.1810   1412.79785     404.4612     284.1810
   1412.78259     402.9115     282.8687   1412.78259     402.9115     282.8687
   1412.76733     401.1957     282.2820   1412.76733     401.1957     282.2820
   1412.75208     399.8701     281.6902   1412.75208     399.8701     281.6902
   1412.73682     398.1438     280.7160   1412.73682     398.1438     280.7160
   1412.72156     396.3499     280.0331   1412.72156     396.3499     280.0331
   1412.70630     395.1870     279.8245   1412.70630     395.1870     279.8245
   1412.69104     394.2792     279.1500   1412.69104     394.2792     279.1500
   1412.67578     392.0493     278.1379   1412.67578     392.0493     278.1379
   1412.66052     392.0145     277.7122   1412.66052     392.0145     277.7122
   1412.64526     389.9369     277.2950   1412.64526     389.9369     277.2950
   1412.63000     389.3535     276.5479   1412.63000     389.3535     276.5479
   1412.61475     388.0023     275.9079   1412.61475     388.0023     275.9079
   1412.59949     386.8293     275.6746   1412.59949     386.8293     275.6746
   1412.58423     386.8149     275.5132   1412.58423     386.8149     275.5132
   1412.56897     385.6455     275.1656   1412.56897     385.6455     275.1656
   1412.55371     384.4282     274.7045   1412.55371     384.4282     274.7045
   1412.53845     383.2894     274.3018   1412.53845     383.2894     274.3018
   1412.52319     383.1837     274.2616   1412.52319     383.1837     274.2616
   1412.50793     383.0247     274.0357   1412.50793     383.0247     274.0357
   1412.49268     381.5682     274.0298   1412.49268     381.5682     274.0298
   1412.47742     381.4804     273.8890   1412.47742     381.4804     273.8890
   1412.46216     380.5359     273.5904   1412.46216     380.5359     273.5904
   1412.44690     380.0925     273.4810   1412.44690     380.0925     273.4810
   1412.43164     380.1906     273.7230   1412.43164     380.1906     273.7230
   1412.41638     380.2019     273.5863   1412.41638     380.2019     273.5863
   1412.40112     379.5849     273.9809   1412.40112     379.5849     273.9809
   1412.38586     379.1521     273.9125   1412.38586     379.1521     273.9125
   1412.37061     379.2217     273.6328   1412.37061     379.2217     273.6328
   1412.35535     378.7514     273.9526   1412.35535     378.7514     273.9526
   1412.34009     379.4990     274.1274   1412.34009     379.4990     274.1274
   1412.32483     379.1981     274.6530   1412.32483     379.1981     274.6530
   1412.30957     378.7892     274.5634   1412.30957     378.7892     274.5634
   1412.29431     379.9845     275.2899   1412.29431     379.9845     275.2899
   1412.27905     380.0398     275.1526   1412.27905     380.0398     275.1526
   1412.26379     380.1970     275.5515   1412.26379     380.1970     275.5515
   1412.24854     380.5553     276.2825   1412.24854     380.5553     276.2825
   1412.23328     381.0849     276.3722   1412.23328     381.0849     276.3722
   1412.21802     381.1444     277.2531   1412.21802     381.1444     277.2531
   1412.20276     381.8100     277.9373   1412.20276     381.8100     277.9373