#     FILENAME=!Skynet_57528_lach-cc-219_20631_21040.cyb.fits
#     BASENAME=Skynet_57528_lach-cc-219_20631_21040
#     SRC_NAME=lach-cc-219
#     OBSERVER=ccmadison16_9505
#     DATE_OBS=2016-05-20T19:56:45.620
#        OBSID=20631
#      SCANNUM=21040
#          MJD=57528.8321
#          UTC=71896
#     SCANTYPE=track
#     DATAMODE=HIRES
#     TUNEFREQ=1420.0000
# Actual_FREQ1=1420.0000
# Actual_FREQ2=1420.0000
#    LO1Tuning=6870.000
#     RFFILTER=1355_1435
#        OBSBW=-15.6250
#        NCHAN=1024 
#        FOCUS=37.0709
#           RA=07:02:32.99
#          DEC=-05:23:52.46
#      RA(hrs)=7.042500
#     DEC(deg)=-5.397900
#    AZIM(deg)=168.659
#    ELEV(deg)=45.429
#     IFattens=10.00, 9.00
#      WARNING=None
#    TCAL_XL1=7.9635
#    TCAL_YR1=9.1340
#    TCAL_XL2=7.9635
#    TCAL_YR2=9.1340
#     TRX_XL1=11.7060
#     TRX_YR1=11.7060
#     TRX_XL2=11.7060
#     TRX_YR2=11.7060
#        TAVE=1.0000
#Freq1(MHz)          XL1          YR1  Freq2(MHz)          XL2          YR2 

   1427.81250     352.5951     262.5898   1427.81250     352.5951     262.5898
   1427.79724     353.7673     262.6941   1427.79724     353.7673     262.6941
   1427.78198     354.2823     262.9924   1427.78198     354.2823     262.9924
   1427.76672     355.3364     263.5087   1427.76672     355.3364     263.5087
   1427.75146     355.0069     264.0580   1427.75146     355.0069     264.0580
   1427.73621     356.6429     264.4682   1427.73621     356.6429     264.4682
   1427.72095     357.1651     265.4099   1427.72095     357.1651     265.4099
   1427.70569     358.4607     266.2986   1427.70569     358.4607     266.2986
   1427.69043     359.4944     266.8908   1427.69043     359.4944     266.8908
   1427.67517     360.0098     267.4460   1427.67517     360.0098     267.4460
   1427.65991     360.6927     268.7780   1427.65991     360.6927     268.7780
   1427.64465     362.8917     269.0291   1427.64465     362.8917     269.0291
   1427.62939     363.8514     270.1526   1427.62939     363.8514     270.1526
   1427.61414     364.8700     271.2181   1427.61414     364.8700     271.2181
   1427.59888     366.1615     271.7984   1427.59888     366.1615     271.7984
   1427.58362     367.4112     272.9876   1427.58362     367.4112     272.9876
   1427.56836     368.8617     273.6426   1427.56836     368.8617     273.6426
   1427.55310     369.7325     275.1392   1427.55310     369.7325     275.1392
   1427.53784     371.4006     276.1255   1427.53784     371.4006     276.1255
   1427.52258     373.1243     276.8346   1427.52258     373.1243     276.8346
   1427.50732     374.4106     278.3907   1427.50732     374.4106     278.3907
   1427.49207     375.5223     279.5992   1427.49207     375.5223     279.5992
   1427.47681     377.8743     280.8540   1427.47681     377.8743     280.8540
   1427.46155     380.0685     282.3108   1427.46155     380.0685     282.3108
   1427.44629     380.8488     283.7433   1427.44629     380.8488     283.7433
   1427.43103     383.0268     284.7055   1427.43103     383.0268     284.7055
   1427.41577     384.8496     285.6426   1427.41577     384.8496     285.6426
   1427.40051     386.1738     287.3457   1427.40051     386.1738     287.3457
   1427.38525     388.6595     288.9257   1427.38525     388.6595     288.9257
   1427.37000     390.3839     290.0430   1427.37000     390.3839     290.0430
   1427.35474     392.1181     291.8160   1427.35474     392.1181     291.8160
   1427.33948     394.3529     292.8850   1427.33948     394.3529     292.8850
   1427.32422     395.7428     295.1399   1427.32422     395.7428     295.1399
   1427.30896     398.2106     296.4386   1427.30896     398.2106     296.4386
   1427.29370     400.4770     298.5202   1427.29370     400.4770     298.5202
   1427.27844     401.9643     299.8529   1427.27844     401.9643     299.8529
   1427.26318     404.0416     301.5328   1427.26318     404.0416     301.5328
   1427.24792     406.4136     303.3914   1427.24792     406.4136     303.3914
   1427.23267     408.9587     305.2288   1427.23267     408.9587     305.2288
   1427.21741     411.6273     306.8368   1427.21741     411.6273     306.8368
   1427.20215     413.4964     308.5432   1427.20215     413.4964     308.5432
   1427.18689     414.8398     310.4562   1427.18689     414.8398     310.4562
   1427.17163     417.8203     312.1269   1427.17163     417.8203     312.1269
   1427.15637     420.0881     314.4724   1427.15637     420.0881     314.4724
   1427.14111     421.9217     316.7533   1427.14111     421.9217     316.7533
   1427.12585     424.3167     318.0374   1427.12585     424.3167     318.0374
   1427.11060     426.9319     320.7353   1427.11060     426.9319     320.7353
   1427.09534     429.9543     322.5184   1427.09534     429.9543     322.5184
   1427.08008     432.8315     324.3473   1427.08008     432.8315     324.3473
   1427.06482     433.9066     326.0616   1427.06482     433.9066     326.0616
   1427.04956     437.2214     328.6499   1427.04956     437.2214     328.6499
   1427.03430     439.9015     330.7073   1427.03430     439.9015     330.7073
   1427.01904     442.8176     332.6548   1427.01904     442.8176     332.6548
   1427.00378     445.4486     335.1946   1427.00378     445.4486     335.1946
   1426.98853     446.1961     337.0065   1426.98853     446.1961     337.0065
   1426.97327     450.1290     338.8241   1426.97327     450.1290     338.8241
   1426.95801     452.9419     340.9758   1426.95801     452.9419     340.9758
   1426.94275     455.4530     343.3257   1426.94275     455.4530     343.3257
   1426.92749     458.2997     346.1786   1426.92749     458.2997     346.1786
   1426.91223     460.8257     348.3582   1426.91223     460.8257     348.3582
   1426.89697     463.4321     350.6292   1426.89697     463.4321     350.6292
   1426.88171     465.6791     352.9760   1426.88171     465.6791     352.9760
   1426.86646     468.2382     355.2944   1426.86646     468.2382     355.2944
   1426.85120     471.0837     357.6900   1426.85120     471.0837     357.6900
   1426.83594     474.0653     360.0689   1426.83594     474.0653     360.0689
   1426.82068     476.6700     362.6772   1426.82068     476.6700     362.6772
   1426.80542     478.8910     365.0781   1426.80542     478.8910     365.0781
   1426.79016     481.9846     366.8739   1426.79016     481.9846     366.8739
   1426.77490     485.4783     369.2712   1426.77490     485.4783     369.2712
   1426.75964     487.7115     372.2675   1426.75964     487.7115     372.2675
   1426.74438     490.0548     374.6325   1426.74438     490.0548     374.6325
   1426.72913     492.9577     377.1158   1426.72913     492.9577     377.1158
   1426.71387     495.2729     379.6646   1426.71387     495.2729     379.6646
   1426.69861     497.9701     381.5633   1426.69861     497.9701     381.5633
   1426.68335     500.5471     385.0233   1426.68335     500.5471     385.0233
   1426.66809     503.5225     386.7365   1426.66809     503.5225     386.7365
   1426.65283     506.3447     389.6695   1426.65283     506.3447     389.6695
   1426.63757     508.9921     392.1760   1426.63757     508.9921     392.1760
   1426.62231     511.8169     394.9016   1426.62231     511.8169     394.9016
   1426.60706     514.1929     396.5943   1426.60706     514.1929     396.5943
   1426.59180     517.8204     399.1877   1426.59180     517.8204     399.1877
   1426.57654     519.0364     402.3374   1426.57654     519.0364     402.3374
   1426.56128     522.3221     404.7023   1426.56128     522.3221     404.7023
   1426.54602     525.0878     407.1270   1426.54602     525.0878     407.1270
   1426.53076     527.6382     409.4691   1426.53076     527.6382     409.4691
   1426.51550     530.9935     411.7649   1426.51550     530.9935     411.7649
   1426.50024     534.0027     414.4796   1426.50024     534.0027     414.4796
   1426.48499     535.8949     417.3131   1426.48499     535.8949     417.3131
   1426.46973     539.6401     419.8626   1426.46973     539.6401     419.8626
   1426.45447     541.0516     422.4026   1426.45447     541.0516     422.4026
   1426.43921     544.2904     424.8752   1426.43921     544.2904     424.8752
   1426.42395     546.6043     427.1483   1426.42395     546.6043     427.1483
   1426.40869     549.1293     430.0492   1426.40869     549.1293     430.0492
   1426.39343     552.4531     432.6534   1426.39343     552.4531     432.6534
   1426.37817     554.2893     435.3271   1426.37817     554.2893     435.3271
   1426.36292     556.7491     438.1732   1426.36292     556.7491     438.1732
   1426.34766     559.7375     441.0482   1426.34766     559.7375     441.0482
   1426.33240     562.4330     442.6730   1426.33240     562.4330     442.6730
   1426.31714     564.1961     445.5796   1426.31714     564.1961     445.5796
   1426.30188     566.7481     447.3191   1426.30188     566.7481     447.3191
   1426.28662     569.7557     451.2112   1426.28662     569.7557     451.2112
   1426.27136     572.1492     452.9705   1426.27136     572.1492     452.9705
   1426.25610     574.8088     455.3714   1426.25610     574.8088     455.3714
   1426.24084     577.1329     458.0869   1426.24084     577.1329     458.0869
   1426.22559     578.7368     460.9296   1426.22559     578.7368     460.9296
   1426.21033     581.8810     462.9526   1426.21033     581.8810     462.9526
   1426.19507     583.4890     465.5513   1426.19507     583.4890     465.5513
   1426.17981     586.5396     467.9452   1426.17981     586.5396     467.9452
   1426.16455     588.7565     470.9059   1426.16455     588.7565     470.9059
   1426.14929     591.0566     473.7644   1426.14929     591.0566     473.7644
   1426.13403     593.4944     476.8124   1426.13403     593.4944     476.8124
   1426.11877     594.6061     478.4455   1426.11877     594.6061     478.4455
   1426.10352     597.4493     480.1541   1426.10352     597.4493     480.1541
   1426.08826     600.4866     483.7161   1426.08826     600.4866     483.7161
   1426.07300     601.5808     484.7104   1426.07300     601.5808     484.7104
   1426.05774     604.5961     488.2566   1426.05774     604.5961     488.2566
   1426.04248     606.8439     491.0403   1426.04248     606.8439     491.0403
   1426.02722     608.3656     493.1586   1426.02722     608.3656     493.1586
   1426.01196     610.9814     495.1619   1426.01196     610.9814     495.1619
   1425.99670     612.9617     496.3025   1425.99670     612.9617     496.3025
   1425.98145     614.9813     499.9008   1425.98145     614.9813     499.9008
   1425.96619     616.3003     502.2096   1425.96619     616.3003     502.2096
   1425.95093     618.3739     504.4520   1425.95093     618.3739     504.4520
   1425.93567     620.4891     506.8081   1425.93567     620.4891     506.8081
   1425.92041     623.1828     509.7691   1425.92041     623.1828     509.7691
   1425.90515     624.7591     511.8687   1425.90515     624.7591     511.8687
   1425.88989     625.9005     514.0671   1425.88989     625.9005     514.0671
   1425.87463     627.5925     516.2570   1425.87463     627.5925     516.2570
   1425.85938     630.7062     518.8684   1425.85938     630.7062     518.8684
   1425.84412     632.4665     520.3981   1425.84412     632.4665     520.3981
   1425.82886     633.6358     522.7271   1425.82886     633.6358     522.7271
   1425.81360     635.3568     525.2267   1425.81360     635.3568     525.2267
   1425.79834     637.7413     527.5815   1425.79834     637.7413     527.5815
   1425.78308     638.5634     529.0674   1425.78308     638.5634     529.0674
   1425.76782     640.6766     532.3574   1425.76782     640.6766     532.3574
   1425.75256     641.3386     533.6907   1425.75256     641.3386     533.6907
   1425.73730     642.9190     535.8853   1425.73730     642.9190     535.8853
   1425.72205     645.6482     538.2472   1425.72205     645.6482     538.2472
   1425.70679     646.9653     540.7319   1425.70679     646.9653     540.7319
   1425.69153     649.1873     542.7123   1425.69153     649.1873     542.7123
   1425.67627     650.4591     544.8729   1425.67627     650.4591     544.8729
   1425.66101     651.6193     546.9071   1425.66101     651.6193     546.9071
   1425.64575     653.9708     549.0739   1425.64575     653.9708     549.0739
   1425.63049     654.4271     550.7649   1425.63049     654.4271     550.7649
   1425.61523     655.6508     552.7620   1425.61523     655.6508     552.7620
   1425.59998     657.3597     554.6210   1425.59998     657.3597     554.6210
   1425.58472     657.7061     556.5072   1425.58472     657.7061     556.5072
   1425.56946     660.0955     558.6039   1425.56946     660.0955     558.6039
   1425.55420     662.0565     560.1453   1425.55420     662.0565     560.1453
   1425.53894     661.7121     562.8521   1425.53894     661.7121     562.8521
   1425.52368     664.4251     565.0137   1425.52368     664.4251     565.0137
   1425.50842     664.8311     566.8233   1425.50842     664.8311     566.8233
   1425.49316     666.3995     568.1512   1425.49316     666.3995     568.1512
   1425.47791     668.2953     569.9903   1425.47791     668.2953     569.9903
   1425.46265     668.0364     572.8819   1425.46265     668.0364     572.8819
   1425.44739     670.9176     573.5245   1425.44739     670.9176     573.5245
   1425.43213     671.1967     574.7479   1425.43213     671.1967     574.7479
   1425.41687     672.2830     576.8246   1425.41687     672.2830     576.8246
   1425.40161     671.8936     579.0682   1425.40161     671.8936     579.0682
   1425.38635     674.4769     580.7601   1425.38635     674.4769     580.7601
   1425.37109     675.0262     582.4732   1425.37109     675.0262     582.4732
   1425.35583     675.3169     584.0338   1425.35583     675.3169     584.0338
   1425.34058     676.9892     585.8580   1425.34058     676.9892     585.8580
   1425.32532     678.2493     587.8920   1425.32532     678.2493     587.8920
   1425.31006     678.5511     589.0848   1425.31006     678.5511     589.0848
   1425.29480     679.8867     589.4814   1425.29480     679.8867     589.4814
   1425.27954     679.8594     592.6036   1425.27954     679.8594     592.6036
   1425.26428     680.8915     593.6959   1425.26428     680.8915     593.6959
   1425.24902     681.7917     595.9894   1425.24902     681.7917     595.9894
   1425.23376     683.0580     596.6319   1425.23376     683.0580     596.6319
   1425.21851     682.7989     597.6010   1425.21851     682.7989     597.6010
   1425.20325     683.9404     599.7633   1425.20325     683.9404     599.7633
   1425.18799     684.2094     601.8085   1425.18799     684.2094     601.8085
   1425.17273     685.9846     602.9843   1425.17273     685.9846     602.9843
   1425.15747     686.9404     603.9910   1425.15747     686.9404     603.9910
   1425.14221     687.1323     605.1780   1425.14221     687.1323     605.1780
   1425.12695     687.3236     607.1141   1425.12695     687.3236     607.1141
   1425.11169     688.3582     608.6757   1425.11169     688.3582     608.6757
   1425.09644     689.5823     609.7169   1425.09644     689.5823     609.7169
   1425.08118     689.4572     611.9561   1425.08118     689.4572     611.9561
   1425.06592     690.2300     612.3345   1425.06592     690.2300     612.3345
   1425.05066     690.8521     612.9502   1425.05066     690.8521     612.9502
   1425.03540     691.5416     615.5038   1425.03540     691.5416     615.5038
   1425.02014     691.5077     616.7649   1425.02014     691.5077     616.7649
   1425.00488     690.1016     617.8919   1425.00488     690.1016     617.8919
   1424.98962     691.7784     618.8767   1424.98962     691.7784     618.8767
   1424.97437     692.9062     619.9108   1424.97437     692.9062     619.9108
   1424.95911     692.9802     621.9484   1424.95911     692.9802     621.9484
   1424.94385     694.2390     623.6598   1424.94385     694.2390     623.6598
   1424.92859     694.5133     623.5828   1424.92859     694.5133     623.5828
   1424.91333     694.3560     624.3464   1424.91333     694.3560     624.3464
   1424.89807     694.6818     625.0510   1424.89807     694.6818     625.0510
   1424.88281     694.5312     627.8173   1424.88281     694.5312     627.8173
   1424.86755     694.1648     627.5385   1424.86755     694.1648     627.5385
   1424.85229     695.4204     629.6154   1424.85229     695.4204     629.6154
   1424.83704     696.9749     629.7355   1424.83704     696.9749     629.7355
   1424.82178     696.7649     631.4609   1424.82178     696.7649     631.4609
   1424.80652     696.3691     631.8549   1424.80652     696.3691     631.8549
   1424.79126     696.6440     633.2437   1424.79126     696.6440     633.2437
   1424.77600     696.1008     632.9648   1424.77600     696.1008     632.9648
   1424.76074     697.2012     635.0073   1424.76074     697.2012     635.0073
   1424.74548     696.8646     635.7758   1424.74548     696.8646     635.7758
   1424.73022     697.0581     636.3279   1424.73022     697.0581     636.3279
   1424.71497     697.2197     636.4036   1424.71497     697.2197     636.4036
   1424.69971     697.4579     637.3406   1424.69971     697.4579     637.3406
   1424.68445     698.2651     638.1336   1424.68445     698.2651     638.1336
   1424.66919     698.9425     639.3732   1424.66919     698.9425     639.3732
   1424.65393     697.4730     640.6400   1424.65393     697.4730     640.6400
   1424.63867     698.2673     640.9188   1424.63867     698.2673     640.9188
   1424.62341     698.3118     640.6423   1424.62341     698.3118     640.6423
   1424.60815     698.2706     643.2307   1424.60815     698.2706     643.2307
   1424.59290     696.8795     642.4440   1424.59290     696.8795     642.4440
   1424.57764     698.7578     643.0231   1424.57764     698.7578     643.0231
   1424.56238     698.7297     644.3558   1424.56238     698.7297     644.3558
   1424.54712     698.9698     644.2594   1424.54712     698.9698     644.2594
   1424.53186     697.6873     644.4398   1424.53186     697.6873     644.4398
   1424.51660     698.7705     646.1903   1424.51660     698.7705     646.1903
   1424.50134     698.1287     647.2143   1424.50134     698.1287     647.2143
   1424.48608     698.7876     646.9074   1424.48608     698.7876     646.9074
   1424.47083     698.3577     646.9738   1424.47083     698.3577     646.9738
   1424.45557     697.7886     647.3653   1424.45557     697.7886     647.3653
   1424.44031     697.6476     648.1411   1424.44031     697.6476     648.1411
   1424.42505     698.5324     649.3039   1424.42505     698.5324     649.3039
   1424.40979     697.4223     649.4637   1424.40979     697.4223     649.4637
   1424.39453     697.6454     648.4639   1424.39453     697.6454     648.4639
   1424.37927     698.4626     649.9612   1424.37927     698.4626     649.9612
   1424.36401     697.1637     650.5699   1424.36401     697.1637     650.5699
   1424.34875     697.5311     651.3039   1424.34875     697.5311     651.3039
   1424.33350     697.5747     651.0054   1424.33350     697.5747     651.0054
   1424.31824     697.3914     651.7613   1424.31824     697.3914     651.7613
   1424.30298     698.4304     651.7443   1424.30298     698.4304     651.7443
   1424.28772     697.4918     651.0161   1424.28772     697.4918     651.0161
   1424.27246     696.4327     651.8214   1424.27246     696.4327     651.8214
   1424.25720     696.9701     652.3044   1424.25720     696.9701     652.3044
   1424.24194     696.5693     652.5416   1424.24194     696.5693     652.5416
   1424.22668     697.4761     652.1178   1424.22668     697.4761     652.1178
   1424.21143     696.2407     653.9012   1424.21143     696.2407     653.9012
   1424.19617     695.8716     652.1401   1424.19617     695.8716     652.1401
   1424.18091     697.1761     653.3532   1424.18091     697.1761     653.3532
   1424.16565     695.7101     653.3486   1424.16565     695.7101     653.3486
   1424.15039     695.6378     653.2385   1424.15039     695.6378     653.2385
   1424.13513     695.1732     652.1390   1424.13513     695.1732     652.1390
   1424.11987     695.2781     653.1827   1424.11987     695.2781     653.1827
   1424.10461     695.1440     654.0140   1424.10461     695.1440     654.0140
   1424.08936     695.2014     654.0455   1424.08936     695.2014     654.0455
   1424.07410     695.7570     654.4147   1424.07410     695.7570     654.4147
   1424.05884     695.2672     653.3299   1424.05884     695.2672     653.3299
   1424.04358     694.3731     653.1945   1424.04358     694.3731     653.1945
   1424.02832     694.1398     654.2694   1424.02832     694.1398     654.2694
   1424.01306     696.0959     653.3622   1424.01306     696.0959     653.3622
   1423.99780     694.2509     652.1506   1423.99780     694.2509     652.1506
   1423.98254     693.7537     652.4925   1423.98254     693.7537     652.4925
   1423.96729     693.4848     653.4667   1423.96729     693.4848     653.4667
   1423.95203     694.3672     652.0084   1423.95203     694.3672     652.0084
   1423.93677     694.1375     652.8557   1423.93677     694.1375     652.8557
   1423.92151     693.2925     653.5451   1423.92151     693.2925     653.5451
   1423.90625     692.8822     651.4918   1423.90625     692.8822     651.4918
   1423.89099     693.3922     652.7045   1423.89099     693.3922     652.7045
   1423.87573     692.6283     652.4674   1423.87573     692.6283     652.4674
   1423.86047     691.9966     652.6088   1423.86047     691.9966     652.6088
   1423.84521     692.4678     651.7518   1423.84521     692.4678     651.7518
   1423.82996     692.1826     651.3171   1423.82996     692.1826     651.3171
   1423.81470     691.8496     651.1178   1423.81470     691.8496     651.1178
   1423.79944     690.4966     650.6916   1423.79944     690.4966     650.6916
   1423.78418     691.4108     650.7145   1423.78418     691.4108     650.7145
   1423.76892     689.0724     650.2386   1423.76892     689.0724     650.2386
   1423.75366     690.0889     650.1274   1423.75366     690.0889     650.1274
   1423.73840     691.1658     648.4202   1423.73840     691.1658     648.4202
   1423.72314     689.7137     649.3166   1423.72314     689.7137     649.3166
   1423.70789     690.4211     649.0127   1423.70789     690.4211     649.0127
   1423.69263     689.9027     647.9139   1423.69263     689.9027     647.9139
   1423.67737     690.0990     648.8254   1423.67737     690.0990     648.8254
   1423.66211     689.0350     646.9715   1423.66211     689.0350     646.9715
   1423.64685     688.7619     646.7491   1423.64685     688.7619     646.7491
   1423.63159     688.1100     645.8539   1423.63159     688.1100     645.8539
   1423.61633     688.1690     646.1193   1423.61633     688.1690     646.1193
   1423.60107     688.0555     644.6260   1423.60107     688.0555     644.6260
   1423.58582     688.0066     644.3635   1423.58582     688.0066     644.3635
   1423.57056     687.7509     645.5738   1423.57056     687.7509     645.5738
   1423.55530     687.4606     643.8486   1423.55530     687.4606     643.8486
   1423.54004     687.1646     643.6379   1423.54004     687.1646     643.6379
   1423.52478     688.1856     642.5556   1423.52478     688.1856     642.5556
   1423.50952     687.0643     641.6597   1423.50952     687.0643     641.6597
   1423.49426     685.7422     641.2382   1423.49426     685.7422     641.2382
   1423.47900     686.0442     642.1957   1423.47900     686.0442     642.1957
   1423.46375     686.2043     640.3831   1423.46375     686.2043     640.3831
   1423.44849     685.8788     639.9653   1423.44849     685.8788     639.9653
   1423.43323     685.7967     639.7399   1423.43323     685.7967     639.7399
   1423.41797     685.2604     638.6375   1423.41797     685.2604     638.6375
   1423.40271     686.1293     637.7094   1423.40271     686.1293     637.7094
   1423.38745     684.1627     636.7025   1423.38745     684.1627     636.7025
   1423.37219     684.6320     636.7972   1423.37219     684.6320     636.7972
   1423.35693     684.4710     635.9417   1423.35693     684.4710     635.9417
   1423.34167     683.7142     634.4996   1423.34167     683.7142     634.4996
   1423.32642     683.9953     634.6797   1423.32642     683.9953     634.6797
   1423.31116     684.4297     633.5835   1423.31116     684.4297     633.5835
   1423.29590     684.1553     632.9831   1423.29590     684.1553     632.9831
   1423.28064     683.9015     632.0342   1423.28064     683.9015     632.0342
   1423.26538     682.8450     630.3190   1423.26538     682.8450     630.3190
   1423.25012     682.6072     629.8959   1423.25012     682.6072     629.8959
   1423.23486     682.0963     629.7655   1423.23486     682.0963     629.7655
   1423.21960     682.2672     628.7183   1423.21960     682.2672     628.7183
   1423.20435     682.7081     628.4998   1423.20435     682.7081     628.4998
   1423.18909     681.4487     627.0668   1423.18909     681.4487     627.0668
   1423.17383     681.6527     626.7025   1423.17383     681.6527     626.7025
   1423.15857     680.4760     625.3392   1423.15857     680.4760     625.3392
   1423.14331     680.8389     623.7352   1423.14331     680.8389     623.7352
   1423.12805     681.1917     623.2446   1423.12805     681.1917     623.2446
   1423.11279     680.3400     621.0781   1423.11279     680.3400     621.0781
   1423.09753     680.2099     622.2839   1423.09753     680.2099     622.2839
   1423.08228     680.2031     619.9088   1423.08228     680.2031     619.9088
   1423.06702     680.8474     619.0482   1423.06702     680.8474     619.0482
   1423.05176     679.4238     618.5656   1423.05176     679.4238     618.5656
   1423.03650     680.6949     617.8623   1423.03650     680.6949     617.8623
   1423.02124     680.7354     617.7424   1423.02124     680.7354     617.7424
   1423.00598     680.1042     616.0415   1423.00598     680.1042     616.0415
   1422.99072     679.6265     615.2675   1422.99072     679.6265     615.2675
   1422.97546     679.4387     614.2087   1422.97546     679.4387     614.2087
   1422.96021     678.1069     613.4713   1422.96021     678.1069     613.4713
   1422.94495     678.7296     611.4709   1422.94495     678.7296     611.4709
   1422.92969     678.3629     611.5503   1422.92969     678.3629     611.5503
   1422.91443     677.4917     609.4764   1422.91443     677.4917     609.4764
   1422.89917     677.0828     608.4927   1422.89917     677.0828     608.4927
   1422.88391     677.5383     608.1272   1422.88391     677.5383     608.1272
   1422.86865     677.2958     606.1285   1422.86865     677.2958     606.1285
   1422.85339     676.7617     605.2354   1422.85339     676.7617     605.2354
   1422.83813     677.7456     604.3359   1422.83813     677.7456     604.3359
   1422.82288     677.3814     603.0084   1422.82288     677.3814     603.0084
   1422.80762     676.4692     602.4730   1422.80762     676.4692     602.4730
   1422.79236     677.1999     600.7737   1422.79236     677.1999     600.7737
   1422.77710     676.2419     600.4077   1422.77710     676.2419     600.4077
   1422.76184     676.0387     598.1194   1422.76184     676.0387     598.1194
   1422.74658     676.2191     598.6617   1422.74658     676.2191     598.6617
   1422.73132     676.4772     595.8502   1422.73132     676.4772     595.8502
   1422.71606     674.8080     595.6133   1422.71606     674.8080     595.6133
   1422.70081     675.6227     595.0267   1422.70081     675.6227     595.0267
   1422.68555     676.0436     593.3438   1422.68555     676.0436     593.3438
   1422.67029     674.6072     592.5831   1422.67029     674.6072     592.5831
   1422.65503     673.8241     590.9018   1422.65503     673.8241     590.9018
   1422.63977     674.0505     589.6948   1422.63977     674.0505     589.6948
   1422.62451     673.7762     588.7164   1422.62451     673.7762     588.7164
   1422.60925     674.3085     588.3749   1422.60925     674.3085     588.3749
   1422.59399     673.8666     587.3275   1422.59399     673.8666     587.3275
   1422.57874     674.5490     585.2603   1422.57874     674.5490     585.2603
   1422.56348     673.4533     584.0279   1422.56348     673.4533     584.0279
   1422.54822     673.3429     582.2764   1422.54822     673.3429     582.2764
   1422.53296     674.1074     581.6573   1422.53296     674.1074     581.6573
   1422.51770     672.5306     580.5853   1422.51770     672.5306     580.5853
   1422.50244     672.4395     578.9171   1422.50244     672.4395     578.9171
   1422.48718     672.0016     578.4211   1422.48718     672.0016     578.4211
   1422.47192     672.0750     576.2861   1422.47192     672.0750     576.2861
   1422.45667     672.3459     575.3627   1422.45667     672.3459     575.3627
   1422.44141     672.7840     574.3920   1422.44141     672.7840     574.3920
   1422.42615     671.1533     572.4400   1422.42615     671.1533     572.4400
   1422.41089     670.5933     571.0187   1422.41089     670.5933     571.0187
   1422.39563     671.4560     570.9139   1422.39563     671.4560     570.9139
   1422.38037     670.7108     569.6018   1422.38037     670.7108     569.6018
   1422.36511     671.5932     567.9172   1422.36511     671.5932     567.9172
   1422.34985     671.0132     567.4265   1422.34985     671.0132     567.4265
   1422.33459     671.5557     565.6593   1422.33459     671.5557     565.6593
   1422.31934     671.6256     564.0264   1422.31934     671.6256     564.0264
   1422.30408     671.7953     564.1909   1422.30408     671.7953     564.1909
   1422.28882     669.8901     562.5865   1422.28882     669.8901     562.5865
   1422.27356     668.9246     560.9561   1422.27356     668.9246     560.9561
   1422.25830     671.4615     559.2462   1422.25830     671.4615     559.2462
   1422.24304     671.4003     559.7321   1422.24304     671.4003     559.7321
   1422.22778     670.1779     557.3828   1422.22778     670.1779     557.3828
   1422.21252     669.2534     554.9379   1422.21252     669.2534     554.9379
   1422.19727     669.2148     553.8999   1422.19727     669.2148     553.8999
   1422.18201     668.7756     553.2872   1422.18201     668.7756     553.2872
   1422.16675     668.1659     552.1060   1422.16675     668.1659     552.1060
   1422.15149     668.5989     550.4084   1422.15149     668.5989     550.4084
   1422.13623     669.1332     549.2196   1422.13623     669.1332     549.2196
   1422.12097     668.0363     548.0526   1422.12097     668.0363     548.0526
   1422.10571     668.2794     547.0048   1422.10571     668.2794     547.0048
   1422.09045     667.9977     545.3768   1422.09045     667.9977     545.3768
   1422.07520     667.3895     545.6156   1422.07520     667.3895     545.6156
   1422.05994     667.1629     543.1656   1422.05994     667.1629     543.1656
   1422.04468     667.2740     541.7341   1422.04468     667.2740     541.7341
   1422.02942     667.1761     540.9536   1422.02942     667.1761     540.9536
   1422.01416     666.5621     539.0964   1422.01416     666.5621     539.0964
   1421.99890     668.4559     537.9819   1421.99890     668.4559     537.9819
   1421.98364     666.2222     537.1979   1421.98364     666.2222     537.1979
   1421.96838     666.0839     535.7247   1421.96838     666.0839     535.7247
   1421.95312     666.2173     534.1742   1421.95312     666.2173     534.1742
   1421.93787     666.1682     533.0803   1421.93787     666.1682     533.0803
   1421.92261     666.6501     531.3098   1421.92261     666.6501     531.3098
   1421.90735     665.2460     530.4388   1421.90735     665.2460     530.4388
   1421.89209     666.5209     529.7086   1421.89209     666.5209     529.7086
   1421.87683     665.7767     528.2064   1421.87683     665.7767     528.2064
   1421.86157     665.0430     526.0581   1421.86157     665.0430     526.0581
   1421.84631     665.4242     525.4146   1421.84631     665.4242     525.4146
   1421.83105     665.6463     525.4709   1421.83105     665.6463     525.4709
   1421.81580     664.2530     523.0890   1421.81580     664.2530     523.0890
   1421.80054     663.5034     521.9971   1421.80054     663.5034     521.9971
   1421.78528     664.3245     520.7460   1421.78528     664.3245     520.7460
   1421.77002     663.6739     518.8505   1421.77002     663.6739     518.8505
   1421.75476     663.3878     518.4134   1421.75476     663.3878     518.4134
   1421.73950     663.3851     516.4580   1421.73950     663.3851     516.4580
   1421.72424     663.5975     515.7208   1421.72424     663.5975     515.7208
   1421.70898     663.6651     514.5987   1421.70898     663.6651     514.5987
   1421.69373     662.1983     513.5555   1421.69373     662.1983     513.5555
   1421.67847     663.3883     511.2967   1421.67847     663.3883     511.2967
   1421.66321     662.5212     511.0617   1421.66321     662.5212     511.0617
   1421.64795     662.8526     509.7917   1421.64795     662.8526     509.7917
   1421.63269     662.4254     508.3078   1421.63269     662.4254     508.3078
   1421.61743     662.2905     506.5191   1421.61743     662.2905     506.5191
   1421.60217     661.9838     505.5203   1421.60217     661.9838     505.5203
   1421.58691     661.4869     504.3902   1421.58691     661.4869     504.3902
   1421.57166     660.1689     503.7629   1421.57166     660.1689     503.7629
   1421.55640     659.7623     502.3995   1421.55640     659.7623     502.3995
   1421.54114     661.0402     501.8864   1421.54114     661.0402     501.8864
   1421.52588     661.1502     499.5549   1421.52588     661.1502     499.5549
   1421.51062     660.7612     499.4066   1421.51062     660.7612     499.4066
   1421.49536     659.6718     497.8236   1421.49536     659.6718     497.8236
   1421.48010     660.4786     496.5426   1421.48010     660.4786     496.5426
   1421.46484     659.5231     494.9964   1421.46484     659.5231     494.9964
   1421.44958     658.6524     494.1096   1421.44958     658.6524     494.1096
   1421.43433     659.4453     493.1837   1421.43433     659.4453     493.1837
   1421.41907     659.9182     491.5765   1421.41907     659.9182     491.5765
   1421.40381     658.6476     489.7201   1421.40381     658.6476     489.7201
   1421.38855     658.2255     488.5377   1421.38855     658.2255     488.5377
   1421.37329     658.2181     488.1478   1421.37329     658.2181     488.1478
   1421.35803     658.6815     486.9545   1421.35803     658.6815     486.9545
   1421.34277     658.7437     485.1747   1421.34277     658.7437     485.1747
   1421.32751     659.9138     485.0576   1421.32751     659.9138     485.0576
   1421.31226     657.7062     484.2595   1421.31226     657.7062     484.2595
   1421.29700     657.3622     482.6530   1421.29700     657.3622     482.6530
   1421.28174     656.6348     481.7709   1421.28174     656.6348     481.7709
   1421.26648     656.6115     479.7721   1421.26648     656.6115     479.7721
   1421.25122     656.5847     478.3094   1421.25122     656.5847     478.3094
   1421.23596     656.3108     477.6462   1421.23596     656.3108     477.6462
   1421.22070     655.3492     477.5352   1421.22070     655.3492     477.5352
   1421.20544     655.6350     476.3771   1421.20544     655.6350     476.3771
   1421.19019     656.0927     474.7924   1421.19019     656.0927     474.7924
   1421.17493     655.5596     473.8254   1421.17493     655.5596     473.8254
   1421.15967     654.5106     472.2910   1421.15967     654.5106     472.2910
   1421.14441     655.1754     471.5538   1421.14441     655.1754     471.5538
   1421.12915     654.3351     470.3921   1421.12915     654.3351     470.3921
   1421.11389     654.4518     468.9326   1421.11389     654.4518     468.9326
   1421.09863     654.6682     468.5412   1421.09863     654.6682     468.5412
   1421.08337     654.6268     467.3095   1421.08337     654.6268     467.3095
   1421.06812     652.1744     465.8491   1421.06812     652.1744     465.8491
   1421.05286     653.8350     464.8425   1421.05286     653.8350     464.8425
   1421.03760     654.4260     464.3079   1421.03760     654.4260     464.3079
   1421.02234     652.5615     462.9529   1421.02234     652.5615     462.9529
   1421.00708     652.7926     462.7308   1421.00708     652.7926     462.7308
   1420.99182     652.9289     461.8436   1420.99182     652.9289     461.8436
   1420.97656     652.7636     460.5470   1420.97656     652.7636     460.5470
   1420.96130     652.7336     459.7318   1420.96130     652.7336     459.7318
   1420.94604     652.7880     458.4965   1420.94604     652.7880     458.4965
   1420.93079     651.7050     456.7039   1420.93079     651.7050     456.7039
   1420.91553     653.2368     455.8979   1420.91553     653.2368     455.8979
   1420.90027     652.4849     455.1939   1420.90027     652.4849     455.1939
   1420.88501     651.9362     454.1120   1420.88501     651.9362     454.1120
   1420.86975     652.0801     453.9091   1420.86975     652.0801     453.9091
   1420.85449     652.1326     452.4222   1420.85449     652.1326     452.4222
   1420.83923     651.8203     451.5209   1420.83923     651.8203     451.5209
   1420.82397     652.0101     451.0725   1420.82397     652.0101     451.0725
   1420.80872     651.7681     450.4027   1420.80872     651.7681     450.4027
   1420.79346     651.6347     449.5632   1420.79346     651.6347     449.5632
   1420.77820     651.6646     449.0166   1420.77820     651.6646     449.0166
   1420.76294     651.3081     447.5341   1420.76294     651.3081     447.5341
   1420.74768     652.5101     446.9004   1420.74768     652.5101     446.9004
   1420.73242     652.2971     446.2097   1420.73242     652.2971     446.2097
   1420.71716     651.6608     444.8476   1420.71716     651.6608     444.8476
   1420.70190     651.7191     443.9287   1420.70190     651.7191     443.9287
   1420.68665     651.2844     443.2525   1420.68665     651.2844     443.2525
   1420.67139     650.7693     442.5209   1420.67139     650.7693     442.5209
   1420.65613     650.3949     442.3911   1420.65613     650.3949     442.3911
   1420.64087     650.3274     440.6629   1420.64087     650.3274     440.6629
   1420.62561     650.4853     440.0637   1420.62561     650.4853     440.0637
   1420.61035     650.9058     439.9170   1420.61035     650.9058     439.9170
   1420.59509     651.2975     438.9770   1420.59509     651.2975     438.9770
   1420.57983     652.0275     438.4682   1420.57983     652.0275     438.4682
   1420.56458     652.1474     438.8654   1420.56458     652.1474     438.8654
   1420.54932     653.7142     438.6483   1420.54932     653.7142     438.6483
   1420.53406     656.2062     439.3203   1420.53406     656.2062     439.3203
   1420.51880     655.6440     438.2123   1420.51880     655.6440     438.2123
   1420.50354     656.9995     437.3729   1420.50354     656.9995     437.3729
   1420.48828     655.0221     437.2861   1420.48828     655.0221     437.2861
   1420.47302     654.3501     434.9027   1420.47302     654.3501     434.9027
   1420.45776     652.4582     433.7112   1420.45776     652.4582     433.7112
   1420.44250     652.2955     433.6828   1420.44250     652.2955     433.6828
   1420.42725     652.2838     432.3637   1420.42725     652.2838     432.3637
   1420.41199     652.1503     431.7365   1420.41199     652.1503     431.7365
   1420.39673     652.5163     430.9912   1420.39673     652.5163     430.9912
   1420.38147     652.8851     430.6577   1420.38147     652.8851     430.6577
   1420.36621     654.1138     430.4090   1420.36621     654.1138     430.4090
   1420.35095     654.0362     430.2692   1420.35095     654.0362     430.2692
   1420.33569     657.4756     431.4550   1420.33569     657.4756     431.4550
   1420.32043     660.6384     432.4622   1420.32043     660.6384     432.4622
   1420.30518     665.9025     435.3474   1420.30518     665.9025     435.3474
   1420.28992     675.4773     441.5670   1420.28992     675.4773     441.5670
   1420.27466     694.2445     451.4318   1420.27466     694.2445     451.4318
   1420.25940     728.3561     473.1223   1420.25940     728.3561     473.1223
   1420.24414     795.1892     513.9001   1420.24414     795.1892     513.9001
   1420.22888     931.4688     598.6360   1420.22888     931.4688     598.6360
   1420.21362    1086.9492     694.8429   1420.21362    1086.9492     694.8429
   1420.19836    1092.1484     698.7379   1420.19836    1092.1484     698.7379
   1420.18311    1191.0009     760.4559   1420.18311    1191.0009     760.4559
   1420.16785    1407.2021     893.7759   1420.16785    1407.2021     893.7759
   1420.15259    1539.6422     974.5071   1420.15259    1539.6422     974.5071
   1420.13733    1674.4873    1054.4658   1420.13733    1674.4873    1054.4658
   1420.12207    1885.1943    1187.9705   1420.12207    1885.1943    1187.9705
   1420.10681    1959.6971    1230.8763   1420.10681    1959.6971    1230.8763
   1420.09155    1846.0677    1157.8055   1420.09155    1846.0677    1157.8055
   1420.07629    1646.8585    1033.3167   1420.07629    1646.8585    1033.3167
   1420.06104    1373.6650     862.4676   1420.06104    1373.6650     862.4676
   1420.04578    1279.0939     801.9916   1420.04578    1279.0939     801.9916
   1420.03052    1326.7582     832.1161   1420.03052    1326.7582     832.1161
   1420.01526    1454.9513     910.7318   1420.01526    1454.9513     910.7318
   1420.00000    1706.7106    1065.4200   1420.00000    1706.7106    1065.4200
   1419.98474    1958.4696    1220.1086   1419.98474    1958.4696    1220.1086
   1419.96948    2070.9951    1287.0890   1419.96948    2070.9951    1287.0890
   1419.95422    2020.0352    1249.6129   1419.95422    2020.0352    1249.6129
   1419.93896    1740.5492    1079.1794   1419.93896    1740.5492    1079.1794
   1419.92371    1233.9590     768.5849   1419.92371    1233.9590     768.5849
   1419.90845     943.1617     591.5582   1419.90845     943.1617     591.5582
   1419.89319     826.7844     519.3054   1419.89319     826.7844     519.3054
   1419.87793     764.1912     480.8797   1419.87793     764.1912     480.8797
   1419.86267     728.0588     457.4630   1419.86267     728.0588     457.4630
   1419.84741     706.2432     444.4862   1419.84741     706.2432     444.4862
   1419.83215     691.0746     433.7113   1419.83215     691.0746     433.7113
   1419.81689     681.6816     427.6940   1419.81689     681.6816     427.6940
   1419.80164     675.2664     423.2728   1419.80164     675.2664     423.2728
   1419.78638     671.1641     420.3049   1419.78638     671.1641     420.3049
   1419.77112     666.7628     417.1718   1419.77112     666.7628     417.1718
   1419.75586     662.7456     415.4200   1419.75586     662.7456     415.4200
   1419.74060     659.5198     412.5833   1419.74060     659.5198     412.5833
   1419.72534     655.7122     409.7751   1419.72534     655.7122     409.7751
   1419.71008     653.4722     407.5363   1419.71008     653.4722     407.5363
   1419.69482     650.2618     405.6282   1419.69482     650.2618     405.6282
   1419.67957     649.4885     404.3142   1419.67957     649.4885     404.3142
   1419.66431     648.1863     403.6736   1419.66431     648.1863     403.6736
   1419.64905     647.2285     402.9228   1419.64905     647.2285     402.9228
   1419.63379     648.3062     401.8921   1419.63379     648.3062     401.8921
   1419.61853     648.2753     402.5310   1419.61853     648.2753     402.5310
   1419.60327     647.8502     401.7386   1419.60327     647.8502     401.7386
   1419.58801     646.5602     401.2604   1419.58801     646.5602     401.2604
   1419.57275     646.8797     401.0535   1419.57275     646.8797     401.0535
   1419.55750     648.3233     401.3346   1419.55750     648.3233     401.3346
   1419.54224     647.6213     400.2162   1419.54224     647.6213     400.2162
   1419.52698     648.6850     400.0768   1419.52698     648.6850     400.0768
   1419.51172     649.3430     400.2783   1419.51172     649.3430     400.2783
   1419.49646     649.5434     400.7851   1419.49646     649.5434     400.7851
   1419.48120     649.4973     400.0388   1419.48120     649.4973     400.0388
   1419.46594     649.8456     400.0616   1419.46594     649.8456     400.0616
   1419.45068     649.4669     399.2477   1419.45068     649.4669     399.2477
   1419.43542     649.8219     399.3887   1419.43542     649.8219     399.3887
   1419.42017     650.6310     399.5605   1419.42017     650.6310     399.5605
   1419.40491     651.6945     398.8991   1419.40491     651.6945     398.8991
   1419.38965     652.6843     399.6124   1419.38965     652.6843     399.6124
   1419.37439     652.0219     398.7336   1419.37439     652.0219     398.7336
   1419.35913     651.4357     398.4504   1419.35913     651.4357     398.4504
   1419.34387     652.9009     398.9852   1419.34387     652.9009     398.9852
   1419.32861     652.3287     399.1640   1419.32861     652.3287     399.1640
   1419.31335     653.0864     398.7184   1419.31335     653.0864     398.7184
   1419.29810     653.4540     398.2168   1419.29810     653.4540     398.2168
   1419.28284     654.6440     398.5557   1419.28284     654.6440     398.5557
   1419.26758     658.4882     398.6485   1419.26758     658.4882     398.6485
   1419.25232     655.0654     399.0690   1419.25232     655.0654     399.0690
   1419.23706     655.6949     399.1087   1419.23706     655.6949     399.1087
   1419.22180     656.3194     398.8595   1419.22180     656.3194     398.8595
   1419.20654     656.5217     399.2749   1419.20654     656.5217     399.2749
   1419.19128     657.1093     398.6157   1419.19128     657.1093     398.6157
   1419.17603     657.2188     399.0759   1419.17603     657.2188     399.0759
   1419.16077     657.9142     398.9676   1419.16077     657.9142     398.9676
   1419.14551     658.7131     399.7058   1419.14551     658.7131     399.7058
   1419.13025     658.8416     398.5858   1419.13025     658.8416     398.5858
   1419.11499     659.7787     399.6739   1419.11499     659.7787     399.6739
   1419.09973     660.9101     399.5605   1419.09973     660.9101     399.5605
   1419.08447     661.1910     399.8481   1419.08447     661.1910     399.8481
   1419.06921     660.1057     399.7067   1419.06921     660.1057     399.7067
   1419.05396     662.5482     399.7146   1419.05396     662.5482     399.7146
   1419.03870     662.3631     399.6342   1419.03870     662.3631     399.6342
   1419.02344     663.1653     400.1851   1419.02344     663.1653     400.1851
   1419.00818     664.3885     400.8532   1419.00818     664.3885     400.8532
   1418.99292     664.3387     400.9163   1418.99292     664.3387     400.9163
   1418.97766     664.8068     400.8356   1418.97766     664.8068     400.8356
   1418.96240     665.5099     401.1889   1418.96240     665.5099     401.1889
   1418.94714     666.0709     400.7437   1418.94714     666.0709     400.7437
   1418.93188     666.7583     401.3297   1418.93188     666.7583     401.3297
   1418.91663     667.9135     400.9273   1418.91663     667.9135     400.9273
   1418.90137     668.9619     401.4822   1418.90137     668.9619     401.4822
   1418.88611     669.1629     401.6723   1418.88611     669.1629     401.6723
   1418.87085     669.8618     401.7944   1418.87085     669.8618     401.7944
   1418.85559     670.3346     401.9536   1418.85559     670.3346     401.9536
   1418.84033     670.6556     401.4529   1418.84033     670.6556     401.4529
   1418.82507     671.7965     402.0662   1418.82507     671.7965     402.0662
   1418.80981     672.5941     402.7227   1418.80981     672.5941     402.7227
   1418.79456     673.1535     403.2140   1418.79456     673.1535     403.2140
   1418.77930     673.3415     403.9191   1418.77930     673.3415     403.9191
   1418.76404     674.6552     403.6893   1418.76404     674.6552     403.6893
   1418.74878     675.9266     404.5527   1418.74878     675.9266     404.5527
   1418.73352     676.0136     405.1053   1418.73352     676.0136     405.1053
   1418.71826     676.9332     404.5338   1418.71826     676.9332     404.5338
   1418.70300     678.6277     405.0609   1418.70300     678.6277     405.0609
   1418.68774     680.3161     405.5843   1418.68774     680.3161     405.5843
   1418.67249     680.7599     405.5212   1418.67249     680.7599     405.5212
   1418.65723     680.6285     406.6776   1418.65723     680.6285     406.6776
   1418.64197     681.0201     406.3404   1418.64197     681.0201     406.3404
   1418.62671     682.5045     407.2436   1418.62671     682.5045     407.2436
   1418.61145     682.5104     407.7518   1418.61145     682.5104     407.7518
   1418.59619     683.9872     407.5484   1418.59619     683.9872     407.5484
   1418.58093     684.9619     407.9677   1418.58093     684.9619     407.9677
   1418.56567     685.3224     408.1869   1418.56567     685.3224     408.1869
   1418.55042     686.7850     409.0700   1418.55042     686.7850     409.0700
   1418.53516     686.4726     408.5895   1418.53516     686.4726     408.5895
   1418.51990     688.3907     409.9173   1418.51990     688.3907     409.9173
   1418.50464     690.3932     410.0153   1418.50464     690.3932     410.0153
   1418.48938     689.8582     410.3896   1418.48938     689.8582     410.3896
   1418.47412     691.0125     411.1408   1418.47412     691.0125     411.1408
   1418.45886     691.4624     410.6959   1418.45886     691.4624     410.6959
   1418.44360     692.7255     411.0062   1418.44360     692.7255     411.0062
   1418.42834     693.4567     411.7737   1418.42834     693.4567     411.7737
   1418.41309     695.6472     411.8034   1418.41309     695.6472     411.8034
   1418.39783     695.8431     413.0615   1418.39783     695.8431     413.0615
   1418.38257     695.3267     414.1546   1418.38257     695.3267     414.1546
   1418.36731     697.9251     414.0525   1418.36731     697.9251     414.0525
   1418.35205     698.6553     414.5197   1418.35205     698.6553     414.5197
   1418.33679     699.7318     415.2637   1418.33679     699.7318     415.2637
   1418.32153     700.1948     415.8386   1418.32153     700.1948     415.8386
   1418.30627     701.7740     415.9189   1418.30627     701.7740     415.9189
   1418.29102     703.1443     416.3614   1418.29102     703.1443     416.3614
   1418.27576     703.3965     416.3139   1418.27576     703.3965     416.3139
   1418.26050     706.1559     417.3750   1418.26050     706.1559     417.3750
   1418.24524     706.2114     418.0546   1418.24524     706.2114     418.0546
   1418.22998     707.1859     418.3229   1418.22998     707.1859     418.3229
   1418.21472     707.9924     419.3829   1418.21472     707.9924     419.3829
   1418.19946     709.2946     420.0631   1418.19946     709.2946     420.0631
   1418.18420     709.5107     420.3824   1418.18420     709.5107     420.3824
   1418.16895     710.9773     420.6142   1418.16895     710.9773     420.6142
   1418.15369     711.5694     421.3029   1418.15369     711.5694     421.3029
   1418.13843     712.4319     421.6383   1418.13843     712.4319     421.6383
   1418.12317     714.5571     422.4076   1418.12317     714.5571     422.4076
   1418.10791     714.8776     423.2236   1418.10791     714.8776     423.2236
   1418.09265     715.7449     423.4788   1418.09265     715.7449     423.4788
   1418.07739     716.3959     424.3501   1418.07739     716.3959     424.3501
   1418.06213     718.4288     425.6011   1418.06213     718.4288     425.6011
   1418.04688     720.1550     425.2328   1418.04688     720.1550     425.2328
   1418.03162     720.4255     425.9583   1418.03162     720.4255     425.9583
   1418.01636     722.0986     426.9030   1418.01636     722.0986     426.9030
   1418.00110     722.6024     426.8448   1418.00110     722.6024     426.8448
   1417.98584     722.8896     427.8560   1417.98584     722.8896     427.8560
   1417.97058     723.9811     428.3399   1417.97058     723.9811     428.3399
   1417.95532     725.0664     428.8955   1417.95532     725.0664     428.8955
   1417.94006     727.8119     429.5962   1417.94006     727.8119     429.5962
   1417.92480     728.4968     430.6312   1417.92480     728.4968     430.6312
   1417.90955     730.3932     430.6391   1417.90955     730.3932     430.6391
   1417.89429     730.4415     430.8248   1417.89429     730.4415     430.8248
   1417.87903     731.5902     432.9551   1417.87903     731.5902     432.9551
   1417.86377     733.4920     432.9975   1417.86377     733.4920     432.9975
   1417.84851     733.9163     433.4264   1417.84851     733.9163     433.4264
   1417.83325     735.2858     433.9011   1417.83325     735.2858     433.9011
   1417.81799     735.5613     434.5918   1417.81799     735.5613     434.5918
   1417.80273     737.8105     435.1235   1417.80273     737.8105     435.1235
   1417.78748     738.3107     435.9971   1417.78748     738.3107     435.9971
   1417.77222     738.8805     436.9619   1417.77222     738.8805     436.9619
   1417.75696     741.5278     437.2393   1417.75696     741.5278     437.2393
   1417.74170     742.1633     437.6219   1417.74170     742.1633     437.6219
   1417.72644     743.2330     438.8601   1417.72644     743.2330     438.8601
   1417.71118     744.0854     439.0803   1417.71118     744.0854     439.0803
   1417.69592     744.9780     439.4032   1417.69592     744.9780     439.4032
   1417.68066     745.9345     440.4831   1417.68066     745.9345     440.4831
   1417.66541     746.8373     441.3012   1417.66541     746.8373     441.3012
   1417.65015     746.9013     442.2442   1417.65015     746.9013     442.2442
   1417.63489     749.3002     442.8909   1417.63489     749.3002     442.8909
   1417.61963     750.8444     443.8450   1417.61963     750.8444     443.8450
   1417.60437     750.5493     443.7247   1417.60437     750.5493     443.7247
   1417.58911     751.9974     444.8275   1417.58911     751.9974     444.8275
   1417.57385     753.0297     445.3592   1417.57385     753.0297     445.3592
   1417.55859     755.0614     445.2241   1417.55859     755.0614     445.2241
   1417.54333     755.7867     446.3622   1417.54333     755.7867     446.3622
   1417.52808     757.6760     446.5239   1417.52808     757.6760     446.5239
   1417.51282     757.9323     447.7057   1417.51282     757.9323     447.7057
   1417.49756     758.9169     448.8947   1417.49756     758.9169     448.8947
   1417.48230     759.3526     448.9741   1417.48230     759.3526     448.9741
   1417.46704     760.5422     449.1976   1417.46704     760.5422     449.1976
   1417.45178     761.6262     450.3181   1417.45178     761.6262     450.3181
   1417.43652     762.3991     450.6956   1417.43652     762.3991     450.6956
   1417.42126     764.8489     451.4743   1417.42126     764.8489     451.4743
   1417.40601     764.8869     451.8919   1417.40601     764.8869     451.8919
   1417.39075     767.1105     453.0889   1417.39075     767.1105     453.0889
   1417.37549     766.5011     453.8450   1417.37549     766.5011     453.8450
   1417.36023     767.8151     454.2092   1417.36023     767.8151     454.2092
   1417.34497     769.9902     455.2631   1417.34497     769.9902     455.2631
   1417.32971     769.4512     455.1498   1417.32971     769.4512     455.1498
   1417.31445     769.9694     455.9637   1417.31445     769.9694     455.9637
   1417.29919     771.2817     456.5215   1417.29919     771.2817     456.5215
   1417.28394     772.7203     457.6412   1417.28394     772.7203     457.6412
   1417.26868     773.0610     457.1989   1417.26868     773.0610     457.1989
   1417.25342     774.1712     458.0527   1417.25342     774.1712     458.0527
   1417.23816     775.6719     459.1383   1417.23816     775.6719     459.1383
   1417.22290     782.2324     459.2633   1417.22290     782.2324     459.2633
   1417.20764     776.7378     459.5009   1417.20764     776.7378     459.5009
   1417.19238     778.9191     461.3097   1417.19238     778.9191     461.3097
   1417.17712     778.3259     460.8649   1417.17712     778.3259     460.8649
   1417.16187     779.2277     461.6121   1417.16187     779.2277     461.6121
   1417.14661     780.0122     462.1118   1417.14661     780.0122     462.1118
   1417.13135     780.5612     462.9997   1417.13135     780.5612     462.9997
   1417.11609     783.3198     463.1380   1417.11609     783.3198     463.1380
   1417.10083     783.5609     463.6374   1417.10083     783.5609     463.6374
   1417.08557     783.4688     464.0837   1417.08557     783.4688     464.0837
   1417.07031     784.2772     464.6956   1417.07031     784.2772     464.6956
   1417.05505     785.1216     465.5739   1417.05505     785.1216     465.5739
   1417.03979     784.8344     466.5664   1417.03979     784.8344     466.5664
   1417.02454     785.6821     466.4652   1417.02454     785.6821     466.4652
   1417.00928     787.1493     466.8573   1417.00928     787.1493     466.8573
   1416.99402     787.4205     468.3379   1416.99402     787.4205     468.3379
   1416.97876     788.6531     468.6160   1416.97876     788.6531     468.6160
   1416.96350     789.0128     468.2387   1416.96350     789.0128     468.2387
   1416.94824     789.9996     468.7705   1416.94824     789.9996     468.7705
   1416.93298     791.5158     469.3150   1416.93298     791.5158     469.3150
   1416.91772     792.4142     469.8795   1416.91772     792.4142     469.8795
   1416.90247     791.7363     470.1432   1416.90247     791.7363     470.1432
   1416.88721     792.3497     469.7281   1416.88721     792.3497     469.7281
   1416.87195     792.8012     471.1738   1416.87195     792.8012     471.1738
   1416.85669     794.0369     472.0979   1416.85669     794.0369     472.0979
   1416.84143     795.0212     472.3925   1416.84143     795.0212     472.3925
   1416.82617     795.1877     472.8039   1416.82617     795.1877     472.8039
   1416.81091     794.4592     472.5974   1416.81091     794.4592     472.5974
   1416.79565     795.0104     473.2398   1416.79565     795.0104     473.2398
   1416.78040     796.1011     473.8019   1416.78040     796.1011     473.8019
   1416.76514     796.0957     474.2811   1416.76514     796.0957     474.2811
   1416.74988     796.4345     473.7911   1416.74988     796.4345     473.7911
   1416.73462     796.9414     474.8298   1416.73462     796.9414     474.8298
   1416.71936     797.6039     475.2592   1416.71936     797.6039     475.2592
   1416.70410     798.0302     474.6231   1416.70410     798.0302     474.6231
   1416.68884     796.2719     475.7289   1416.68884     796.2719     475.7289
   1416.67358     799.1370     475.2943   1416.67358     799.1370     475.2943
   1416.65833     799.4907     476.0664   1416.65833     799.4907     476.0664
   1416.64307     799.0569     476.4953   1416.64307     799.0569     476.4953
   1416.62781     798.4032     475.9843   1416.62781     798.4032     475.9843
   1416.61255     800.2035     476.5296   1416.61255     800.2035     476.5296
   1416.59729     798.6541     476.6432   1416.59729     798.6541     476.6432
   1416.58203     799.9796     476.7924   1416.58203     799.9796     476.7924
   1416.56677     800.4587     476.6234   1416.56677     800.4587     476.6234
   1416.55151     799.9952     476.9142   1416.55151     799.9952     476.9142
   1416.53625     800.6652     477.8144   1416.53625     800.6652     477.8144
   1416.52100     799.8602     477.1935   1416.52100     799.8602     477.1935
   1416.50574     801.4481     478.5665   1416.50574     801.4481     478.5665
   1416.49048     799.5197     477.3078   1416.49048     799.5197     477.3078
   1416.47522     800.7155     478.1035   1416.47522     800.7155     478.1035
   1416.45996     801.1956     478.2814   1416.45996     801.1956     478.2814
   1416.44470     799.3875     478.2935   1416.44470     799.3875     478.2935
   1416.42944     801.6667     478.5013   1416.42944     801.6667     478.5013
   1416.41418     801.4535     478.7621   1416.41418     801.4535     478.7621
   1416.39893     800.2084     478.4330   1416.39893     800.2084     478.4330
   1416.38367     799.6868     479.2993   1416.38367     799.6868     479.2993
   1416.36841     799.8635     479.1873   1416.36841     799.8635     479.1873
   1416.35315     800.0714     478.6732   1416.35315     800.0714     478.6732
   1416.33789     798.6938     479.4246   1416.33789     798.6938     479.4246
   1416.32263     799.5224     479.0926   1416.32263     799.5224     479.0926
   1416.30737     799.8232     478.7925   1416.30737     799.8232     478.7925
   1416.29211     800.0668     479.4174   1416.29211     800.0668     479.4174
   1416.27686     799.4338     480.0905   1416.27686     799.4338     480.0905
   1416.26160     798.5391     478.9591   1416.26160     798.5391     478.9591
   1416.24634     799.4614     478.6702   1416.24634     799.4614     478.6702
   1416.23108     798.6504     478.6585   1416.23108     798.6504     478.6585
   1416.21582     799.4788     479.4559   1416.21582     799.4788     479.4559
   1416.20056     798.3763     478.8074   1416.20056     798.3763     478.8074
   1416.18530     797.3501     479.1306   1416.18530     797.3501     479.1306
   1416.17004     797.0350     478.5302   1416.17004     797.0350     478.5302
   1416.15479     797.6982     479.0551   1416.15479     797.6982     479.0551
   1416.13953     798.2176     478.0031   1416.13953     798.2176     478.0031
   1416.12427     796.0728     478.5862   1416.12427     796.0728     478.5862
   1416.10901     796.3614     479.0696   1416.10901     796.3614     479.0696
   1416.09375     796.1463     478.5127   1416.09375     796.1463     478.5127
   1416.07849     795.5193     477.9173   1416.07849     795.5193     477.9173
   1416.06323     794.8853     478.1159   1416.06323     794.8853     478.1159
   1416.04797     793.8246     477.6500   1416.04797     793.8246     477.6500
   1416.03271     794.6714     477.5305   1416.03271     794.6714     477.5305
   1416.01746     793.2762     477.7685   1416.01746     793.2762     477.7685
   1416.00220     793.8109     477.3134   1416.00220     793.8109     477.3134
   1415.98694     792.3187     476.9018   1415.98694     792.3187     476.9018
   1415.97168     790.8959     477.0963   1415.97168     790.8959     477.0963
   1415.95642     791.7338     476.5073   1415.95642     791.7338     476.5073
   1415.94116     792.5597     476.4978   1415.94116     792.5597     476.4978
   1415.92590     791.3297     477.5178   1415.92590     791.3297     477.5178
   1415.91064     789.0835     476.1675   1415.91064     789.0835     476.1675
   1415.89539     789.8107     477.1129   1415.89539     789.8107     477.1129
   1415.88013     788.5539     476.8392   1415.88013     788.5539     476.8392
   1415.86487     787.9931     476.1624   1415.86487     787.9931     476.1624
   1415.84961     786.7313     477.1071   1415.84961     786.7313     477.1071
   1415.83435     786.2383     476.3597   1415.83435     786.2383     476.3597
   1415.81909     786.0645     476.2129   1415.81909     786.0645     476.2129
   1415.80383     784.8300     476.3944   1415.80383     784.8300     476.3944
   1415.78857     785.0997     475.2593   1415.78857     785.0997     475.2593
   1415.77332     783.9987     475.3899   1415.77332     783.9987     475.3899
   1415.75806     783.1608     474.9759   1415.75806     783.1608     474.9759
   1415.74280     782.2396     475.5584   1415.74280     782.2396     475.5584
   1415.72754     781.1689     474.5492   1415.72754     781.1689     474.5492
   1415.71228     781.8689     474.9479   1415.71228     781.8689     474.9479
   1415.69702     780.6808     475.0599   1415.69702     780.6808     475.0599
   1415.68176     778.8719     473.8369   1415.68176     778.8719     473.8369
   1415.66650     778.7622     474.2039   1415.66650     778.7622     474.2039
   1415.65125     777.3887     472.9054   1415.65125     777.3887     472.9054
   1415.63599     776.7537     472.7493   1415.63599     776.7537     472.7493
   1415.62073     775.2196     473.7735   1415.62073     775.2196     473.7735
   1415.60547     775.0281     472.3125   1415.60547     775.0281     472.3125
   1415.59021     774.1452     472.9359   1415.59021     774.1452     472.9359
   1415.57495     772.8476     471.9506   1415.57495     772.8476     471.9506
   1415.55969     773.1833     471.8959   1415.55969     773.1833     471.8959
   1415.54443     769.7335     472.0999   1415.54443     769.7335     472.0999
   1415.52917     769.8983     471.4497   1415.52917     769.8983     471.4497
   1415.51392     768.5825     471.3415   1415.51392     768.5825     471.3415
   1415.49866     767.9924     470.7274   1415.49866     767.9924     470.7274
   1415.48340     767.2149     470.8574   1415.48340     767.2149     470.8574
   1415.46814     765.2408     470.4173   1415.46814     765.2408     470.4173
   1415.45288     764.2377     470.9136   1415.45288     764.2377     470.9136
   1415.43762     763.6946     469.5240   1415.43762     763.6946     469.5240
   1415.42236     762.6523     469.5330   1415.42236     762.6523     469.5330
   1415.40710     761.8459     470.2231   1415.40710     761.8459     470.2231
   1415.39185     759.3212     468.9896   1415.39185     759.3212     468.9896
   1415.37659     760.2147     468.6209   1415.37659     760.2147     468.6209
   1415.36133     759.3666     468.6528   1415.36133     759.3666     468.6528
   1415.34607     757.4268     467.3609   1415.34607     757.4268     467.3609
   1415.33081     755.9991     468.2167   1415.33081     755.9991     468.2167
   1415.31555     754.4933     467.0209   1415.31555     754.4933     467.0209
   1415.30029     752.4863     466.6472   1415.30029     752.4863     466.6472
   1415.28503     751.7839     466.9416   1415.28503     751.7839     466.9416
   1415.26978     750.7985     465.4623   1415.26978     750.7985     465.4623
   1415.25452     748.2615     465.1741   1415.25452     748.2615     465.1741
   1415.23926     747.0059     465.3238   1415.23926     747.0059     465.3238
   1415.22400     746.9230     465.3577   1415.22400     746.9230     465.3577
   1415.20874     745.1676     464.6064   1415.20874     745.1676     464.6064
   1415.19348     743.4129     463.5306   1415.19348     743.4129     463.5306
   1415.17822     744.1337     463.5024   1415.17822     744.1337     463.5024
   1415.16296     742.5070     463.2315   1415.16296     742.5070     463.2315
   1415.14771     738.4453     462.8704   1415.14771     738.4453     462.8704
   1415.13245     737.6326     462.2061   1415.13245     737.6326     462.2061
   1415.11719     736.0295     461.9976   1415.11719     736.0295     461.9976
   1415.10193     735.8364     460.6270   1415.10193     735.8364     460.6270
   1415.08667     733.2483     460.6162   1415.08667     733.2483     460.6162
   1415.07141     730.9321     460.3305   1415.07141     730.9321     460.3305
   1415.05615     730.7820     459.3200   1415.05615     730.7820     459.3200
   1415.04089     728.7015     458.3925   1415.04089     728.7015     458.3925
   1415.02563     727.3201     458.2489   1415.02563     727.3201     458.2489
   1415.01038     726.1135     457.3094   1415.01038     726.1135     457.3094
   1414.99512     724.7849     457.7424   1414.99512     724.7849     457.7424
   1414.97986     722.5701     456.7084   1414.97986     722.5701     456.7084
   1414.96460     720.3585     456.2956   1414.96460     720.3585     456.2956
   1414.94934     718.2166     454.5081   1414.94934     718.2166     454.5081
   1414.93408     716.1765     454.8281   1414.93408     716.1765     454.8281
   1414.91882     716.0579     453.6609   1414.91882     716.0579     453.6609
   1414.90356     713.0410     453.1629   1414.90356     713.0410     453.1629
   1414.88831     711.3613     452.4193   1414.88831     711.3613     452.4193
   1414.87305     710.2263     452.1312   1414.87305     710.2263     452.1312
   1414.85779     708.5033     451.3839   1414.85779     708.5033     451.3839
   1414.84253     706.3765     450.5133   1414.84253     706.3765     450.5133
   1414.82727     704.1997     449.5889   1414.82727     704.1997     449.5889
   1414.81201     702.5192     449.6255   1414.81201     702.5192     449.6255
   1414.79675     699.6035     448.1165   1414.79675     699.6035     448.1165
   1414.78149     697.7178     446.9303   1414.78149     697.7178     446.9303
   1414.76624     695.9551     446.3453   1414.76624     695.9551     446.3453
   1414.75098     693.9703     445.0201   1414.75098     693.9703     445.0201
   1414.73572     692.6866     444.6186   1414.73572     692.6866     444.6186
   1414.72046     690.4708     444.0092   1414.72046     690.4708     444.0092
   1414.70520     688.0963     442.8422   1414.70520     688.0963     442.8422
   1414.68994     686.5829     442.3386   1414.68994     686.5829     442.3386
   1414.67468     682.9749     441.0537   1414.67468     682.9749     441.0537
   1414.65942     681.4161     439.7631   1414.65942     681.4161     439.7631
   1414.64417     679.1541     438.9647   1414.64417     679.1541     438.9647
   1414.62891     677.1669     438.5400   1414.62891     677.1669     438.5400
   1414.61365     675.5654     437.7139   1414.61365     675.5654     437.7139
   1414.59839     673.9293     437.2429   1414.59839     673.9293     437.2429
   1414.58313     670.5878     434.8698   1414.58313     670.5878     434.8698
   1414.56787     668.2141     434.6094   1414.56787     668.2141     434.6094
   1414.55261     666.4854     433.9024   1414.55261     666.4854     433.9024
   1414.53735     663.4307     432.1971   1414.53735     663.4307     432.1971
   1414.52209     661.6379     430.7405   1414.52209     661.6379     430.7405
   1414.50684     659.7032     430.6147   1414.50684     659.7032     430.6147
   1414.49158     656.2744     429.5069   1414.49158     656.2744     429.5069
   1414.47632     654.2675     428.3258   1414.47632     654.2675     428.3258
   1414.46106     651.9481     427.7553   1414.46106     651.9481     427.7553
   1414.44580     650.2835     425.8201   1414.44580     650.2835     425.8201
   1414.43054     647.4017     425.2889   1414.43054     647.4017     425.2889
   1414.41528     643.8510     423.8196   1414.41528     643.8510     423.8196
   1414.40002     641.3162     422.7666   1414.40002     641.3162     422.7666
   1414.38477     639.5463     421.3385   1414.38477     639.5463     421.3385
   1414.36951     637.8134     421.0262   1414.36951     637.8134     421.0262
   1414.35425     635.5125     419.5094   1414.35425     635.5125     419.5094
   1414.33899     631.7924     418.2871   1414.33899     631.7924     418.2871
   1414.32373     629.3160     417.0163   1414.32373     629.3160     417.0163
   1414.30847     626.5254     415.8909   1414.30847     626.5254     415.8909
   1414.29321     624.3689     414.2603   1414.29321     624.3689     414.2603
   1414.27795     622.2606     413.1066   1414.27795     622.2606     413.1066
   1414.26270     619.3867     411.6469   1414.26270     619.3867     411.6469
   1414.24744     616.2619     411.3780   1414.24744     616.2619     411.3780
   1414.23218     613.8483     409.4789   1414.23218     613.8483     409.4789
   1414.21692     611.7083     407.6136   1414.21692     611.7083     407.6136
   1414.20166     608.1742     406.6870   1414.20166     608.1742     406.6870
   1414.18640     605.9869     405.3424   1414.18640     605.9869     405.3424
   1414.17114     602.2020     404.3106   1414.17114     602.2020     404.3106
   1414.15588     599.2944     402.8077   1414.15588     599.2944     402.8077
   1414.14062     596.6782     401.5316   1414.14062     596.6782     401.5316
   1414.12537     594.0607     399.4418   1414.12537     594.0607     399.4418
   1414.11011     591.0177     398.6040   1414.11011     591.0177     398.6040
   1414.09485     588.4897     397.2218   1414.09485     588.4897     397.2218
   1414.07959     586.1737     395.2298   1414.07959     586.1737     395.2298
   1414.06433     583.1005     394.3512   1414.06433     583.1005     394.3512
   1414.04907     580.8267     393.3825   1414.04907     580.8267     393.3825
   1414.03381     576.7863     391.1697   1414.03381     576.7863     391.1697
   1414.01855     575.6039     390.1541   1414.01855     575.6039     390.1541
   1414.00330     596.2757     394.5509   1414.00330     596.2757     394.5509
   1413.98804     570.5720     387.6641   1413.98804     570.5720     387.6641
   1413.97278     565.7443     385.5207   1413.97278     565.7443     385.5207
   1413.95752     563.3795     383.9891   1413.95752     563.3795     383.9891
   1413.94226     559.4593     382.7197   1413.94226     559.4593     382.7197
   1413.92700     556.6051     381.0123   1413.92700     556.6051     381.0123
   1413.91174     554.4421     379.6896   1413.91174     554.4421     379.6896
   1413.89648     551.7985     378.3732   1413.89648     551.7985     378.3732
   1413.88123     546.9039     376.7901   1413.88123     546.9039     376.7901
   1413.86597     545.4172     374.9486   1413.86597     545.4172     374.9486
   1413.85071     541.9852     373.3332   1413.85071     541.9852     373.3332
   1413.83545     539.4863     372.2894   1413.83545     539.4863     372.2894
   1413.82019     536.1304     370.5244   1413.82019     536.1304     370.5244
   1413.80493     533.4454     369.1446   1413.80493     533.4454     369.1446
   1413.78967     530.5920     366.7838   1413.78967     530.5920     366.7838
   1413.77441     527.4548     365.1660   1413.77441     527.4548     365.1660
   1413.75916     523.4291     363.8826   1413.75916     523.4291     363.8826
   1413.74390     521.0103     362.3215   1413.74390     521.0103     362.3215
   1413.72864     518.6204     361.4778   1413.72864     518.6204     361.4778
   1413.71338     515.5551     359.3211   1413.71338     515.5551     359.3211
   1413.69812     512.4402     357.1244   1413.69812     512.4402     357.1244
   1413.68286     510.0546     356.1198   1413.68286     510.0546     356.1198
   1413.66760     507.1720     354.1413   1413.66760     507.1720     354.1413
   1413.65234     503.4041     352.9649   1413.65234     503.4041     352.9649
   1413.63708     500.4994     350.8367   1413.63708     500.4994     350.8367
   1413.62183     497.8925     349.3173   1413.62183     497.8925     349.3173
   1413.60657     495.8319     347.9063   1413.60657     495.8319     347.9063
   1413.59131     490.8932     346.4617   1413.59131     490.8932     346.4617
   1413.57605     489.0012     344.5139   1413.57605     489.0012     344.5139
   1413.56079     486.1924     343.1940   1413.56079     486.1924     343.1940
   1413.54553     482.7475     341.5250   1413.54553     482.7475     341.5250
   1413.53027     479.9319     340.0376   1413.53027     479.9319     340.0376
   1413.51501     476.5967     338.3995   1413.51501     476.5967     338.3995
   1413.49976     475.1168     336.4582   1413.49976     475.1168     336.4582
   1413.48450     471.5356     335.3294   1413.48450     471.5356     335.3294
   1413.46924     468.4948     332.8616   1413.46924     468.4948     332.8616
   1413.45398     466.1782     332.0327   1413.45398     466.1782     332.0327
   1413.43872     463.7256     330.3313   1413.43872     463.7256     330.3313
   1413.42346     459.8487     328.4727   1413.42346     459.8487     328.4727
   1413.40820     457.3863     326.9768   1413.40820     457.3863     326.9768
   1413.39294     455.4710     326.0343   1413.39294     455.4710     326.0343
   1413.37769     452.3475     323.9641   1413.37769     452.3475     323.9641
   1413.36243     450.1876     322.4248   1413.36243     450.1876     322.4248
   1413.34717     446.9184     321.3327   1413.34717     446.9184     321.3327
   1413.33191     443.7138     319.3167   1413.33191     443.7138     319.3167
   1413.31665     442.0357     317.8547   1413.31665     442.0357     317.8547
   1413.30139     438.7360     315.7180   1413.30139     438.7360     315.7180
   1413.28613     436.4756     315.1711   1413.28613     436.4756     315.1711
   1413.27087     434.0346     313.2818   1413.27087     434.0346     313.2818
   1413.25562     431.0793     312.1282   1413.25562     431.0793     312.1282
   1413.24036     427.9401     310.1696   1413.24036     427.9401     310.1696
   1413.22510     425.6268     308.8237   1413.22510     425.6268     308.8237
   1413.20984     423.5484     307.1073   1413.20984     423.5484     307.1073
   1413.19458     421.4672     305.3805   1413.19458     421.4672     305.3805
   1413.17932     418.8062     304.6716   1413.17932     418.8062     304.6716
   1413.16406     416.8145     302.8471   1413.16406     416.8145     302.8471
   1413.14880     413.8882     301.4853   1413.14880     413.8882     301.4853
   1413.13354     411.8444     299.8219   1413.13354     411.8444     299.8219
   1413.11829     409.4392     298.3376   1413.11829     409.4392     298.3376
   1413.10303     407.1075     297.1359   1413.10303     407.1075     297.1359
   1413.08777     405.1760     295.9731   1413.08777     405.1760     295.9731
   1413.07251     402.8240     294.2924   1413.07251     402.8240     294.2924
   1413.05725     400.2711     293.5240   1413.05725     400.2711     293.5240
   1413.04199     398.3084     291.7315   1413.04199     398.3084     291.7315
   1413.02673     396.1900     290.1952   1413.02673     396.1900     290.1952
   1413.01147     394.4465     289.3155   1413.01147     394.4465     289.3155
   1412.99622     392.4615     288.0947   1412.99622     392.4615     288.0947
   1412.98096     390.5070     286.8503   1412.98096     390.5070     286.8503
   1412.96570     388.8525     286.0963   1412.96570     388.8525     286.0963
   1412.95044     386.7296     284.7335   1412.95044     386.7296     284.7335
   1412.93518     385.0257     282.9905   1412.93518     385.0257     282.9905
   1412.91992     382.4717     282.0070   1412.91992     382.4717     282.0070
   1412.90466     381.5171     281.0580   1412.90466     381.5171     281.0580
   1412.88940     379.5225     280.3477   1412.88940     379.5225     280.3477
   1412.87415     377.6196     279.2781   1412.87415     377.6196     279.2781
   1412.85889     375.1772     277.6510   1412.85889     375.1772     277.6510
   1412.84363     374.3880     276.6024   1412.84363     374.3880     276.6024
   1412.82837     373.0348     275.7457   1412.82837     373.0348     275.7457
   1412.81311     371.3392     274.4477   1412.81311     371.3392     274.4477
   1412.79785     369.9166     273.5276   1412.79785     369.9166     273.5276
   1412.78259     368.6848     273.1769   1412.78259     368.6848     273.1769
   1412.76733     366.6727     271.7604   1412.76733     366.6727     271.7604
   1412.75208     365.9084     271.1657   1412.75208     365.9084     271.1657
   1412.73682     364.5238     270.2630   1412.73682     364.5238     270.2630
   1412.72156     363.8349     269.2804   1412.72156     363.8349     269.2804
   1412.70630     362.2933     268.3827   1412.70630     362.2933     268.3827
   1412.69104     361.7511     267.7038   1412.69104     361.7511     267.7038
   1412.67578     360.2474     267.0079   1412.67578     360.2474     267.0079
   1412.66052     358.7708     266.3687   1412.66052     358.7708     266.3687
   1412.64526     357.9476     265.8828   1412.64526     357.9476     265.8828
   1412.63000     357.1106     264.8232   1412.63000     357.1106     264.8232
   1412.61475     356.1783     264.8123   1412.61475     356.1783     264.8123
   1412.59949     355.7141     264.2177   1412.59949     355.7141     264.2177
   1412.58423     354.7369     263.2349   1412.58423     354.7369     263.2349
   1412.56897     354.1315     263.3388   1412.56897     354.1315     263.3388
   1412.55371     353.3335     262.3741   1412.55371     353.3335     262.3741
   1412.53845     352.5225     262.2092   1412.53845     352.5225     262.2092
   1412.52319     352.2162     261.5060   1412.52319     352.2162     261.5060
   1412.50793     351.1833     261.2444   1412.50793     351.1833     261.2444
   1412.49268     351.1797     261.0274   1412.49268     351.1797     261.0274
   1412.47742     350.7395     260.6462   1412.47742     350.7395     260.6462
   1412.46216     350.0992     260.5590   1412.46216     350.0992     260.5590
   1412.44690     350.0097     260.1835   1412.44690     350.0097     260.1835
   1412.43164     349.6772     260.2716   1412.43164     349.6772     260.2716
   1412.41638     349.6581     259.6413   1412.41638     349.6581     259.6413
   1412.40112     349.5090     259.9651   1412.40112     349.5090     259.9651
   1412.38586     349.0805     259.7861   1412.38586     349.0805     259.7861
   1412.37061     348.9899     259.8467   1412.37061     348.9899     259.8467
   1412.35535     349.1458     259.6961   1412.35535     349.1458     259.6961
   1412.34009     349.3983     259.9608   1412.34009     349.3983     259.9608
   1412.32483     349.8108     259.9651   1412.32483     349.8108     259.9651
   1412.30957     349.5098     259.9726   1412.30957     349.5098     259.9726
   1412.29431     349.5713     260.2334   1412.29431     349.5713     260.2334
   1412.27905     349.9057     260.1628   1412.27905     349.9057     260.1628
   1412.26379     350.3225     260.5266   1412.26379     350.3225     260.5266
   1412.24854     350.8991     260.8324   1412.24854     350.8991     260.8324
   1412.23328     351.4835     261.3036   1412.23328     351.4835     261.3036
   1412.21802     351.3697     261.8118   1412.21802     351.3697     261.8118
   1412.20276     352.4154     261.6030   1412.20276     352.4154     261.6030