#     FILENAME=!Skynet_57533_lach-hhg-193-2_20792_21210.cyb.fits
#     BASENAME=Skynet_57533_lach-hhg-193-2_20792_21210
#     SRC_NAME=lach-hhg-193-2
#     OBSERVER=ccmadison16_9505
#     DATE_OBS=2016-05-25T18:37:51.560
#        OBSID=20792
#      SCANNUM=21210
#          MJD=57533.7773
#          UTC=67160
#     SCANTYPE=track
#     DATAMODE=HIRES
#     TUNEFREQ=1420.0000
# Actual_FREQ1=1420.0000
# Actual_FREQ2=1420.0000
#    LO1Tuning=6870.000
#     RFFILTER=1355_1435
#        OBSBW=-15.6250
#        NCHAN=1024 
#        FOCUS=37.0709
#           RA=06:13:50.92
#          DEC=17:39:43.46
#      RA(hrs)=6.230800
#     DEC(deg)=17.662100
#    AZIM(deg)=153.248
#    ELEV(deg)=67.236
#     IFattens=10.00, 9.00
#      WARNING=None
#    TCAL_XL1=7.9635
#    TCAL_YR1=9.1340
#    TCAL_XL2=7.9635
#    TCAL_YR2=9.1340
#     TRX_XL1=11.7060
#     TRX_YR1=11.7060
#     TRX_XL2=11.7060
#     TRX_YR2=11.7060
#        TAVE=1.0000
#Freq1(MHz)          XL1          YR1  Freq2(MHz)          XL2          YR2 

   1427.81250     368.5447     267.2010   1427.81250     368.5447     267.2010
   1427.79724     368.4075     268.1209   1427.79724     368.4075     268.1209
   1427.78198     369.3681     269.1013   1427.78198     369.3681     269.1013
   1427.76672     369.9227     269.9971   1427.76672     369.9227     269.9971
   1427.75146     370.6078     271.2520   1427.75146     370.6078     271.2520
   1427.73621     371.1763     272.1200   1427.73621     371.1763     272.1200
   1427.72095     372.1510     273.5092   1427.72095     372.1510     273.5092
   1427.70569     372.7005     274.2964   1427.70569     372.7005     274.2964
   1427.69043     373.5057     275.4096   1427.69043     373.5057     275.4096
   1427.67517     374.7773     276.6111   1427.67517     374.7773     276.6111
   1427.65991     375.4049     277.6009   1427.65991     375.4049     277.6009
   1427.64465     377.1979     278.4657   1427.64465     377.1979     278.4657
   1427.62939     378.0571     280.0562   1427.62939     378.0571     280.0562
   1427.61414     380.0624     281.3153   1427.61414     380.0624     281.3153
   1427.59888     380.4169     282.3919   1427.59888     380.4169     282.3919
   1427.58362     382.0460     283.4383   1427.58362     382.0460     283.4383
   1427.56836     383.2000     285.2047   1427.56836     383.2000     285.2047
   1427.55310     385.0278     286.7964   1427.55310     385.0278     286.7964
   1427.53784     386.1334     288.2267   1427.53784     386.1334     288.2267
   1427.52258     387.3282     289.4590   1427.52258     387.3282     289.4590
   1427.50732     389.5991     290.6943   1427.50732     389.5991     290.6943
   1427.49207     390.8036     292.4755   1427.49207     390.8036     292.4755
   1427.47681     392.4927     293.3262   1427.47681     392.4927     293.3262
   1427.46155     394.4915     295.5083   1427.46155     394.4915     295.5083
   1427.44629     396.8958     296.9500   1427.44629     396.8958     296.9500
   1427.43103     398.5771     298.7004   1427.43103     398.5771     298.7004
   1427.41577     399.8488     300.2266   1427.41577     399.8488     300.2266
   1427.40051     402.1613     301.6622   1427.40051     402.1613     301.6622
   1427.38525     403.5100     303.2023   1427.38525     403.5100     303.2023
   1427.37000     405.4569     304.8643   1427.37000     405.4569     304.8643
   1427.35474     407.8990     306.6513   1427.35474     407.8990     306.6513
   1427.33948     410.5649     308.4242   1427.33948     410.5649     308.4242
   1427.32422     412.5260     310.2941   1427.32422     412.5260     310.2941
   1427.30896     415.0320     311.7976   1427.30896     415.0320     311.7976
   1427.29370     416.5836     313.3768   1427.29370     416.5836     313.3768
   1427.27844     419.8846     314.7877   1427.27844     419.8846     314.7877
   1427.26318     421.8713     316.8737   1427.26318     421.8713     316.8737
   1427.24792     423.6883     318.4873   1427.24792     423.6883     318.4873
   1427.23267     427.1473     320.3448   1427.23267     427.1473     320.3448
   1427.21741     428.6743     322.1876   1427.21741     428.6743     322.1876
   1427.20215     431.8112     324.3346   1427.20215     431.8112     324.3346
   1427.18689     433.9805     325.9779   1427.18689     433.9805     325.9779
   1427.17163     436.6569     327.6658   1427.17163     436.6569     327.6658
   1427.15637     439.1708     329.1443   1427.15637     439.1708     329.1443
   1427.14111     441.5987     331.1845   1427.14111     441.5987     331.1845
   1427.12585     444.2432     333.0763   1427.12585     444.2432     333.0763
   1427.11060     447.0243     335.2428   1427.11060     447.0243     335.2428
   1427.09534     450.2784     337.5204   1427.09534     450.2784     337.5204
   1427.08008     452.9625     338.3597   1427.08008     452.9625     338.3597
   1427.06482     455.5898     340.4522   1427.06482     455.5898     340.4522
   1427.04956     458.3528     342.2335   1427.04956     458.3528     342.2335
   1427.03430     461.6398     344.2236   1427.03430     461.6398     344.2236
   1427.01904     464.2584     346.4837   1427.01904     464.2584     346.4837
   1427.00378     467.8100     348.0555   1427.00378     467.8100     348.0555
   1426.98853     469.9123     350.0658   1426.98853     469.9123     350.0658
   1426.97327     473.3784     351.7444   1426.97327     473.3784     351.7444
   1426.95801     477.0954     354.1205   1426.95801     477.0954     354.1205
   1426.94275     479.9313     356.1606   1426.94275     479.9313     356.1606
   1426.92749     482.9323     358.1355   1426.92749     482.9323     358.1355
   1426.91223     485.5966     359.7718   1426.91223     485.5966     359.7718
   1426.89697     489.5854     361.4128   1426.89697     489.5854     361.4128
   1426.88171     491.9183     363.3874   1426.88171     491.9183     363.3874
   1426.86646     495.9579     365.4590   1426.86646     495.9579     365.4590
   1426.85120     499.4570     367.6999   1426.85120     499.4570     367.6999
   1426.83594     501.9261     369.4124   1426.83594     501.9261     369.4124
   1426.82068     504.5729     371.3273   1426.82068     504.5729     371.3273
   1426.80542     509.0719     372.5458   1426.80542     509.0719     372.5458
   1426.79016     512.0336     374.8865   1426.79016     512.0336     374.8865
   1426.77490     514.8030     377.5329   1426.77490     514.8030     377.5329
   1426.75964     518.1254     378.4009   1426.75964     518.1254     378.4009
   1426.74438     522.0991     379.9924   1426.74438     522.0991     379.9924
   1426.72913     525.0452     381.8254   1426.72913     525.0452     381.8254
   1426.71387     529.2218     384.0183   1426.71387     529.2218     384.0183
   1426.69861     531.6411     386.1468   1426.69861     531.6411     386.1468
   1426.68335     535.4683     388.1024   1426.68335     535.4683     388.1024
   1426.66809     538.6827     389.6994   1426.66809     538.6827     389.6994
   1426.65283     542.6346     391.0422   1426.65283     542.6346     391.0422
   1426.63757     545.8041     393.1288   1426.63757     545.8041     393.1288
   1426.62231     550.3724     395.2650   1426.62231     550.3724     395.2650
   1426.60706     553.3629     396.6903   1426.60706     553.3629     396.6903
   1426.59180     555.7585     398.6250   1426.59180     555.7585     398.6250
   1426.57654     558.6691     400.7777   1426.57654     558.6691     400.7777
   1426.56128     561.9858     401.8786   1426.56128     561.9858     401.8786
   1426.54602     565.7755     403.9592   1426.54602     565.7755     403.9592
   1426.53076     569.6150     405.8440   1426.53076     569.6150     405.8440
   1426.51550     572.3623     407.5086   1426.51550     572.3623     407.5086
   1426.50024     575.4702     408.8606   1426.50024     575.4702     408.8606
   1426.48499     579.5771     411.1482   1426.48499     579.5771     411.1482
   1426.46973     582.7734     412.5451   1426.46973     582.7734     412.5451
   1426.45447     586.0143     413.6873   1426.45447     586.0143     413.6873
   1426.43921     590.2493     415.6652   1426.43921     590.2493     415.6652
   1426.42395     592.7479     417.2115   1426.42395     592.7479     417.2115
   1426.40869     596.0648     418.3665   1426.40869     596.0648     418.3665
   1426.39343     600.6940     420.6951   1426.39343     600.6940     420.6951
   1426.37817     602.6415     421.6627   1426.37817     602.6415     421.6627
   1426.36292     606.0338     423.6662   1426.36292     606.0338     423.6662
   1426.34766     609.7642     425.2430   1426.34766     609.7642     425.2430
   1426.33240     613.2715     427.4007   1426.33240     613.2715     427.4007
   1426.31714     616.5744     428.2375   1426.31714     616.5744     428.2375
   1426.30188     618.8753     429.5041   1426.30188     618.8753     429.5041
   1426.28662     623.3646     431.8207   1426.28662     623.3646     431.8207
   1426.27136     626.5407     431.9099   1426.27136     626.5407     431.9099
   1426.25610     629.5251     433.6610   1426.25610     629.5251     433.6610
   1426.24084     633.6290     435.8610   1426.24084     633.6290     435.8610
   1426.22559     635.3752     437.1336   1426.22559     635.3752     437.1336
   1426.21033     637.6081     438.0453   1426.21033     637.6081     438.0453
   1426.19507     641.9940     440.2121   1426.19507     641.9940     440.2121
   1426.17981     644.5412     441.0424   1426.17981     644.5412     441.0424
   1426.16455     648.4215     441.8017   1426.16455     648.4215     441.8017
   1426.14929     651.2823     444.2034   1426.14929     651.2823     444.2034
   1426.13403     654.9161     444.4028   1426.13403     654.9161     444.4028
   1426.11877     657.8265     446.0700   1426.11877     657.8265     446.0700
   1426.10352     660.1754     448.0829   1426.10352     660.1754     448.0829
   1426.08826     663.1984     448.7689   1426.08826     663.1984     448.7689
   1426.07300     666.0931     449.9797   1426.07300     666.0931     449.9797
   1426.05774     670.1449     451.5090   1426.05774     670.1449     451.5090
   1426.04248     672.3918     453.4090   1426.04248     672.3918     453.4090
   1426.02722     675.8987     454.1108   1426.02722     675.8987     454.1108
   1426.01196     679.0110     455.1495   1426.01196     679.0110     455.1495
   1425.99670     680.9556     456.7233   1425.99670     680.9556     456.7233
   1425.98145     683.7880     458.1452   1425.98145     683.7880     458.1452
   1425.96619     687.0139     458.6838   1425.96619     687.0139     458.6838
   1425.95093     688.9555     459.4503   1425.95093     688.9555     459.4503
   1425.93567     691.8722     460.7349   1425.93567     691.8722     460.7349
   1425.92041     694.7172     462.0208   1425.92041     694.7172     462.0208
   1425.90515     697.5424     463.3902   1425.90515     697.5424     463.3902
   1425.88989     700.7958     464.1048   1425.88989     700.7958     464.1048
   1425.87463     702.4941     465.8480   1425.87463     702.4941     465.8480
   1425.85938     704.5755     466.6666   1425.85938     704.5755     466.6666
   1425.84412     708.5878     467.7458   1425.84412     708.5878     467.7458
   1425.82886     710.6489     468.6462   1425.82886     710.6489     468.6462
   1425.81360     713.4440     468.9809   1425.81360     713.4440     468.9809
   1425.79834     715.5292     470.4195   1425.79834     715.5292     470.4195
   1425.78308     717.5710     471.7578   1425.78308     717.5710     471.7578
   1425.76782     720.5259     471.2219   1425.76782     720.5259     471.2219
   1425.75256     722.1198     473.2759   1425.75256     722.1198     473.2759
   1425.73730     725.5821     474.2935   1425.73730     725.5821     474.2935
   1425.72205     727.7189     475.3606   1425.72205     727.7189     475.3606
   1425.70679     729.5294     475.8409   1425.70679     729.5294     475.8409
   1425.69153     731.6329     477.1239   1425.69153     731.6329     477.1239
   1425.67627     733.8945     477.0607   1425.67627     733.8945     477.0607
   1425.66101     735.4655     478.6680   1425.66101     735.4655     478.6680
   1425.64575     736.8311     479.5167   1425.64575     736.8311     479.5167
   1425.63049     738.8405     480.8578   1425.63049     738.8405     480.8578
   1425.61523     741.0152     482.2053   1425.61523     741.0152     482.2053
   1425.59998     743.2920     481.8549   1425.59998     743.2920     481.8549
   1425.58472     746.0917     482.8408   1425.58472     746.0917     482.8408
   1425.56946     748.0908     483.2253   1425.56946     748.0908     483.2253
   1425.55420     749.5464     485.0619   1425.55420     749.5464     485.0619
   1425.53894     751.3746     485.1534   1425.53894     751.3746     485.1534
   1425.52368     752.9225     485.3811   1425.52368     752.9225     485.3811
   1425.50842     755.2443     486.1497   1425.50842     755.2443     486.1497
   1425.49316     756.3682     486.8300   1425.49316     756.3682     486.8300
   1425.47791     757.6548     487.8166   1425.47791     757.6548     487.8166
   1425.46265     760.1627     489.0051   1425.46265     760.1627     489.0051
   1425.44739     761.0140     488.9817   1425.44739     761.0140     488.9817
   1425.43213     761.9716     488.8773   1425.43213     761.9716     488.8773
   1425.41687     765.1276     490.7102   1425.41687     765.1276     490.7102
   1425.40161     765.4393     490.9204   1425.40161     765.4393     490.9204
   1425.38635     767.6233     491.1563   1425.38635     767.6233     491.1563
   1425.37109     768.4966     492.0083   1425.37109     768.4966     492.0083
   1425.35583     769.9034     493.3270   1425.35583     769.9034     493.3270
   1425.34058     770.7650     493.8407   1425.34058     770.7650     493.8407
   1425.32532     772.9017     494.0387   1425.32532     772.9017     494.0387
   1425.31006     774.0781     494.1102   1425.31006     774.0781     494.1102
   1425.29480     773.5612     494.8586   1425.29480     773.5612     494.8586
   1425.27954     775.7657     495.6353   1425.27954     775.7657     495.6353
   1425.26428     777.3877     495.4149   1425.26428     777.3877     495.4149
   1425.24902     779.5067     496.4003   1425.24902     779.5067     496.4003
   1425.23376     779.5345     497.6491   1425.23376     779.5345     497.6491
   1425.21851     780.1823     497.0809   1425.21851     780.1823     497.0809
   1425.20325     782.7350     497.7357   1425.20325     782.7350     497.7357
   1425.18799     782.1252     499.0522   1425.18799     782.1252     499.0522
   1425.17273     783.5097     499.0154   1425.17273     783.5097     499.0154
   1425.15747     785.5240     499.9124   1425.15747     785.5240     499.9124
   1425.14221     785.5212     500.6679   1425.14221     785.5212     500.6679
   1425.12695     785.9552     500.7408   1425.12695     785.9552     500.7408
   1425.11169     787.4568     500.9339   1425.11169     787.4568     500.9339
   1425.09644     787.5627     501.0585   1425.09644     787.5627     501.0585
   1425.08118     788.9554     501.2808   1425.08118     788.9554     501.2808
   1425.06592     789.2963     501.7785   1425.06592     789.2963     501.7785
   1425.05066     789.7776     503.3294   1425.05066     789.7776     503.3294
   1425.03540     791.9346     503.3699   1425.03540     791.9346     503.3699
   1425.02014     790.1196     503.4388   1425.02014     790.1196     503.4388
   1425.00488     791.0759     503.8491   1425.00488     791.0759     503.8491
   1424.98962     794.3900     504.5576   1424.98962     794.3900     504.5576
   1424.97437     792.1053     505.5195   1424.97437     792.1053     505.5195
   1424.95911     793.7372     505.2540   1424.95911     793.7372     505.2540
   1424.94385     793.4028     505.0034   1424.94385     793.4028     505.0034
   1424.92859     794.3808     505.9745   1424.92859     794.3808     505.9745
   1424.91333     793.0786     506.4352   1424.91333     793.0786     506.4352
   1424.89807     794.4508     506.5319   1424.89807     794.4508     506.5319
   1424.88281     793.6758     507.2978   1424.88281     793.6758     507.2978
   1424.86755     795.0062     508.0875   1424.86755     795.0062     508.0875
   1424.85229     796.7023     507.7411   1424.85229     796.7023     507.7411
   1424.83704     795.7413     508.7172   1424.83704     795.7413     508.7172
   1424.82178     796.1738     509.0766   1424.82178     796.1738     509.0766
   1424.80652     796.1896     508.3909   1424.80652     796.1896     508.3909
   1424.79126     796.5854     508.6436   1424.79126     796.5854     508.6436
   1424.77600     797.4459     509.1056   1424.77600     797.4459     509.1056
   1424.76074     796.3982     509.9095   1424.76074     796.3982     509.9095
   1424.74548     796.0946     510.5398   1424.74548     796.0946     510.5398
   1424.73022     797.0342     510.4241   1424.73022     797.0342     510.4241
   1424.71497     797.0732     510.9889   1424.71497     797.0732     510.9889
   1424.69971     796.2716     510.9879   1424.69971     796.2716     510.9879
   1424.68445     796.5391     511.6941   1424.68445     796.5391     511.6941
   1424.66919     795.7319     511.3466   1424.66919     795.7319     511.3466
   1424.65393     795.6559     510.8581   1424.65393     795.6559     510.8581
   1424.63867     796.4290     511.7271   1424.63867     796.4290     511.7271
   1424.62341     796.7128     512.4298   1424.62341     796.7128     512.4298
   1424.60815     796.6852     512.8183   1424.60815     796.6852     512.8183
   1424.59290     795.6378     513.3461   1424.59290     795.6378     513.3461
   1424.57764     794.9751     514.1348   1424.57764     794.9751     514.1348
   1424.56238     796.2048     513.5219   1424.56238     796.2048     513.5219
   1424.54712     794.8557     513.8979   1424.54712     794.8557     513.8979
   1424.53186     794.2523     513.7882   1424.53186     794.2523     513.7882
   1424.51660     795.4429     513.6677   1424.51660     795.4429     513.6677
   1424.50134     793.1523     514.0411   1424.50134     793.1523     514.0411
   1424.48608     793.6127     514.0793   1424.48608     793.6127     514.0793
   1424.47083     793.8468     514.1486   1424.47083     793.8468     514.1486
   1424.45557     793.0204     514.8955   1424.45557     793.0204     514.8955
   1424.44031     793.1102     515.6038   1424.44031     793.1102     515.6038
   1424.42505     793.0267     515.6791   1424.42505     793.0267     515.6791
   1424.40979     791.8176     515.6876   1424.40979     791.8176     515.6876
   1424.39453     791.4739     515.9996   1424.39453     791.4739     515.9996
   1424.37927     791.5787     515.9864   1424.37927     791.5787     515.9864
   1424.36401     791.9095     515.5937   1424.36401     791.9095     515.5937
   1424.34875     790.9683     515.8904   1424.34875     790.9683     515.8904
   1424.33350     789.5145     516.0255   1424.33350     789.5145     516.0255
   1424.31824     790.3337     516.4869   1424.31824     790.3337     516.4869
   1424.30298     789.6948     516.7418   1424.30298     789.6948     516.7418
   1424.28772     789.2899     516.4913   1424.28772     789.2899     516.4913
   1424.27246     788.7424     516.8021   1424.27246     788.7424     516.8021
   1424.25720     787.3560     517.4526   1424.25720     787.3560     517.4526
   1424.24194     787.0421     516.7391   1424.24194     787.0421     516.7391
   1424.22668     787.8630     518.2468   1424.22668     787.8630     518.2468
   1424.21143     785.2699     518.3542   1424.21143     785.2699     518.3542
   1424.19617     785.0355     518.1455   1424.19617     785.0355     518.1455
   1424.18091     785.3608     517.3335   1424.18091     785.3608     517.3335
   1424.16565     783.9353     518.0676   1424.16565     783.9353     518.0676
   1424.15039     783.5963     517.7189   1424.15039     783.5963     517.7189
   1424.13513     783.1915     518.5972   1424.13513     783.1915     518.5972
   1424.11987     781.8447     518.5982   1424.11987     781.8447     518.5982
   1424.10461     781.4291     518.7558   1424.10461     781.4291     518.7558
   1424.08936     780.8671     518.0963   1424.08936     780.8671     518.0963
   1424.07410     781.0865     518.9702   1424.07410     781.0865     518.9702
   1424.05884     779.6515     518.4249   1424.05884     779.6515     518.4249
   1424.04358     778.2985     518.6742   1424.04358     778.2985     518.6742
   1424.02832     779.3343     517.9867   1424.02832     779.3343     517.9867
   1424.01306     777.2991     518.7839   1424.01306     777.2991     518.7839
   1423.99780     776.2081     519.4287   1423.99780     776.2081     519.4287
   1423.98254     776.5968     518.4970   1423.98254     776.5968     518.4970
   1423.96729     775.7862     518.1169   1423.96729     775.7862     518.1169
   1423.95203     774.3791     518.7935   1423.95203     774.3791     518.7935
   1423.93677     774.0732     518.4373   1423.93677     774.0732     518.4373
   1423.92151     773.5485     519.1954   1423.92151     773.5485     519.1954
   1423.90625     772.8220     518.2917   1423.90625     772.8220     518.2917
   1423.89099     772.1730     518.8719   1423.89099     772.1730     518.8719
   1423.87573     770.3345     519.0228   1423.87573     770.3345     519.0228
   1423.86047     770.2913     518.4509   1423.86047     770.2913     518.4509
   1423.84521     770.7504     518.4609   1423.84521     770.7504     518.4609
   1423.82996     768.6837     519.1537   1423.82996     768.6837     519.1537
   1423.81470     768.4299     518.6984   1423.81470     768.4299     518.6984
   1423.79944     765.9918     518.4300   1423.79944     765.9918     518.4300
   1423.78418     766.6581     518.9241   1423.78418     766.6581     518.9241
   1423.76892     764.5763     518.2761   1423.76892     764.5763     518.2761
   1423.75366     766.0424     518.6237   1423.75366     766.0424     518.6237
   1423.73840     764.4518     518.6414   1423.73840     764.4518     518.6414
   1423.72314     763.0350     518.7681   1423.72314     763.0350     518.7681
   1423.70789     763.3530     518.2578   1423.70789     763.3530     518.2578
   1423.69263     762.6143     518.5825   1423.69263     762.6143     518.5825
   1423.67737     761.4502     518.2216   1423.67737     761.4502     518.2216
   1423.66211     760.5716     517.8497   1423.66211     760.5716     517.8497
   1423.64685     760.8538     518.2706   1423.64685     760.8538     518.2706
   1423.63159     759.3540     518.2433   1423.63159     759.3540     518.2433
   1423.61633     758.3026     518.1301   1423.61633     758.3026     518.1301
   1423.60107     757.2745     517.5250   1423.60107     757.2745     517.5250
   1423.58582     756.9338     517.2576   1423.58582     756.9338     517.2576
   1423.57056     755.7446     517.0752   1423.57056     755.7446     517.0752
   1423.55530     754.7517     517.9865   1423.55530     754.7517     517.9865
   1423.54004     754.7818     516.6308   1423.54004     754.7818     516.6308
   1423.52478     753.7311     516.5467   1423.52478     753.7311     516.5467
   1423.50952     753.3940     517.6679   1423.50952     753.3940     517.6679
   1423.49426     752.0419     516.4194   1423.49426     752.0419     516.4194
   1423.47900     751.6699     516.4514   1423.47900     751.6699     516.4514
   1423.46375     750.9033     516.1192   1423.46375     750.9033     516.1192
   1423.44849     751.3902     515.8826   1423.44849     751.3902     515.8826
   1423.43323     750.3890     516.2504   1423.43323     750.3890     516.2504
   1423.41797     749.0833     515.2095   1423.41797     749.0833     515.2095
   1423.40271     748.4775     515.1915   1423.40271     748.4775     515.1915
   1423.38745     747.3851     514.8362   1423.38745     747.3851     514.8362
   1423.37219     748.2136     514.6847   1423.37219     748.2136     514.6847
   1423.35693     747.0553     514.8592   1423.35693     747.0553     514.8592
   1423.34167     744.7272     514.4364   1423.34167     744.7272     514.4364
   1423.32642     743.4315     514.2885   1423.32642     743.4315     514.2885
   1423.31116     744.7659     513.6933   1423.31116     744.7659     513.6933
   1423.29590     743.3994     513.2881   1423.29590     743.3994     513.2881
   1423.28064     743.6428     513.5233   1423.28064     743.6428     513.5233
   1423.26538     741.7817     513.2361   1423.26538     741.7817     513.2361
   1423.25012     742.5775     512.6736   1423.25012     742.5775     512.6736
   1423.23486     740.5024     512.5952   1423.23486     740.5024     512.5952
   1423.21960     739.4651     511.6015   1423.21960     739.4651     511.6015
   1423.20435     739.4420     510.9803   1423.20435     739.4420     510.9803
   1423.18909     739.1038     510.7803   1423.18909     739.1038     510.7803
   1423.17383     738.5469     510.5132   1423.17383     738.5469     510.5132
   1423.15857     738.7757     509.8385   1423.15857     738.7757     509.8385
   1423.14331     737.2454     510.2834   1423.14331     737.2454     510.2834
   1423.12805     735.8750     508.9470   1423.12805     735.8750     508.9470
   1423.11279     737.1258     508.7361   1423.11279     737.1258     508.7361
   1423.09753     735.9846     508.0114   1423.09753     735.9846     508.0114
   1423.08228     734.2570     508.3498   1423.08228     734.2570     508.3498
   1423.06702     734.4360     507.5011   1423.06702     734.4360     507.5011
   1423.05176     733.2241     507.8164   1423.05176     733.2241     507.8164
   1423.03650     733.0865     507.5117   1423.03650     733.0865     507.5117
   1423.02124     732.1786     506.9971   1423.02124     732.1786     506.9971
   1423.00598     732.3713     505.4127   1423.00598     732.3713     505.4127
   1422.99072     730.6714     504.7360   1422.99072     730.6714     504.7360
   1422.97546     731.7846     504.5202   1422.97546     731.7846     504.5202
   1422.96021     730.2122     504.4047   1422.96021     730.2122     504.4047
   1422.94495     729.5635     503.3920   1422.94495     729.5635     503.3920
   1422.92969     728.4361     502.8357   1422.92969     728.4361     502.8357
   1422.91443     728.2079     502.8430   1422.91443     728.2079     502.8430
   1422.89917     728.3917     501.0419   1422.89917     728.3917     501.0419
   1422.88391     727.3871     501.6321   1422.88391     727.3871     501.6321
   1422.86865     726.0887     500.7656   1422.86865     726.0887     500.7656
   1422.85339     726.2664     500.2231   1422.85339     726.2664     500.2231
   1422.83813     726.0333     498.9941   1422.83813     726.0333     498.9941
   1422.82288     726.2310     498.1539   1422.82288     726.2310     498.1539
   1422.80762     724.7023     498.6232   1422.80762     724.7023     498.6232
   1422.79236     725.3342     496.6927   1422.79236     725.3342     496.6927
   1422.77710     723.7839     497.5652   1422.77710     723.7839     497.5652
   1422.76184     723.8204     496.3622   1422.76184     723.8204     496.3622
   1422.74658     724.0793     495.4451   1422.74658     724.0793     495.4451
   1422.73132     722.1464     495.2039   1422.73132     722.1464     495.2039
   1422.71606     723.5084     494.1262   1422.71606     723.5084     494.1262
   1422.70081     721.5397     493.9560   1422.70081     721.5397     493.9560
   1422.68555     721.4643     493.6931   1422.68555     721.4643     493.6931
   1422.67029     721.4921     492.8239   1422.67029     721.4921     492.8239
   1422.65503     721.7379     492.7503   1422.65503     721.7379     492.7503
   1422.63977     721.1591     492.2018   1422.63977     721.1591     492.2018
   1422.62451     720.3993     490.4965   1422.62451     720.3993     490.4965
   1422.60925     719.8741     490.5664   1422.60925     719.8741     490.5664
   1422.59399     718.9890     488.6942   1422.59399     718.9890     488.6942
   1422.57874     719.3062     488.2748   1422.57874     719.3062     488.2748
   1422.56348     717.3289     487.7708   1422.56348     717.3289     487.7708
   1422.54822     718.5123     487.0388   1422.54822     718.5123     487.0388
   1422.53296     718.0394     485.9727   1422.53296     718.0394     485.9727
   1422.51770     718.2373     484.9330   1422.51770     718.2373     484.9330
   1422.50244     717.9156     484.1718   1422.50244     717.9156     484.1718
   1422.48718     716.2327     483.7167   1422.48718     716.2327     483.7167
   1422.47192     716.5586     482.6435   1422.47192     716.5586     482.6435
   1422.45667     716.2648     482.5596   1422.45667     716.2648     482.5596
   1422.44141     715.7155     480.9022   1422.44141     715.7155     480.9022
   1422.42615     715.6599     480.9384   1422.42615     715.6599     480.9384
   1422.41089     715.5195     479.5375   1422.41089     715.5195     479.5375
   1422.39563     716.0516     479.3423   1422.39563     716.0516     479.3423
   1422.38037     714.5364     478.3132   1422.38037     714.5364     478.3132
   1422.36511     714.1129     477.0310   1422.36511     714.1129     477.0310
   1422.34985     714.2422     476.3383   1422.34985     714.2422     476.3383
   1422.33459     714.4212     475.5051   1422.33459     714.4212     475.5051
   1422.31934     713.5859     474.5287   1422.31934     713.5859     474.5287
   1422.30408     714.2175     473.4582   1422.30408     714.2175     473.4582
   1422.28882     713.7264     472.5930   1422.28882     713.7264     472.5930
   1422.27356     712.9243     471.2395   1422.27356     712.9243     471.2395
   1422.25830     713.5806     471.3340   1422.25830     713.5806     471.3340
   1422.24304     713.1697     469.8887   1422.24304     713.1697     469.8887
   1422.22778     712.5848     468.9777   1422.22778     712.5848     468.9777
   1422.21252     712.3138     467.8503   1422.21252     712.3138     467.8503
   1422.19727     712.4857     466.6854   1422.19727     712.4857     466.6854
   1422.18201     711.2248     467.1598   1422.18201     711.2248     467.1598
   1422.16675     711.1981     465.1643   1422.16675     711.1981     465.1643
   1422.15149     711.3474     464.7804   1422.15149     711.3474     464.7804
   1422.13623     710.0997     463.7187   1422.13623     710.0997     463.7187
   1422.12097     710.9903     463.0613   1422.12097     710.9903     463.0613
   1422.10571     709.7373     461.7497   1422.10571     709.7373     461.7497
   1422.09045     710.6332     460.9211   1422.09045     710.6332     460.9211
   1422.07520     710.0837     459.6232   1422.07520     710.0837     459.6232
   1422.05994     709.6068     459.1452   1422.05994     709.6068     459.1452
   1422.04468     709.5837     457.5103   1422.04468     709.5837     457.5103
   1422.02942     709.5748     456.5868   1422.02942     709.5748     456.5868
   1422.01416     709.5121     455.5310   1422.01416     709.5121     455.5310
   1421.99890     712.6497     454.7969   1421.99890     712.6497     454.7969
   1421.98364     708.9786     454.1268   1421.98364     708.9786     454.1268
   1421.96838     707.7107     452.7718   1421.96838     707.7107     452.7718
   1421.95312     708.5866     451.7712   1421.95312     708.5866     451.7712
   1421.93787     707.9362     450.5910   1421.93787     707.9362     450.5910
   1421.92261     707.7936     449.9536   1421.92261     707.7936     449.9536
   1421.90735     707.5283     447.8768   1421.90735     707.5283     447.8768
   1421.89209     708.0085     448.0118   1421.89209     708.0085     448.0118
   1421.87683     707.1396     446.5472   1421.87683     707.1396     446.5472
   1421.86157     707.6607     446.2312   1421.86157     707.6607     446.2312
   1421.84631     707.9927     445.2758   1421.84631     707.9927     445.2758
   1421.83105     707.3035     444.5102   1421.83105     707.3035     444.5102
   1421.81580     706.7428     442.4370   1421.81580     706.7428     442.4370
   1421.80054     705.9004     441.7902   1421.80054     705.9004     441.7902
   1421.78528     705.7910     440.5483   1421.78528     705.7910     440.5483
   1421.77002     706.3281     438.9786   1421.77002     706.3281     438.9786
   1421.75476     706.5619     438.8969   1421.75476     706.5619     438.8969
   1421.73950     705.0273     438.2938   1421.73950     705.0273     438.2938
   1421.72424     705.0458     436.5143   1421.72424     705.0458     436.5143
   1421.70898     705.0859     436.3236   1421.70898     705.0859     436.3236
   1421.69373     705.0534     434.8231   1421.69373     705.0534     434.8231
   1421.67847     704.8043     433.4913   1421.67847     704.8043     433.4913
   1421.66321     704.5729     433.0216   1421.66321     704.5729     433.0216
   1421.64795     704.8870     431.7995   1421.64795     704.8870     431.7995
   1421.63269     704.2884     429.9455   1421.63269     704.2884     429.9455
   1421.61743     705.0953     429.1263   1421.61743     705.0953     429.1263
   1421.60217     703.5010     428.1711   1421.60217     703.5010     428.1711
   1421.58691     702.4892     427.1026   1421.58691     702.4892     427.1026
   1421.57166     703.3629     426.7433   1421.57166     703.3629     426.7433
   1421.55640     702.3669     425.5225   1421.55640     702.3669     425.5225
   1421.54114     702.7813     424.8294   1421.54114     702.7813     424.8294
   1421.52588     703.1835     422.9240   1421.52588     703.1835     422.9240
   1421.51062     702.6852     421.9781   1421.51062     702.6852     421.9781
   1421.49536     702.7164     421.1172   1421.49536     702.7164     421.1172
   1421.48010     703.6628     420.4003   1421.48010     703.6628     420.4003
   1421.46484     701.5413     419.0251   1421.46484     701.5413     419.0251
   1421.44958     702.2789     418.1263   1421.44958     702.2789     418.1263
   1421.43433     701.1512     416.8905   1421.43433     701.1512     416.8905
   1421.41907     701.8217     415.8353   1421.41907     701.8217     415.8353
   1421.40381     701.3621     415.1337   1421.40381     701.3621     415.1337
   1421.38855     700.7542     413.7907   1421.38855     700.7542     413.7907
   1421.37329     701.6673     413.1013   1421.37329     701.6673     413.1013
   1421.35803     700.6271     412.3504   1421.35803     700.6271     412.3504
   1421.34277     701.0560     411.1153   1421.34277     701.0560     411.1153
   1421.32751     700.2381     410.3308   1421.32751     700.2381     410.3308
   1421.31226     700.1249     408.8813   1421.31226     700.1249     408.8813
   1421.29700     701.2020     406.9131   1421.29700     701.2020     406.9131
   1421.28174     698.4720     406.9566   1421.28174     698.4720     406.9566
   1421.26648     700.8517     406.6845   1421.26648     700.8517     406.6845
   1421.25122     699.7106     405.2235   1421.25122     699.7106     405.2235
   1421.23596     699.2471     404.0566   1421.23596     699.2471     404.0566
   1421.22070     697.7819     403.4968   1421.22070     697.7819     403.4968
   1421.20544     698.7781     402.3249   1421.20544     698.7781     402.3249
   1421.19019     699.7413     401.2857   1421.19019     699.7413     401.2857
   1421.17493     697.8976     400.5351   1421.17493     697.8976     400.5351
   1421.15967     698.3052     399.1169   1421.15967     698.3052     399.1169
   1421.14441     698.2464     398.7236   1421.14441     698.2464     398.7236
   1421.12915     697.7325     397.0614   1421.12915     697.7325     397.0614
   1421.11389     698.3611     396.3823   1421.11389     698.3611     396.3823
   1421.09863     697.5096     395.6130   1421.09863     697.5096     395.6130
   1421.08337     696.7332     394.3307   1421.08337     696.7332     394.3307
   1421.06812     696.9115     393.2600   1421.06812     696.9115     393.2600
   1421.05286     695.4631     392.3905   1421.05286     695.4631     392.3905
   1421.03760     697.1913     391.9553   1421.03760     697.1913     391.9553
   1421.02234     696.5137     390.9205   1421.02234     696.5137     390.9205
   1421.00708     696.4402     390.0664   1421.00708     696.4402     390.0664
   1420.99182     695.3317     389.2854   1420.99182     695.3317     389.2854
   1420.97656     696.4143     387.5945   1420.97656     696.4143     387.5945
   1420.96130     696.6401     387.3202   1420.96130     696.6401     387.3202
   1420.94604     697.1974     386.0427   1420.94604     697.1974     386.0427
   1420.93079     697.1267     385.1628   1420.93079     697.1267     385.1628
   1420.91553     695.4221     384.7505   1420.91553     695.4221     384.7505
   1420.90027     696.1302     384.0206   1420.90027     696.1302     384.0206
   1420.88501     697.2894     383.5583   1420.88501     697.2894     383.5583
   1420.86975     696.6484     382.4424   1420.86975     696.6484     382.4424
   1420.85449     697.3951     381.6218   1420.85449     697.3951     381.6218
   1420.83923     696.6367     379.6948   1420.83923     696.6367     379.6948
   1420.82397     697.0244     380.1951   1420.82397     697.0244     380.1951
   1420.80872     696.7623     378.8563   1420.80872     696.7623     378.8563
   1420.79346     697.1500     378.5461   1420.79346     697.1500     378.5461
   1420.77820     698.2407     378.4442   1420.77820     698.2407     378.4442
   1420.76294     698.2176     377.9662   1420.76294     698.2176     377.9662
   1420.74768     698.7560     377.1726   1420.74768     698.7560     377.1726
   1420.73242     700.0104     377.1609   1420.73242     700.0104     377.1609
   1420.71716     701.7499     376.9919   1420.71716     701.7499     376.9919
   1420.70190     702.1275     376.5849   1420.70190     702.1275     376.5849
   1420.68665     703.1366     376.2747   1420.68665     703.1366     376.2747
   1420.67139     702.5870     375.2169   1420.67139     702.5870     375.2169
   1420.65613     701.9062     375.0505   1420.65613     701.9062     375.0505
   1420.64087     702.0043     373.7056   1420.64087     702.0043     373.7056
   1420.62561     701.6824     372.2820   1420.62561     701.6824     372.2820
   1420.61035     702.3890     371.9313   1420.61035     702.3890     371.9313
   1420.59509     701.2075     371.1712   1420.59509     701.2075     371.1712
   1420.57983     702.4078     371.1206   1420.57983     702.4078     371.1206
   1420.56458     703.3066     370.2976   1420.56458     703.3066     370.2976
   1420.54932     703.9669     369.9826   1420.54932     703.9669     369.9826
   1420.53406     704.7558     370.2971   1420.53406     704.7558     370.2971
   1420.51880     705.4122     369.1371   1420.51880     705.4122     369.1371
   1420.50354     705.7281     368.1386   1420.50354     705.7281     368.1386
   1420.48828     705.4752     368.8117   1420.48828     705.4752     368.8117
   1420.47302     705.2657     368.4092   1420.47302     705.2657     368.4092
   1420.45776     707.6637     368.6995   1420.45776     707.6637     368.6995
   1420.44250     714.4820     370.8409   1420.44250     714.4820     370.8409
   1420.42725     718.0085     372.7280   1420.42725     718.0085     372.7280
   1420.41199     717.3531     371.1248   1420.41199     717.3531     371.1248
   1420.39673     718.0231     370.9961   1420.39673     718.0231     370.9961
   1420.38147     725.5526     373.8876   1420.38147     725.5526     373.8876
   1420.36621     742.0706     380.6024   1420.36621     742.0706     380.6024
   1420.35095     777.9036     397.2353   1420.35095     777.9036     397.2353
   1420.33569     853.3896     434.4884   1420.33569     853.3896     434.4884
   1420.32043    1048.3892     528.3163   1420.32043    1048.3892     528.3163
   1420.30518    1407.8276     704.6718   1420.30518    1407.8276     704.6718
   1420.28992    1734.0951     864.8239   1420.28992    1734.0951     864.8239
   1420.27466    1999.2830     992.5755   1420.27466    1999.2830     992.5755
   1420.25940    2292.3831    1137.2667   1420.25940    2292.3831    1137.2667
   1420.24414    2650.7285    1309.1675   1420.24414    2650.7285    1309.1675
   1420.22888    2638.6052    1297.6967   1420.22888    2638.6052    1297.6967
   1420.21362    2584.4731    1271.7678   1420.21362    2584.4731    1271.7678
   1420.19836    2546.4216    1250.2482   1420.19836    2546.4216    1250.2482
   1420.18311    2358.9417    1157.9290   1420.18311    2358.9417    1157.9290
   1420.16785    2110.4763    1034.4990   1420.16785    2110.4763    1034.4990
   1420.15259    1709.3215     840.4397   1420.15259    1709.3215     840.4397
   1420.13733    1276.3395     628.9622   1420.13733    1276.3395     628.9622
   1420.12207     986.6431     488.9423   1420.12207     986.6431     488.9423
   1420.10681     842.8479     420.2357   1420.10681     842.8479     420.2357
   1420.09155     769.6014     384.7848   1420.09155     769.6014     384.7848
   1420.07629     733.5763     366.3619   1420.07629     733.5763     366.3619
   1420.06104     713.8657     356.7863   1420.06104     713.8657     356.7863
   1420.04578     703.2549     352.0601   1420.04578     703.2549     352.0601
   1420.03052     697.1063     348.1536   1420.03052     697.1063     348.1536
   1420.01526     695.2645     346.8675   1420.01526     695.2645     346.8675
   1420.00000     694.8223     346.0428   1420.00000     694.8223     346.0428
   1419.98474     694.3801     345.2180   1419.98474     694.3801     345.2180
   1419.96948     689.5875     342.7707   1419.96948     689.5875     342.7707
   1419.95422     689.7322     341.7463   1419.95422     689.7322     341.7463
   1419.93896     688.0746     341.3316   1419.93896     688.0746     341.3316
   1419.92371     687.7161     340.7813   1419.92371     687.7161     340.7813
   1419.90845     687.6552     339.4879   1419.90845     687.6552     339.4879
   1419.89319     687.2516     339.7920   1419.89319     687.2516     339.7920
   1419.87793     686.3591     339.3710   1419.87793     686.3591     339.3710
   1419.86267     686.0510     338.8641   1419.86267     686.0510     338.8641
   1419.84741     686.3254     337.9717   1419.84741     686.3254     337.9717
   1419.83215     685.8518     337.2044   1419.83215     685.8518     337.2044
   1419.81689     686.0590     337.7568   1419.81689     686.0590     337.7568
   1419.80164     686.7922     337.4000   1419.80164     686.7922     337.4000
   1419.78638     686.3589     336.2473   1419.78638     686.3589     336.2473
   1419.77112     687.7379     336.1607   1419.77112     687.7379     336.1607
   1419.75586     686.3007     335.8614   1419.75586     686.3007     335.8614
   1419.74060     684.9682     335.6129   1419.74060     684.9682     335.6129
   1419.72534     685.4825     335.1314   1419.72534     685.4825     335.1314
   1419.71008     686.8984     334.8869   1419.71008     686.8984     334.8869
   1419.69482     685.9998     334.8886   1419.69482     685.9998     334.8886
   1419.67957     687.0358     334.2529   1419.67957     687.0358     334.2529
   1419.66431     687.2812     334.0157   1419.66431     687.2812     334.0157
   1419.64905     687.1000     333.2281   1419.64905     687.1000     333.2281
   1419.63379     687.2890     333.0077   1419.63379     687.2890     333.0077
   1419.61853     685.8864     333.2904   1419.61853     685.8864     333.2904
   1419.60327     687.2248     333.3065   1419.60327     687.2248     333.3065
   1419.58801     686.5618     333.2739   1419.58801     686.5618     333.2739
   1419.57275     687.0898     332.6099   1419.57275     687.0898     332.6099
   1419.55750     687.7193     332.0574   1419.55750     687.7193     332.0574
   1419.54224     688.4219     332.0421   1419.54224     688.4219     332.0421
   1419.52698     688.7828     332.1597   1419.52698     688.7828     332.1597
   1419.51172     687.5430     332.7570   1419.51172     687.5430     332.7570
   1419.49646     688.3259     332.2001   1419.49646     688.3259     332.2001
   1419.48120     689.0217     332.0895   1419.48120     689.0217     332.0895
   1419.46594     689.4170     331.7448   1419.46594     689.4170     331.7448
   1419.45068     689.8955     331.2045   1419.45068     689.8955     331.2045
   1419.43542     689.9324     331.9195   1419.43542     689.9324     331.9195
   1419.42017     689.3801     331.6392   1419.42017     689.3801     331.6392
   1419.40491     690.0375     331.4214   1419.40491     690.0375     331.4214
   1419.38965     689.9504     331.4092   1419.38965     689.9504     331.4092
   1419.37439     690.8190     331.3657   1419.37439     690.8190     331.3657
   1419.35913     689.6702     331.1955   1419.35913     689.6702     331.1955
   1419.34387     691.1277     331.4856   1419.34387     691.1277     331.4856
   1419.32861     691.2377     331.8562   1419.32861     691.2377     331.8562
   1419.31335     692.1141     331.1300   1419.31335     692.1141     331.1300
   1419.29810     691.3882     331.5704   1419.29810     691.3882     331.5704
   1419.28284     691.5441     331.6058   1419.28284     691.5441     331.6058
   1419.26758     691.9427     331.5482   1419.26758     691.9427     331.5482
   1419.25232     692.1469     331.3300   1419.25232     692.1469     331.3300
   1419.23706     693.3203     331.6003   1419.23706     693.3203     331.6003
   1419.22180     693.1527     331.9317   1419.22180     693.1527     331.9317
   1419.20654     693.1385     331.5488   1419.20654     693.1385     331.5488
   1419.19128     694.0444     332.4115   1419.19128     694.0444     332.4115
   1419.17603     693.6468     332.2392   1419.17603     693.6468     332.2392
   1419.16077     694.6129     332.3562   1419.16077     694.6129     332.3562
   1419.14551     695.3423     332.0253   1419.14551     695.3423     332.0253
   1419.13025     695.0620     332.1925   1419.13025     695.0620     332.1925
   1419.11499     695.9076     332.2977   1419.11499     695.9076     332.2977
   1419.09973     695.2587     332.8656   1419.09973     695.2587     332.8656
   1419.08447     697.1873     332.3716   1419.08447     697.1873     332.3716
   1419.06921     696.4193     332.8708   1419.06921     696.4193     332.8708
   1419.05396     697.0062     332.9125   1419.05396     697.0062     332.9125
   1419.03870     697.7874     333.0535   1419.03870     697.7874     333.0535
   1419.02344     698.2234     333.8035   1419.02344     698.2234     333.8035
   1419.00818     697.7028     333.6413   1419.00818     697.7028     333.6413
   1418.99292     698.4261     333.8288   1418.99292     698.4261     333.8288
   1418.97766     699.9945     334.0476   1418.97766     699.9945     334.0476
   1418.96240     700.1906     334.3681   1418.96240     700.1906     334.3681
   1418.94714     700.1993     334.8987   1418.94714     700.1993     334.8987
   1418.93188     699.3312     335.0102   1418.93188     699.3312     335.0102
   1418.91663     701.5947     335.3449   1418.91663     701.5947     335.3449
   1418.90137     701.5635     335.5538   1418.90137     701.5635     335.5538
   1418.88611     701.3142     335.8941   1418.88611     701.3142     335.8941
   1418.87085     703.3434     336.3279   1418.87085     703.3434     336.3279
   1418.85559     702.7196     336.2243   1418.85559     702.7196     336.2243
   1418.84033     702.7622     337.0123   1418.84033     702.7622     337.0123
   1418.82507     704.0240     337.4394   1418.82507     704.0240     337.4394
   1418.80981     704.6907     337.4281   1418.80981     704.6907     337.4281
   1418.79456     706.4708     337.9909   1418.79456     706.4708     337.9909
   1418.77930     706.5848     337.8720   1418.77930     706.5848     337.8720
   1418.76404     705.8003     338.7161   1418.76404     705.8003     338.7161
   1418.74878     707.1147     338.8010   1418.74878     707.1147     338.8010
   1418.73352     707.7360     339.2481   1418.73352     707.7360     339.2481
   1418.71826     707.4635     339.8042   1418.71826     707.4635     339.8042
   1418.70300     708.7354     340.4058   1418.70300     708.7354     340.4058
   1418.68774     708.6208     341.0385   1418.68774     708.6208     341.0385
   1418.67249     709.1279     341.1291   1418.67249     709.1279     341.1291
   1418.65723     710.5118     341.5540   1418.65723     710.5118     341.5540
   1418.64197     709.4180     341.8002   1418.64197     709.4180     341.8002
   1418.62671     712.0370     342.6106   1418.62671     712.0370     342.6106
   1418.61145     712.2546     343.2562   1418.61145     712.2546     343.2562
   1418.59619     712.0204     343.2950   1418.59619     712.0204     343.2950
   1418.58093     712.3060     344.1645   1418.58093     712.3060     344.1645
   1418.56567     713.7023     344.0786   1418.56567     713.7023     344.0786
   1418.55042     715.1831     345.1828   1418.55042     715.1831     345.1828
   1418.53516     716.0436     345.1253   1418.53516     716.0436     345.1253
   1418.51990     716.0447     345.8894   1418.51990     716.0447     345.8894
   1418.50464     716.9138     346.5021   1418.50464     716.9138     346.5021
   1418.48938     715.6718     347.1955   1418.48938     715.6718     347.1955
   1418.47412     716.7708     347.6933   1418.47412     716.7708     347.6933
   1418.45886     718.0283     348.1919   1418.45886     718.0283     348.1919
   1418.44360     719.5181     348.5831   1418.44360     719.5181     348.5831
   1418.42834     719.7840     349.8459   1418.42834     719.7840     349.8459
   1418.41309     720.7205     350.3753   1418.41309     720.7205     350.3753
   1418.39783     721.2499     351.1310   1418.39783     721.2499     351.1310
   1418.38257     721.2654     351.6664   1418.38257     721.2654     351.6664
   1418.36731     723.1172     352.3275   1418.36731     723.1172     352.3275
   1418.35205     722.5563     353.0706   1418.35205     722.5563     353.0706
   1418.33679     723.3052     354.3485   1418.33679     723.3052     354.3485
   1418.32153     723.8721     354.4582   1418.32153     723.8721     354.4582
   1418.30627     725.2837     354.3306   1418.30627     725.2837     354.3306
   1418.29102     726.4730     356.2497   1418.29102     726.4730     356.2497
   1418.27576     727.2007     356.5996   1418.27576     727.2007     356.5996
   1418.26050     726.9587     357.2360   1418.26050     726.9587     357.2360
   1418.24524     728.5752     357.9454   1418.24524     728.5752     357.9454
   1418.22998     727.6282     358.1245   1418.22998     727.6282     358.1245
   1418.21472     728.6020     359.9361   1418.21472     728.6020     359.9361
   1418.19946     729.5972     359.9545   1418.19946     729.5972     359.9545
   1418.18420     730.3392     360.9862   1418.18420     730.3392     360.9862
   1418.16895     731.3954     361.1638   1418.16895     731.3954     361.1638
   1418.15369     732.9332     361.9708   1418.15369     732.9332     361.9708
   1418.13843     733.6565     363.0629   1418.13843     733.6565     363.0629
   1418.12317     734.3522     363.5910   1418.12317     734.3522     363.5910
   1418.10791     734.0729     364.7140   1418.10791     734.0729     364.7140
   1418.09265     734.3577     365.4088   1418.09265     734.3577     365.4088
   1418.07739     735.6464     366.2332   1418.07739     735.6464     366.2332
   1418.06213     736.6030     367.5965   1418.06213     736.6030     367.5965
   1418.04688     737.7329     367.9337   1418.04688     737.7329     367.9337
   1418.03162     738.5742     369.1712   1418.03162     738.5742     369.1712
   1418.01636     739.6466     369.4542   1418.01636     739.6466     369.4542
   1418.00110     740.1155     370.9538   1418.00110     740.1155     370.9538
   1417.98584     740.5746     371.2053   1417.98584     740.5746     371.2053
   1417.97058     740.7304     372.7405   1417.97058     740.7304     372.7405
   1417.95532     742.1544     372.8843   1417.95532     742.1544     372.8843
   1417.94006     742.0140     374.6035   1417.94006     742.0140     374.6035
   1417.92480     744.8324     375.3642   1417.92480     744.8324     375.3642
   1417.90955     744.7570     376.3760   1417.90955     744.7570     376.3760
   1417.89429     745.4797     377.3958   1417.89429     745.4797     377.3958
   1417.87903     746.6097     377.9703   1417.87903     746.6097     377.9703
   1417.86377     746.4665     379.2848   1417.86377     746.4665     379.2848
   1417.84851     747.5703     380.8826   1417.84851     747.5703     380.8826
   1417.83325     749.7919     381.1838   1417.83325     749.7919     381.1838
   1417.81799     750.4603     382.5341   1417.81799     750.4603     382.5341
   1417.80273     750.2831     383.5770   1417.80273     750.2831     383.5770
   1417.78748     751.5050     383.7915   1417.78748     751.5050     383.7915
   1417.77222     752.1656     385.1196   1417.77222     752.1656     385.1196
   1417.75696     753.4265     386.1072   1417.75696     753.4265     386.1072
   1417.74170     754.2188     386.8555   1417.74170     754.2188     386.8555
   1417.72644     754.0961     388.1773   1417.72644     754.0961     388.1773
   1417.71118     755.5475     389.4623   1417.71118     755.5475     389.4623
   1417.69592     755.9744     390.5245   1417.69592     755.9744     390.5245
   1417.68066     757.7640     391.9641   1417.68066     757.7640     391.9641
   1417.66541     757.6373     392.6933   1417.66541     757.6373     392.6933
   1417.65015     759.3022     393.6733   1417.65015     759.3022     393.6733
   1417.63489     759.9219     393.8841   1417.63489     759.9219     393.8841
   1417.61963     760.3434     395.6498   1417.61963     760.3434     395.6498
   1417.60437     763.0091     396.5486   1417.60437     763.0091     396.5486
   1417.58911     761.9744     397.7566   1417.58911     761.9744     397.7566
   1417.57385     763.2325     399.3443   1417.57385     763.2325     399.3443
   1417.55859     764.9922     400.1727   1417.55859     764.9922     400.1727
   1417.54333     765.2812     401.6703   1417.54333     765.2812     401.6703
   1417.52808     766.6282     402.5352   1417.52808     766.6282     402.5352
   1417.51282     766.3742     403.4607   1417.51282     766.3742     403.4607
   1417.49756     768.0327     403.9590   1417.49756     768.0327     403.9590
   1417.48230     769.0264     405.6955   1417.48230     769.0264     405.6955
   1417.46704     769.1619     406.9738   1417.46704     769.1619     406.9738
   1417.45178     770.2654     407.8026   1417.45178     770.2654     407.8026
   1417.43652     771.1176     409.7307   1417.43652     771.1176     409.7307
   1417.42126     772.8311     410.7907   1417.42126     772.8311     410.7907
   1417.40601     773.3084     411.8676   1417.40601     773.3084     411.8676
   1417.39075     773.0161     413.0092   1417.39075     773.0161     413.0092
   1417.37549     775.4685     414.1126   1417.37549     775.4685     414.1126
   1417.36023     775.3530     414.9295   1417.36023     775.3530     414.9295
   1417.34497     777.0056     416.7985   1417.34497     777.0056     416.7985
   1417.32971     778.4536     417.8963   1417.32971     778.4536     417.8963
   1417.31445     779.1764     419.0367   1417.31445     779.1764     419.0367
   1417.29919     778.7334     419.6365   1417.29919     778.7334     419.6365
   1417.28394     779.7887     420.9992   1417.28394     779.7887     420.9992
   1417.26868     781.2766     422.4261   1417.26868     781.2766     422.4261
   1417.25342     779.7547     422.7049   1417.25342     779.7547     422.7049
   1417.23816     782.4494     424.4695   1417.23816     782.4494     424.4695
   1417.22290     782.9065     426.0379   1417.22290     782.9065     426.0379
   1417.20764     782.9009     427.4612   1417.20764     782.9009     427.4612
   1417.19238     784.9446     428.8856   1417.19238     784.9446     428.8856
   1417.17712     785.4460     428.8791   1417.17712     785.4460     428.8791
   1417.16187     786.4184     429.7989   1417.16187     786.4184     429.7989
   1417.14661     786.1074     432.2112   1417.14661     786.1074     432.2112
   1417.13135     786.6785     432.0523   1417.13135     786.6785     432.0523
   1417.11609     787.6928     432.5985   1417.11609     787.6928     432.5985
   1417.10083     789.0278     434.6874   1417.10083     789.0278     434.6874
   1417.08557     790.6071     437.3116   1417.08557     790.6071     437.3116
   1417.07031     789.7372     436.8247   1417.07031     789.7372     436.8247
   1417.05505     791.9188     437.6779   1417.05505     791.9188     437.6779
   1417.03979     792.6160     439.8069   1417.03979     792.6160     439.8069
   1417.02454     793.1425     440.4722   1417.02454     793.1425     440.4722
   1417.00928     794.2726     441.7078   1417.00928     794.2726     441.7078
   1416.99402     793.5148     443.1230   1416.99402     793.5148     443.1230
   1416.97876     794.6633     443.4310   1416.97876     794.6633     443.4310
   1416.96350     795.2896     445.2798   1416.96350     795.2896     445.2798
   1416.94824     796.2211     446.6724   1416.94824     796.2211     446.6724
   1416.93298     796.5923     446.9809   1416.93298     796.5923     446.9809
   1416.91772     797.0432     448.0309   1416.91772     797.0432     448.0309
   1416.90247     798.3666     448.8051   1416.90247     798.3666     448.8051
   1416.88721     798.6579     450.8498   1416.88721     798.6579     450.8498
   1416.87195     798.5964     451.0684   1416.87195     798.5964     451.0684
   1416.85669     799.0209     452.7670   1416.85669     799.0209     452.7670
   1416.84143     800.1197     453.0090   1416.84143     800.1197     453.0090
   1416.82617     800.0113     453.4925   1416.82617     800.0113     453.4925
   1416.81091     801.0035     455.8521   1416.81091     801.0035     455.8521
   1416.79565     801.2995     454.9166   1416.79565     801.2995     454.9166
   1416.78040     801.9215     456.7485   1416.78040     801.9215     456.7485
   1416.76514     803.1324     458.0785   1416.76514     803.1324     458.0785
   1416.74988     803.6093     458.1402   1416.74988     803.6093     458.1402
   1416.73462     804.1147     459.0104   1416.73462     804.1147     459.0104
   1416.71936     804.0950     460.3708   1416.71936     804.0950     460.3708
   1416.70410     804.4742     460.8961   1416.70410     804.4742     460.8961
   1416.68884     804.7665     462.0446   1416.68884     804.7665     462.0446
   1416.67358     805.1811     462.0620   1416.67358     805.1811     462.0620
   1416.65833     806.3868     464.0117   1416.65833     806.3868     464.0117
   1416.64307     805.3404     463.8503   1416.64307     805.3404     463.8503
   1416.62781     806.5222     464.4883   1416.62781     806.5222     464.4883
   1416.61255     806.0755     464.8040   1416.61255     806.0755     464.8040
   1416.59729     807.5898     466.2614   1416.59729     807.5898     466.2614
   1416.58203     805.8102     466.4861   1416.58203     805.8102     466.4861
   1416.56677     807.3170     466.9663   1416.56677     807.3170     466.9663
   1416.55151     806.1512     468.3580   1416.55151     806.1512     468.3580
   1416.53625     808.7175     468.3331   1416.53625     808.7175     468.3331
   1416.52100     809.0015     468.3954   1416.52100     809.0015     468.3954
   1416.50574     808.5629     470.0008   1416.50574     808.5629     470.0008
   1416.49048     809.4601     469.1290   1416.49048     809.4601     469.1290
   1416.47522     809.4309     470.1982   1416.47522     809.4309     470.1982
   1416.45996     807.8027     470.9545   1416.45996     807.8027     470.9545
   1416.44470     809.5424     471.7095   1416.44470     809.5424     471.7095
   1416.42944     808.4443     471.1379   1416.42944     808.4443     471.1379
   1416.41418     809.1361     471.7134   1416.41418     809.1361     471.7134
   1416.39893     808.2151     472.1546   1416.39893     808.2151     472.1546
   1416.38367     809.0467     472.0940   1416.38367     809.0467     472.0940
   1416.36841     808.8502     473.0211   1416.36841     808.8502     473.0211
   1416.35315     809.2337     473.2721   1416.35315     809.2337     473.2721
   1416.33789     808.9199     473.2732   1416.33789     808.9199     473.2732
   1416.32263     809.9501     473.0657   1416.32263     809.9501     473.0657
   1416.30737     809.4268     473.6752   1416.30737     809.4268     473.6752
   1416.29211     808.3167     474.3897   1416.29211     808.3167     474.3897
   1416.27686     809.9515     474.7136   1416.27686     809.9515     474.7136
   1416.26160     809.9866     474.8629   1416.26160     809.9866     474.8629
   1416.24634     808.2468     474.2078   1416.24634     808.2468     474.2078
   1416.23108     808.6285     473.8372   1416.23108     808.6285     473.8372
   1416.21582     808.5921     473.9120   1416.21582     808.5921     473.9120
   1416.20056     807.0495     474.9024   1416.20056     807.0495     474.9024
   1416.18530     806.5369     474.9075   1416.18530     806.5369     474.9075
   1416.17004     807.2377     474.3506   1416.17004     807.2377     474.3506
   1416.15479     807.1332     474.9073   1416.15479     807.1332     474.9073
   1416.13953     806.2124     475.2351   1416.13953     806.2124     475.2351
   1416.12427     805.6053     474.5896   1416.12427     805.6053     474.5896
   1416.10901     806.4694     475.1235   1416.10901     806.4694     475.1235
   1416.09375     805.4879     475.3698   1416.09375     805.4879     475.3698
   1416.07849     805.1349     475.4006   1416.07849     805.1349     475.4006
   1416.06323     805.6808     474.8498   1416.06323     805.6808     474.8498
   1416.04797     805.2269     474.8650   1416.04797     805.2269     474.8650
   1416.03271     804.1423     474.7207   1416.03271     804.1423     474.7207
   1416.01746     804.1353     474.2039   1416.01746     804.1353     474.2039
   1416.00220     803.2753     474.7880   1416.00220     803.2753     474.7880
   1415.98694     803.6536     474.3791   1415.98694     803.6536     474.3791
   1415.97168     802.5377     474.5455   1415.97168     802.5377     474.5455
   1415.95642     802.7298     473.8253   1415.95642     802.7298     473.8253
   1415.94116     802.0472     473.4423   1415.94116     802.0472     473.4423
   1415.92590     801.3066     473.7996   1415.92590     801.3066     473.7996
   1415.91064     801.8076     473.1179   1415.91064     801.8076     473.1179
   1415.89539     799.6876     473.1837   1415.89539     799.6876     473.1837
   1415.88013     800.1569     473.4247   1415.88013     800.1569     473.4247
   1415.86487     799.7952     472.3853   1415.86487     799.7952     472.3853
   1415.84961     797.7104     472.8089   1415.84961     797.7104     472.8089
   1415.83435     798.7920     473.1888   1415.83435     798.7920     473.1888
   1415.81909     796.9854     471.5557   1415.81909     796.9854     471.5557
   1415.80383     796.6186     471.4185   1415.80383     796.6186     471.4185
   1415.78857     797.1362     471.8605   1415.78857     797.1362     471.8605
   1415.77332     796.9207     470.6460   1415.77332     796.9207     470.6460
   1415.75806     795.6752     470.3800   1415.75806     795.6752     470.3800
   1415.74280     794.5640     470.8049   1415.74280     794.5640     470.8049
   1415.72754     793.6364     469.9864   1415.72754     793.6364     469.9864
   1415.71228     792.3159     470.0477   1415.71228     792.3159     470.0477
   1415.69702     792.4639     469.9419   1415.69702     792.4639     469.9419
   1415.68176     791.7743     468.7121   1415.68176     791.7743     468.7121
   1415.66650     790.6934     468.0867   1415.66650     790.6934     468.0867
   1415.65125     789.7758     468.7818   1415.65125     789.7758     468.7818
   1415.63599     788.8923     468.0186   1415.63599     788.8923     468.0186
   1415.62073     788.9327     467.6285   1415.62073     788.9327     467.6285
   1415.60547     787.9999     467.2119   1415.60547     787.9999     467.2119
   1415.59021     787.5278     466.1024   1415.59021     787.5278     466.1024
   1415.57495     786.1795     466.2253   1415.57495     786.1795     466.2253
   1415.55969     785.7278     465.4103   1415.55969     785.7278     465.4103
   1415.54443     783.4269     466.0216   1415.54443     783.4269     466.0216
   1415.52917     783.0305     464.5594   1415.52917     783.0305     464.5594
   1415.51392     783.2159     464.2161   1415.51392     783.2159     464.2161
   1415.49866     782.3414     464.6976   1415.49866     782.3414     464.6976
   1415.48340     779.8532     463.5402   1415.48340     779.8532     463.5402
   1415.46814     779.8842     462.7349   1415.46814     779.8842     462.7349
   1415.45288     779.4122     462.3006   1415.45288     779.4122     462.3006
   1415.43762     776.5942     461.4523   1415.43762     776.5942     461.4523
   1415.42236     776.7078     461.1688   1415.42236     776.7078     461.1688
   1415.40710     775.1473     460.2177   1415.40710     775.1473     460.2177
   1415.39185     773.4297     460.7832   1415.39185     773.4297     460.7832
   1415.37659     774.2578     459.5498   1415.37659     774.2578     459.5498
   1415.36133     772.2094     458.5717   1415.36133     772.2094     458.5717
   1415.34607     771.9911     457.6815   1415.34607     771.9911     457.6815
   1415.33081     770.4231     458.1680   1415.33081     770.4231     458.1680
   1415.31555     769.1929     456.5608   1415.31555     769.1929     456.5608
   1415.30029     768.5786     456.7175   1415.30029     768.5786     456.7175
   1415.28503     766.1425     455.0333   1415.28503     766.1425     455.0333
   1415.26978     765.1879     455.3481   1415.26978     765.1879     455.3481
   1415.25452     764.8392     454.1436   1415.25452     764.8392     454.1436
   1415.23926     762.6493     454.0593   1415.23926     762.6493     454.0593
   1415.22400     761.4844     453.2837   1415.22400     761.4844     453.2837
   1415.20874     761.2278     452.3457   1415.20874     761.2278     452.3457
   1415.19348     759.8502     452.4419   1415.19348     759.8502     452.4419
   1415.17822     759.5392     451.3430   1415.17822     759.5392     451.3430
   1415.16296     756.6467     450.3634   1415.16296     756.6467     450.3634
   1415.14771     755.3257     449.5298   1415.14771     755.3257     449.5298
   1415.13245     752.5681     449.3990   1415.13245     752.5681     449.3990
   1415.11719     752.8084     448.2896   1415.11719     752.8084     448.2896
   1415.10193     751.9620     447.3028   1415.10193     751.9620     447.3028
   1415.08667     749.0645     446.7632   1415.08667     749.0645     446.7632
   1415.07141     749.1853     445.2603   1415.07141     749.1853     445.2603
   1415.05615     746.7562     444.6245   1415.05615     746.7562     444.6245
   1415.04089     745.8770     443.9560   1415.04089     745.8770     443.9560
   1415.02563     744.6495     443.1965   1415.02563     744.6495     443.1965
   1415.01038     743.2925     442.9126   1415.01038     743.2925     442.9126
   1414.99512     741.1339     441.6192   1414.99512     741.1339     441.6192
   1414.97986     738.9562     440.8298   1414.97986     738.9562     440.8298
   1414.96460     738.4379     440.0632   1414.96460     738.4379     440.0632
   1414.94934     736.4597     439.2765   1414.94934     736.4597     439.2765
   1414.93408     733.5206     438.1270   1414.93408     733.5206     438.1270
   1414.91882     734.1335     436.5250   1414.91882     734.1335     436.5250
   1414.90356     731.6837     435.9467   1414.90356     731.6837     435.9467
   1414.88831     729.2007     435.0110   1414.88831     729.2007     435.0110
   1414.87305     728.6129     433.7154   1414.87305     728.6129     433.7154
   1414.85779     726.8516     432.9501   1414.85779     726.8516     432.9501
   1414.84253     723.8157     432.8923   1414.84253     723.8157     432.8923
   1414.82727     723.5770     430.8507   1414.82727     723.5770     430.8507
   1414.81201     721.6085     431.1034   1414.81201     721.6085     431.1034
   1414.79675     719.2527     429.2177   1414.79675     719.2527     429.2177
   1414.78149     717.9114     428.4649   1414.78149     717.9114     428.4649
   1414.76624     716.5115     426.8677   1414.76624     716.5115     426.8677
   1414.75098     714.6577     425.5732   1414.75098     714.6577     425.5732
   1414.73572     712.4867     424.9168   1414.73572     712.4867     424.9168
   1414.72046     709.7782     423.4471   1414.72046     709.7782     423.4471
   1414.70520     708.3580     422.4017   1414.70520     708.3580     422.4017
   1414.68994     705.7861     421.3458   1414.68994     705.7861     421.3458
   1414.67468     703.9623     419.8958   1414.67468     703.9623     419.8958
   1414.65942     702.8358     418.9289   1414.65942     702.8358     418.9289
   1414.64417     700.1830     417.7331   1414.64417     700.1830     417.7331
   1414.62891     698.3057     416.3852   1414.62891     698.3057     416.3852
   1414.61365     696.0864     416.1696   1414.61365     696.0864     416.1696
   1414.59839     693.8076     414.1153   1414.59839     693.8076     414.1153
   1414.58313     693.3484     413.4991   1414.58313     693.3484     413.4991
   1414.56787     689.2620     411.6743   1414.56787     689.2620     411.6743
   1414.55261     687.8252     411.0508   1414.55261     687.8252     411.0508
   1414.53735     685.8112     409.0229   1414.53735     685.8112     409.0229
   1414.52209     683.6604     407.7102   1414.52209     683.6604     407.7102
   1414.50684     680.0093     407.0712   1414.50684     680.0093     407.0712
   1414.49158     679.8367     405.3229   1414.49158     679.8367     405.3229
   1414.47632     676.2463     403.3221   1414.47632     676.2463     403.3221
   1414.46106     674.9186     402.8947   1414.46106     674.9186     402.8947
   1414.44580     672.6383     401.4906   1414.44580     672.6383     401.4906
   1414.43054     669.3614     400.7062   1414.43054     669.3614     400.7062
   1414.41528     667.1769     398.9763   1414.41528     667.1769     398.9763
   1414.40002     665.3508     396.7597   1414.40002     665.3508     396.7597
   1414.38477     663.2487     396.2832   1414.38477     663.2487     396.2832
   1414.36951     659.8368     394.7963   1414.36951     659.8368     394.7963
   1414.35425     658.8288     393.8506   1414.35425     658.8288     393.8506
   1414.33899     655.0791     392.1915   1414.33899     655.0791     392.1915
   1414.32373     653.9637     391.1693   1414.32373     653.9637     391.1693
   1414.30847     650.2512     389.5301   1414.30847     650.2512     389.5301
   1414.29321     648.5696     387.6123   1414.29321     648.5696     387.6123
   1414.27795     646.0237     386.0750   1414.27795     646.0237     386.0750
   1414.26270     642.7079     385.0659   1414.26270     642.7079     385.0659
   1414.24744     639.8889     384.1718   1414.24744     639.8889     384.1718
   1414.23218     638.1996     382.4041   1414.23218     638.1996     382.4041
   1414.21692     635.7611     381.1741   1414.21692     635.7611     381.1741
   1414.20166     633.2070     379.5246   1414.20166     633.2070     379.5246
   1414.18640     629.4153     378.0052   1414.18640     629.4153     378.0052
   1414.17114     627.7617     376.0722   1414.17114     627.7617     376.0722
   1414.15588     624.5480     375.1424   1414.15588     624.5480     375.1424
   1414.14062     622.9557     373.3125   1414.14062     622.9557     373.3125
   1414.12537     619.7390     371.9673   1414.12537     619.7390     371.9673
   1414.11011     616.2031     370.1192   1414.11011     616.2031     370.1192
   1414.09485     613.9597     368.6900   1414.09485     613.9597     368.6900
   1414.07959     611.3652     366.9456   1414.07959     611.3652     366.9456
   1414.06433     608.0533     365.4034   1414.06433     608.0533     365.4034
   1414.04907     606.7464     363.9910   1414.04907     606.7464     363.9910
   1414.03381     603.6991     362.5350   1414.03381     603.6991     362.5350
   1414.01855     600.8222     361.0089   1414.01855     600.8222     361.0089
   1414.00330     597.8837     359.5944   1414.00330     597.8837     359.5944
   1413.98804     594.0814     358.1285   1413.98804     594.0814     358.1285
   1413.97278     591.5854     356.7599   1413.97278     591.5854     356.7599
   1413.95752     589.5809     355.3190   1413.95752     589.5809     355.3190
   1413.94226     586.5363     353.7435   1413.94226     586.5363     353.7435
   1413.92700     583.1387     351.9400   1413.92700     583.1387     351.9400
   1413.91174     580.7762     350.9343   1413.91174     580.7762     350.9343
   1413.89648     577.8746     349.0409   1413.89648     577.8746     349.0409
   1413.88123     574.9982     347.5161   1413.88123     574.9982     347.5161
   1413.86597     572.5571     345.6196   1413.86597     572.5571     345.6196
   1413.85071     569.2978     344.2332   1413.85071     569.2978     344.2332
   1413.83545     567.5757     342.1798   1413.83545     567.5757     342.1798
   1413.82019     563.7875     341.0053   1413.82019     563.7875     341.0053
   1413.80493     560.6083     339.1891   1413.80493     560.6083     339.1891
   1413.78967     557.5873     338.3705   1413.78967     557.5873     338.3705
   1413.77441     554.8984     335.9798   1413.77441     554.8984     335.9798
   1413.75916     552.1271     335.1710   1413.75916     552.1271     335.1710
   1413.74390     549.1088     333.2925   1413.74390     549.1088     333.2925
   1413.72864     545.9764     332.1616   1413.72864     545.9764     332.1616
   1413.71338     543.7992     330.2589   1413.71338     543.7992     330.2589
   1413.69812     540.0295     328.6632   1413.69812     540.0295     328.6632
   1413.68286     536.9628     327.3548   1413.68286     536.9628     327.3548
   1413.66760     534.5841     325.4761   1413.66760     534.5841     325.4761
   1413.65234     531.2372     323.5677   1413.65234     531.2372     323.5677
   1413.63708     528.4830     322.3810   1413.63708     528.4830     322.3810
   1413.62183     525.4783     320.3706   1413.62183     525.4783     320.3706
   1413.60657     522.5129     319.0804   1413.60657     522.5129     319.0804
   1413.59131     519.6512     318.0898   1413.59131     519.6512     318.0898
   1413.57605     517.6770     315.9964   1413.57605     517.6770     315.9964
   1413.56079     514.7847     314.3738   1413.56079     514.7847     314.3738
   1413.54553     511.0131     313.5177   1413.54553     511.0131     313.5177
   1413.53027     508.9318     312.0395   1413.53027     508.9318     312.0395
   1413.51501     504.8166     310.2811   1413.51501     504.8166     310.2811
   1413.49976     502.1566     308.5860   1413.49976     502.1566     308.5860
   1413.48450     499.5497     307.4406   1413.48450     499.5497     307.4406
   1413.46924     497.2993     306.0644   1413.46924     497.2993     306.0644
   1413.45398     494.4293     304.5296   1413.45398     494.4293     304.5296
   1413.43872     491.4194     303.2848   1413.43872     491.4194     303.2848
   1413.42346     487.6805     302.0334   1413.42346     487.6805     302.0334
   1413.40820     485.5255     300.6392   1413.40820     485.5255     300.6392
   1413.39294     481.9763     298.8152   1413.39294     481.9763     298.8152
   1413.37769     479.6872     297.5914   1413.37769     479.6872     297.5914
   1413.36243     476.9257     296.3861   1413.36243     476.9257     296.3861
   1413.34717     474.2044     294.9303   1413.34717     474.2044     294.9303
   1413.33191     471.3745     293.7480   1413.33191     471.3745     293.7480
   1413.31665     468.9518     292.6310   1413.31665     468.9518     292.6310
   1413.30139     466.4063     291.0756   1413.30139     466.4063     291.0756
   1413.28613     463.4843     289.4262   1413.28613     463.4843     289.4262
   1413.27087     460.8003     288.1489   1413.27087     460.8003     288.1489
   1413.25562     458.0229     286.9476   1413.25562     458.0229     286.9476
   1413.24036     456.4973     285.8492   1413.24036     456.4973     285.8492
   1413.22510     452.9194     284.8868   1413.22510     452.9194     284.8868
   1413.20984     450.6479     283.7028   1413.20984     450.6479     283.7028
   1413.19458     447.4617     282.4286   1413.19458     447.4617     282.4286
   1413.17932     445.1653     281.2598   1413.17932     445.1653     281.2598
   1413.16406     442.6850     280.4175   1413.16406     442.6850     280.4175
   1413.14880     440.5215     278.7777   1413.14880     440.5215     278.7777
   1413.13354     437.6694     278.0192   1413.13354     437.6694     278.0192
   1413.11829     435.7964     276.9076   1413.11829     435.7964     276.9076
   1413.10303     433.3390     275.7753   1413.10303     433.3390     275.7753
   1413.08777     430.8352     274.7117   1413.08777     430.8352     274.7117
   1413.07251     427.8942     273.2479   1413.07251     427.8942     273.2479
   1413.05725     425.6599     273.0544   1413.05725     425.6599     273.0544
   1413.04199     424.0669     272.0874   1413.04199     424.0669     272.0874
   1413.02673     420.9862     270.9953   1413.02673     420.9862     270.9953
   1413.01147     419.6724     270.1310   1413.01147     419.6724     270.1310
   1412.99622     416.9930     269.4115   1412.99622     416.9930     269.4115
   1412.98096     414.9350     267.9706   1412.98096     414.9350     267.9706
   1412.96570     413.0530     267.1808   1412.96570     413.0530     267.1808
   1412.95044     411.1044     265.9482   1412.95044     411.1044     265.9482
   1412.93518     408.9309     265.5975   1412.93518     408.9309     265.5975
   1412.91992     407.4755     265.0869   1412.91992     407.4755     265.0869
   1412.90466     405.2786     264.2858   1412.90466     405.2786     264.2858
   1412.88940     403.1076     263.3974   1412.88940     403.1076     263.3974
   1412.87415     400.9817     262.8001   1412.87415     400.9817     262.8001
   1412.85889     399.7238     261.9180   1412.85889     399.7238     261.9180
   1412.84363     397.3535     261.5441   1412.84363     397.3535     261.5441
   1412.82837     395.7461     261.3694   1412.82837     395.7461     261.3694
   1412.81311     393.6855     260.3248   1412.81311     393.6855     260.3248
   1412.79785     391.9175     260.2867   1412.79785     391.9175     260.2867
   1412.78259     390.9476     259.5093   1412.78259     390.9476     259.5093
   1412.76733     389.6556     259.1409   1412.76733     389.6556     259.1409
   1412.75208     387.6801     258.7845   1412.75208     387.6801     258.7845
   1412.73682     386.3709     258.4656   1412.73682     386.3709     258.4656
   1412.72156     385.0282     257.9053   1412.72156     385.0282     257.9053
   1412.70630     383.5327     257.4689   1412.70630     383.5327     257.4689
   1412.69104     382.5560     257.3613   1412.69104     382.5560     257.3613
   1412.67578     381.6685     257.7461   1412.67578     381.6685     257.7461
   1412.66052     379.4924     256.5272   1412.66052     379.4924     256.5272
   1412.64526     379.0371     257.1861   1412.64526     379.0371     257.1861
   1412.63000     377.4640     256.3263   1412.63000     377.4640     256.3263
   1412.61475     376.1286     256.7852   1412.61475     376.1286     256.7852
   1412.59949     374.9142     256.5342   1412.59949     374.9142     256.5342
   1412.58423     374.4688     256.1265   1412.58423     374.4688     256.1265
   1412.56897     373.3900     255.8881   1412.56897     373.3900     255.8881
   1412.55371     372.2962     256.2830   1412.55371     372.2962     256.2830
   1412.53845     371.6928     256.0367   1412.53845     371.6928     256.0367
   1412.52319     370.5949     256.1619   1412.52319     370.5949     256.1619
   1412.50793     370.4259     256.6206   1412.50793     370.4259     256.6206
   1412.49268     369.5064     256.6039   1412.49268     369.5064     256.6039
   1412.47742     369.0375     256.8866   1412.47742     369.0375     256.8866
   1412.46216     367.8638     256.8499   1412.46216     367.8638     256.8499
   1412.44690     367.7591     257.3457   1412.44690     367.7591     257.3457
   1412.43164     367.7835     257.9514   1412.43164     367.7835     257.9514
   1412.41638     367.2533     257.8143   1412.41638     367.2533     257.8143
   1412.40112     367.0331     258.3141   1412.40112     367.0331     258.3141
   1412.38586     366.1158     258.3462   1412.38586     366.1158     258.3462
   1412.37061     365.8089     259.1080   1412.37061     365.8089     259.1080
   1412.35535     366.0648     259.3677   1412.35535     366.0648     259.3677
   1412.34009     366.1704     260.1860   1412.34009     366.1704     260.1860
   1412.32483     365.8945     260.9131   1412.32483     365.8945     260.9131
   1412.30957     366.1591     261.8743   1412.30957     366.1591     261.8743
   1412.29431     366.3149     262.3565   1412.29431     366.3149     262.3565
   1412.27905     366.4342     262.8371   1412.27905     366.4342     262.8371
   1412.26379     366.6685     263.5806   1412.26379     366.6685     263.5806
   1412.24854     366.1388     263.6115   1412.24854     366.1388     263.6115
   1412.23328     366.7299     264.9579   1412.23328     366.7299     264.9579
   1412.21802     367.1990     265.6714   1412.21802     367.1990     265.6714
   1412.20276     367.8025     266.0917   1412.20276     367.8025     266.0917