#     FILENAME=!Skynet_57528_lachhhg92_20322_20899.cyb.fits
#     BASENAME=Skynet_57528_lachhhg92_20322_20899
#     SRC_NAME=lachhhg92
#     OBSERVER=hhgmadison16_9500
#     DATE_OBS=2016-05-20T15:07:47.750
#        OBSID=20322
#      SCANNUM=20899
#          MJD=57528.6315
#          UTC=54556
#     SCANTYPE=track
#     DATAMODE=HIRES
#     TUNEFREQ=1420.0000
# Actual_FREQ1=1420.0000
# Actual_FREQ2=1420.0000
#    LO1Tuning=6870.000
#     RFFILTER=1355_1435
#        OBSBW=-15.6250
#        NCHAN=1024 
#        FOCUS=37.0709
#           RA=21:20:27.75
#          DEC=49:45:56.75
#      RA(hrs)=21.341000
#     DEC(deg)=49.765800
#    AZIM(deg)=305.850
#    ELEV(deg)=43.038
#     IFattens=10.00, 9.00
#      WARNING=None
#    TCAL_XL1=7.9635
#    TCAL_YR1=9.1340
#    TCAL_XL2=7.9635
#    TCAL_YR2=9.1340
#     TRX_XL1=11.7060
#     TRX_YR1=11.7060
#     TRX_XL2=11.7060
#     TRX_YR2=11.7060
#        TAVE=1.0000
#Freq1(MHz)          XL1          YR1  Freq2(MHz)          XL2          YR2 

   1427.81250     371.4416     291.2946   1427.81250     371.4416     291.2946
   1427.79724     372.4895     292.7633   1427.79724     372.4895     292.7633
   1427.78198     373.1780     293.4209   1427.78198     373.1780     293.4209
   1427.76672     373.8351     293.9217   1427.76672     373.8351     293.9217
   1427.75146     374.5257     294.7404   1427.75146     374.5257     294.7404
   1427.73621     375.0175     295.7552   1427.73621     375.0175     295.7552
   1427.72095     376.4211     296.4655   1427.72095     376.4211     296.4655
   1427.70569     377.2683     298.0566   1427.70569     377.2683     298.0566
   1427.69043     378.3291     298.7144   1427.69043     378.3291     298.7144
   1427.67517     379.4872     299.9891   1427.67517     379.4872     299.9891
   1427.65991     380.3089     301.1712   1427.65991     380.3089     301.1712
   1427.64465     381.1273     302.0638   1427.64465     381.1273     302.0638
   1427.62939     383.1707     303.1668   1427.62939     383.1707     303.1668
   1427.61414     384.1933     304.2607   1427.61414     384.1933     304.2607
   1427.59888     385.7732     305.3551   1427.59888     385.7732     305.3551
   1427.58362     386.7935     307.0584   1427.58362     386.7935     307.0584
   1427.56836     388.3194     308.1067   1427.56836     388.3194     308.1067
   1427.55310     390.0345     309.7492   1427.55310     390.0345     309.7492
   1427.53784     390.7325     310.7505   1427.53784     390.7325     310.7505
   1427.52258     393.2112     312.3338   1427.52258     393.2112     312.3338
   1427.50732     394.7684     313.8147   1427.50732     394.7684     313.8147
   1427.49207     396.2887     315.7985   1427.49207     396.2887     315.7985
   1427.47681     398.4067     316.5479   1427.47681     398.4067     316.5479
   1427.46155     400.5572     318.5409   1427.46155     400.5572     318.5409
   1427.44629     401.7141     320.1954   1427.44629     401.7141     320.1954
   1427.43103     403.6201     321.5728   1427.43103     403.6201     321.5728
   1427.41577     405.5617     323.2126   1427.41577     405.5617     323.2126
   1427.40051     407.2555     324.9435   1427.40051     407.2555     324.9435
   1427.38525     409.3294     326.3075   1427.38525     409.3294     326.3075
   1427.37000     412.1593     328.5838   1427.37000     412.1593     328.5838
   1427.35474     413.9975     330.0734   1427.35474     413.9975     330.0734
   1427.33948     416.4260     331.4595   1427.33948     416.4260     331.4595
   1427.32422     418.7003     333.2754   1427.32422     418.7003     333.2754
   1427.30896     420.2040     334.8737   1427.30896     420.2040     334.8737
   1427.29370     422.5218     337.0936   1427.29370     422.5218     337.0936
   1427.27844     424.5466     338.8401   1427.27844     424.5466     338.8401
   1427.26318     427.5337     341.2519   1427.26318     427.5337     341.2519
   1427.24792     430.2429     342.6219   1427.24792     430.2429     342.6219
   1427.23267     431.6555     344.5191   1427.23267     431.6555     344.5191
   1427.21741     434.7962     346.8668   1427.21741     434.7962     346.8668
   1427.20215     437.7594     348.6187   1427.20215     437.7594     348.6187
   1427.18689     439.5547     350.2467   1427.18689     439.5547     350.2467
   1427.17163     442.1072     352.7297   1427.17163     442.1072     352.7297
   1427.15637     444.6727     354.8237   1427.15637     444.6727     354.8237
   1427.14111     447.5508     356.3964   1427.14111     447.5508     356.3964
   1427.12585     450.2418     358.4872   1427.12585     450.2418     358.4872
   1427.11060     453.4171     360.9111   1427.11060     453.4171     360.9111
   1427.09534     455.5722     362.7409   1427.09534     455.5722     362.7409
   1427.08008     458.2466     365.6391   1427.08008     458.2466     365.6391
   1427.06482     460.9589     367.3369   1427.06482     460.9589     367.3369
   1427.04956     463.6321     368.8820   1427.04956     463.6321     368.8820
   1427.03430     466.3748     371.6664   1427.03430     466.3748     371.6664
   1427.01904     468.8113     373.9756   1427.01904     468.8113     373.9756
   1427.00378     471.9473     376.2599   1427.00378     471.9473     376.2599
   1426.98853     474.8503     377.8439   1426.98853     474.8503     377.8439
   1426.97327     477.7870     380.4058   1426.97327     477.7870     380.4058
   1426.95801     480.8640     382.8258   1426.95801     480.8640     382.8258
   1426.94275     484.9557     385.3879   1426.94275     484.9557     385.3879
   1426.92749     487.2764     387.1870   1426.92749     487.2764     387.1870
   1426.91223     489.3509     389.1839   1426.91223     489.3509     389.1839
   1426.89697     493.0294     392.0729   1426.89697     493.0294     392.0729
   1426.88171     496.8675     393.7763   1426.88171     496.8675     393.7763
   1426.86646     499.2155     396.4155   1426.86646     499.2155     396.4155
   1426.85120     502.5979     398.4215   1426.85120     502.5979     398.4215
   1426.83594     505.9015     400.8666   1426.83594     505.9015     400.8666
   1426.82068     508.2654     403.2260   1426.82068     508.2654     403.2260
   1426.80542     511.5534     405.0571   1426.80542     511.5534     405.0571
   1426.79016     514.1602     407.5345   1426.79016     514.1602     407.5345
   1426.77490     517.5625     409.7830   1426.77490     517.5625     409.7830
   1426.75964     520.6954     411.8574   1426.75964     520.6954     411.8574
   1426.74438     523.7667     414.3680   1426.74438     523.7667     414.3680
   1426.72913     526.8054     416.2880   1426.72913     526.8054     416.2880
   1426.71387     530.5648     419.0991   1426.71387     530.5648     419.0991
   1426.69861     532.9777     421.1167   1426.69861     532.9777     421.1167
   1426.68335     536.5550     423.6114   1426.68335     536.5550     423.6114
   1426.66809     538.7490     425.8723   1426.66809     538.7490     425.8723
   1426.65283     541.6940     428.4667   1426.65283     541.6940     428.4667
   1426.63757     546.1412     431.3088   1426.63757     546.1412     431.3088
   1426.62231     549.7427     433.5144   1426.62231     549.7427     433.5144
   1426.60706     551.8613     435.5196   1426.60706     551.8613     435.5196
   1426.59180     553.9852     437.6980   1426.59180     553.9852     437.6980
   1426.57654     557.0935     439.0699   1426.57654     557.0935     439.0699
   1426.56128     561.6880     442.0912   1426.56128     561.6880     442.0912
   1426.54602     564.8686     443.8761   1426.54602     564.8686     443.8761
   1426.53076     566.9703     446.6075   1426.53076     566.9703     446.6075
   1426.51550     570.1825     449.1399   1426.51550     570.1825     449.1399
   1426.50024     572.1738     450.6687   1426.50024     572.1738     450.6687
   1426.48499     576.9158     452.3570   1426.48499     576.9158     452.3570
   1426.46973     579.7469     455.0567   1426.46973     579.7469     455.0567
   1426.45447     582.4232     457.6154   1426.45447     582.4232     457.6154
   1426.43921     585.4820     460.0500   1426.43921     585.4820     460.0500
   1426.42395     588.3707     462.4353   1426.42395     588.3707     462.4353
   1426.40869     591.2017     463.9272   1426.40869     591.2017     463.9272
   1426.39343     594.5544     466.6750   1426.39343     594.5544     466.6750
   1426.37817     596.9793     467.5633   1426.37817     596.9793     467.5633
   1426.36292     599.0975     469.5862   1426.36292     599.0975     469.5862
   1426.34766     602.4598     472.5953   1426.34766     602.4598     472.5953
   1426.33240     606.1949     473.8866   1426.33240     606.1949     473.8866
   1426.31714     609.1077     476.9668   1426.31714     609.1077     476.9668
   1426.30188     612.3710     478.1800   1426.30188     612.3710     478.1800
   1426.28662     615.5817     480.9418   1426.28662     615.5817     480.9418
   1426.27136     617.7938     483.3591   1426.27136     617.7938     483.3591
   1426.25610     619.7950     485.1618   1426.25610     619.7950     485.1618
   1426.24084     624.1528     487.3063   1426.24084     624.1528     487.3063
   1426.22559     626.8340     489.4059   1426.22559     626.8340     489.4059
   1426.21033     627.6960     491.4443   1426.21033     627.6960     491.4443
   1426.19507     630.4166     492.7024   1426.19507     630.4166     492.7024
   1426.17981     633.2886     495.1072   1426.17981     633.2886     495.1072
   1426.16455     637.2221     496.5227   1426.16455     637.2221     496.5227
   1426.14929     639.8515     498.4305   1426.14929     639.8515     498.4305
   1426.13403     642.6937     500.6939   1426.13403     642.6937     500.6939
   1426.11877     644.6472     502.9903   1426.11877     644.6472     502.9903
   1426.10352     647.2080     504.8297   1426.10352     647.2080     504.8297
   1426.08826     650.4156     506.0227   1426.08826     650.4156     506.0227
   1426.07300     652.5276     508.5849   1426.07300     652.5276     508.5849
   1426.05774     654.9237     510.4714   1426.05774     654.9237     510.4714
   1426.04248     656.5012     511.9522   1426.04248     656.5012     511.9522
   1426.02722     660.7633     513.1861   1426.02722     660.7633     513.1861
   1426.01196     661.4160     515.1520   1426.01196     661.4160     515.1520
   1425.99670     663.9005     517.6702   1425.99670     663.9005     517.6702
   1425.98145     667.1364     518.4987   1425.98145     667.1364     518.4987
   1425.96619     668.5204     520.9374   1425.96619     668.5204     520.9374
   1425.95093     670.8479     521.7756   1425.95093     670.8479     521.7756
   1425.93567     674.4912     524.5930   1425.93567     674.4912     524.5930
   1425.92041     676.0214     526.2196   1425.92041     676.0214     526.2196
   1425.90515     679.0618     527.6862   1425.90515     679.0618     527.6862
   1425.88989     680.2730     528.9026   1425.88989     680.2730     528.9026
   1425.87463     682.7610     531.3255   1425.87463     682.7610     531.3255
   1425.85938     685.8779     531.7621   1425.85938     685.8779     531.7621
   1425.84412     687.3079     534.1929   1425.84412     687.3079     534.1929
   1425.82886     689.1337     535.7925   1425.82886     689.1337     535.7925
   1425.81360     690.5510     537.9564   1425.81360     690.5510     537.9564
   1425.79834     693.7864     539.5237   1425.79834     693.7864     539.5237
   1425.78308     694.1924     541.2782   1425.78308     694.1924     541.2782
   1425.76782     697.5438     543.2885   1425.76782     697.5438     543.2885
   1425.75256     698.5293     543.6445   1425.75256     698.5293     543.6445
   1425.73730     700.0994     545.6936   1425.73730     700.0994     545.6936
   1425.72205     703.3483     546.8159   1425.72205     703.3483     546.8159
   1425.70679     702.6827     548.3503   1425.70679     702.6827     548.3503
   1425.69153     705.1910     549.6147   1425.69153     705.1910     549.6147
   1425.67627     707.3948     551.7769   1425.67627     707.3948     551.7769
   1425.66101     709.4561     552.7414   1425.66101     709.4561     552.7414
   1425.64575     711.1039     554.3222   1425.64575     711.1039     554.3222
   1425.63049     713.2874     555.9836   1425.63049     713.2874     555.9836
   1425.61523     713.4335     556.8121   1425.61523     713.4335     556.8121
   1425.59998     717.0435     558.4030   1425.59998     717.0435     558.4030
   1425.58472     718.2386     559.3184   1425.58472     718.2386     559.3184
   1425.56946     719.2480     560.9653   1425.56946     719.2480     560.9653
   1425.55420     719.6298     562.8586   1425.55420     719.6298     562.8586
   1425.53894     721.2938     563.2846   1425.53894     721.2938     563.2846
   1425.52368     722.6415     564.8290   1425.52368     722.6415     564.8290
   1425.50842     724.2593     566.3438   1425.50842     724.2593     566.3438
   1425.49316     727.2214     568.6095   1425.49316     727.2214     568.6095
   1425.47791     727.1243     569.2214   1425.47791     727.1243     569.2214
   1425.46265     729.4221     570.8264   1425.46265     729.4221     570.8264
   1425.44739     731.0467     571.5131   1425.44739     731.0467     571.5131
   1425.43213     731.4231     572.8925   1425.43213     731.4231     572.8925
   1425.41687     732.5855     574.8582   1425.41687     732.5855     574.8582
   1425.40161     732.8958     574.4977   1425.40161     732.8958     574.4977
   1425.38635     733.4944     577.1166   1425.38635     733.4944     577.1166
   1425.37109     736.0956     577.9919   1425.37109     736.0956     577.9919
   1425.35583     736.0997     577.9375   1425.35583     736.0997     577.9375
   1425.34058     737.8853     579.9570   1425.34058     737.8853     579.9570
   1425.32532     738.0361     581.5013   1425.32532     738.0361     581.5013
   1425.31006     738.9525     583.2056   1425.31006     738.9525     583.2056
   1425.29480     739.9693     582.8675   1425.29480     739.9693     582.8675
   1425.27954     740.5876     584.3570   1425.27954     740.5876     584.3570
   1425.26428     741.8809     585.9037   1425.26428     741.8809     585.9037
   1425.24902     743.6729     585.5032   1425.24902     743.6729     585.5032
   1425.23376     743.2954     586.4950   1425.23376     743.2954     586.4950
   1425.21851     744.8347     588.5588   1425.21851     744.8347     588.5588
   1425.20325     744.1400     589.3397   1425.20325     744.1400     589.3397
   1425.18799     747.4688     591.5674   1425.18799     747.4688     591.5674
   1425.17273     747.2146     591.8663   1425.17273     747.2146     591.8663
   1425.15747     747.6760     592.6260   1425.15747     747.6760     592.6260
   1425.14221     748.8170     593.6665   1425.14221     748.8170     593.6665
   1425.12695     749.3260     594.7275   1425.12695     749.3260     594.7275
   1425.11169     749.9950     596.5713   1425.11169     749.9950     596.5713
   1425.09644     750.2023     596.8563   1425.09644     750.2023     596.8563
   1425.08118     750.4179     598.8827   1425.08118     750.4179     598.8827
   1425.06592     751.0311     598.7266   1425.06592     751.0311     598.7266
   1425.05066     751.5331     598.5338   1425.05066     751.5331     598.5338
   1425.03540     752.0282     600.6098   1425.03540     752.0282     600.6098
   1425.02014     753.2137     601.6937   1425.02014     753.2137     601.6937
   1425.00488     753.7344     602.3850   1425.00488     753.7344     602.3850
   1424.98962     753.2235     602.5114   1424.98962     753.2235     602.5114
   1424.97437     753.9872     605.0247   1424.97437     753.9872     605.0247
   1424.95911     754.8187     605.0771   1424.95911     754.8187     605.0771
   1424.94385     754.3649     606.5085   1424.94385     754.3649     606.5085
   1424.92859     755.7107     607.0413   1424.92859     755.7107     607.0413
   1424.91333     756.0154     607.7469   1424.91333     756.0154     607.7469
   1424.89807     757.0251     607.8364   1424.89807     757.0251     607.8364
   1424.88281     755.6879     609.0034   1424.88281     755.6879     609.0034
   1424.86755     757.6924     610.7825   1424.86755     757.6924     610.7825
   1424.85229     757.0864     611.0364   1424.85229     757.0864     611.0364
   1424.83704     755.4745     611.4168   1424.83704     755.4745     611.4168
   1424.82178     757.9344     612.4615   1424.82178     757.9344     612.4615
   1424.80652     758.1343     613.1449   1424.80652     758.1343     613.1449
   1424.79126     757.8185     614.5931   1424.79126     757.8185     614.5931
   1424.77600     758.3925     615.4084   1424.77600     758.3925     615.4084
   1424.76074     758.4930     616.6692   1424.76074     758.4930     616.6692
   1424.74548     758.3356     616.5004   1424.74548     758.3356     616.5004
   1424.73022     759.6287     617.9059   1424.73022     759.6287     617.9059
   1424.71497     758.7924     618.9520   1424.71497     758.7924     618.9520
   1424.69971     758.1208     619.1566   1424.69971     758.1208     619.1566
   1424.68445     759.6422     620.1413   1424.68445     759.6422     620.1413
   1424.66919     758.6447     620.5004   1424.66919     758.6447     620.5004
   1424.65393     758.3041     620.3697   1424.65393     758.3041     620.3697
   1424.63867     758.4003     620.9752   1424.63867     758.4003     620.9752
   1424.62341     759.2181     621.8995   1424.62341     759.2181     621.8995
   1424.60815     758.2621     623.5784   1424.60815     758.2621     623.5784
   1424.59290     759.9656     623.9303   1424.59290     759.9656     623.9303
   1424.57764     758.2728     623.4214   1424.57764     758.2728     623.4214
   1424.56238     758.2200     624.8020   1424.56238     758.2200     624.8020
   1424.54712     758.0200     626.3065   1424.54712     758.0200     626.3065
   1424.53186     758.3119     627.1879   1424.53186     758.3119     627.1879
   1424.51660     759.2099     626.5913   1424.51660     759.2099     626.5913
   1424.50134     758.1476     627.6259   1424.50134     758.1476     627.6259
   1424.48608     757.5145     628.1747   1424.48608     757.5145     628.1747
   1424.47083     756.7983     629.1689   1424.47083     756.7983     629.1689
   1424.45557     757.2603     629.5347   1424.45557     757.2603     629.5347
   1424.44031     757.5858     630.3832   1424.44031     757.5858     630.3832
   1424.42505     757.2964     631.6787   1424.42505     757.2964     631.6787
   1424.40979     758.1518     631.8386   1424.40979     758.1518     631.8386
   1424.39453     756.4686     631.8705   1424.39453     756.4686     631.8705
   1424.37927     757.4283     633.3774   1424.37927     757.4283     633.3774
   1424.36401     757.9650     633.5961   1424.36401     757.9650     633.5961
   1424.34875     757.1523     634.9653   1424.34875     757.1523     634.9653
   1424.33350     757.2225     633.6450   1424.33350     757.2225     633.6450
   1424.31824     755.7454     636.2861   1424.31824     755.7454     636.2861
   1424.30298     756.8000     635.9825   1424.30298     756.8000     635.9825
   1424.28772     755.1604     637.1055   1424.28772     755.1604     637.1055
   1424.27246     756.9224     636.7905   1424.27246     756.9224     636.7905
   1424.25720     755.3803     637.8175   1424.25720     755.3803     637.8175
   1424.24194     754.2350     638.4617   1424.24194     754.2350     638.4617
   1424.22668     756.0406     639.7568   1424.22668     756.0406     639.7568
   1424.21143     755.8259     639.9682   1424.21143     755.8259     639.9682
   1424.19617     754.2242     640.5065   1424.19617     754.2242     640.5065
   1424.18091     754.5035     641.2150   1424.18091     754.5035     641.2150
   1424.16565     753.5732     640.7587   1424.16565     753.5732     640.7587
   1424.15039     753.6088     642.5560   1424.15039     753.6088     642.5560
   1424.13513     753.3616     642.1311   1424.13513     753.3616     642.1311
   1424.11987     752.8494     643.1578   1424.11987     752.8494     643.1578
   1424.10461     753.2484     643.8328   1424.10461     753.2484     643.8328
   1424.08936     753.5974     642.5245   1424.08936     753.5974     642.5245
   1424.07410     753.5898     644.4257   1424.07410     753.5898     644.4257
   1424.05884     751.3477     645.0723   1424.05884     751.3477     645.0723
   1424.04358     751.5975     645.3973   1424.04358     751.5975     645.3973
   1424.02832     751.4965     645.9976   1424.02832     751.4965     645.9976
   1424.01306     751.8337     646.4137   1424.01306     751.8337     646.4137
   1423.99780     750.4583     646.8546   1423.99780     750.4583     646.8546
   1423.98254     751.1805     646.6608   1423.98254     751.1805     646.6608
   1423.96729     750.4675     647.1809   1423.96729     750.4675     647.1809
   1423.95203     750.2603     648.1534   1423.95203     750.2603     648.1534
   1423.93677     749.7409     648.0559   1423.93677     749.7409     648.0559
   1423.92151     748.9451     649.2609   1423.92151     748.9451     649.2609
   1423.90625     750.0158     650.6140   1423.90625     750.0158     650.6140
   1423.89099     749.3365     649.6946   1423.89099     749.3365     649.6946
   1423.87573     748.2369     650.2165   1423.87573     748.2369     650.2165
   1423.86047     748.5531     651.0363   1423.86047     748.5531     651.0363
   1423.84521     748.9430     651.0665   1423.84521     748.9430     651.0665
   1423.82996     748.7675     651.4672   1423.82996     748.7675     651.4672
   1423.81470     747.2726     651.3516   1423.81470     747.2726     651.3516
   1423.79944     747.7175     651.8370   1423.79944     747.7175     651.8370
   1423.78418     747.8401     652.6713   1423.78418     747.8401     652.6713
   1423.76892     746.0968     653.1082   1423.76892     746.0968     653.1082
   1423.75366     747.2910     652.8175   1423.75366     747.2910     652.8175
   1423.73840     746.0485     653.8807   1423.73840     746.0485     653.8807
   1423.72314     745.9503     654.2123   1423.72314     745.9503     654.2123
   1423.70789     745.3563     653.8724   1423.70789     745.3563     653.8724
   1423.69263     745.1696     654.6375   1423.69263     745.1696     654.6375
   1423.67737     745.6484     654.5531   1423.67737     745.6484     654.5531
   1423.66211     745.3102     655.3300   1423.66211     745.3102     655.3300
   1423.64685     745.1137     656.0587   1423.64685     745.1137     656.0587
   1423.63159     743.1375     654.8638   1423.63159     743.1375     654.8638
   1423.61633     743.2357     656.2201   1423.61633     743.2357     656.2201
   1423.60107     743.1655     656.3596   1423.60107     743.1655     656.3596
   1423.58582     742.7771     655.7513   1423.58582     742.7771     655.7513
   1423.57056     743.2295     656.7636   1423.57056     743.2295     656.7636
   1423.55530     743.1748     656.7475   1423.55530     743.1748     656.7475
   1423.54004     742.3841     656.9306   1423.54004     742.3841     656.9306
   1423.52478     742.4116     656.5205   1423.52478     742.4116     656.5205
   1423.50952     742.6793     657.7827   1423.50952     742.6793     657.7827
   1423.49426     740.4135     656.5579   1423.49426     740.4135     656.5579
   1423.47900     741.5953     657.4399   1423.47900     741.5953     657.4399
   1423.46375     740.6218     657.7245   1423.46375     740.6218     657.7245
   1423.44849     739.4548     657.3733   1423.44849     739.4548     657.3733
   1423.43323     738.7821     657.5890   1423.43323     738.7821     657.5890
   1423.41797     740.4969     657.7170   1423.41797     740.4969     657.7170
   1423.40271     739.8830     657.6143   1423.40271     739.8830     657.6143
   1423.38745     738.3967     657.6810   1423.38745     738.3967     657.6810
   1423.37219     739.9188     658.8871   1423.37219     739.9188     658.8871
   1423.35693     737.5278     657.4518   1423.35693     737.5278     657.4518
   1423.34167     738.4268     657.7740   1423.34167     738.4268     657.7740
   1423.32642     737.5785     657.7458   1423.32642     737.5785     657.7458
   1423.31116     737.2689     657.1172   1423.31116     737.2689     657.1172
   1423.29590     736.6885     657.6252   1423.29590     736.6885     657.6252
   1423.28064     736.8107     657.3447   1423.28064     736.8107     657.3447
   1423.26538     736.4221     657.6163   1423.26538     736.4221     657.6163
   1423.25012     736.5713     656.7564   1423.25012     736.5713     656.7564
   1423.23486     737.2849     657.6104   1423.23486     737.2849     657.6104
   1423.21960     735.7372     656.8311   1423.21960     735.7372     656.8311
   1423.20435     735.8690     657.7133   1423.20435     735.8690     657.7133
   1423.18909     736.3945     657.5853   1423.18909     736.3945     657.5853
   1423.17383     734.6337     655.4130   1423.17383     734.6337     655.4130
   1423.15857     735.2132     655.4424   1423.15857     735.2132     655.4424
   1423.14331     734.5699     655.0231   1423.14331     734.5699     655.0231
   1423.12805     734.7885     655.7930   1423.12805     734.7885     655.7930
   1423.11279     734.2981     655.5813   1423.11279     734.2981     655.5813
   1423.09753     734.2156     656.5539   1423.09753     734.2156     656.5539
   1423.08228     733.7699     655.4207   1423.08228     733.7699     655.4207
   1423.06702     732.5463     654.5070   1423.06702     732.5463     654.5070
   1423.05176     733.7012     653.8563   1423.05176     733.7012     653.8563
   1423.03650     733.1384     652.5151   1423.03650     733.1384     652.5151
   1423.02124     732.8224     654.5367   1423.02124     732.8224     654.5367
   1423.00598     732.5198     652.5061   1423.00598     732.5198     652.5061
   1422.99072     731.7239     652.3260   1422.99072     731.7239     652.3260
   1422.97546     732.1594     651.9476   1422.97546     732.1594     651.9476
   1422.96021     731.1641     652.3440   1422.96021     731.1641     652.3440
   1422.94495     731.7858     651.4983   1422.94495     731.7858     651.4983
   1422.92969     730.7361     651.9376   1422.92969     730.7361     651.9376
   1422.91443     730.4428     649.9800   1422.91443     730.4428     649.9800
   1422.89917     730.3491     649.2667   1422.89917     730.3491     649.2667
   1422.88391     729.8931     650.5468   1422.88391     729.8931     650.5468
   1422.86865     729.3166     650.5036   1422.86865     729.3166     650.5036
   1422.85339     730.0333     648.6660   1422.85339     730.0333     648.6660
   1422.83813     729.5462     648.4800   1422.83813     729.5462     648.4800
   1422.82288     729.5876     648.5572   1422.82288     729.5876     648.5572
   1422.80762     729.7274     646.9108   1422.80762     729.7274     646.9108
   1422.79236     728.8331     645.5988   1422.79236     728.8331     645.5988
   1422.77710     729.7079     646.1436   1422.77710     729.7079     646.1436
   1422.76184     727.7292     644.9799   1422.76184     727.7292     644.9799
   1422.74658     727.9499     643.9557   1422.74658     727.9499     643.9557
   1422.73132     727.7805     644.5870   1422.73132     727.7805     644.5870
   1422.71606     727.1584     642.1335   1422.71606     727.1584     642.1335
   1422.70081     727.1334     642.7346   1422.70081     727.1334     642.7346
   1422.68555     725.8707     640.9692   1422.68555     725.8707     640.9692
   1422.67029     727.2056     641.6725   1422.67029     727.2056     641.6725
   1422.65503     725.9454     640.3724   1422.65503     725.9454     640.3724
   1422.63977     725.7828     639.6989   1422.63977     725.7828     639.6989
   1422.62451     726.2065     638.3940   1422.62451     726.2065     638.3940
   1422.60925     725.1549     638.1054   1422.60925     725.1549     638.1054
   1422.59399     724.7651     637.0560   1422.59399     724.7651     637.0560
   1422.57874     724.9661     635.7157   1422.57874     724.9661     635.7157
   1422.56348     726.0547     635.8791   1422.56348     726.0547     635.8791
   1422.54822     723.7118     634.3397   1422.54822     723.7118     634.3397
   1422.53296     725.0211     634.0442   1422.53296     725.0211     634.0442
   1422.51770     723.8290     632.6871   1422.51770     723.8290     632.6871
   1422.50244     723.6498     631.2189   1422.50244     723.6498     631.2189
   1422.48718     723.0432     630.5308   1422.48718     723.0432     630.5308
   1422.47192     723.8095     629.7846   1422.47192     723.8095     629.7846
   1422.45667     722.6208     628.8089   1422.45667     722.6208     628.8089
   1422.44141     723.2504     628.4311   1422.44141     723.2504     628.4311
   1422.42615     722.2957     626.8145   1422.42615     722.2957     626.8145
   1422.41089     722.7634     625.8826   1422.41089     722.7634     625.8826
   1422.39563     722.7993     624.7441   1422.39563     722.7993     624.7441
   1422.38037     722.7355     623.6774   1422.38037     722.7355     623.6774
   1422.36511     721.9765     622.4742   1422.36511     721.9765     622.4742
   1422.34985     721.4730     622.1942   1422.34985     721.4730     622.1942
   1422.33459     721.5125     620.9346   1422.33459     721.5125     620.9346
   1422.31934     721.5806     621.1406   1422.31934     721.5806     621.1406
   1422.30408     721.8749     618.2868   1422.30408     721.8749     618.2868
   1422.28882     719.8856     616.9625   1422.28882     719.8856     616.9625
   1422.27356     721.2569     616.5643   1422.27356     721.2569     616.5643
   1422.25830     720.9279     614.8818   1422.25830     720.9279     614.8818
   1422.24304     720.5082     613.9816   1422.24304     720.5082     613.9816
   1422.22778     721.2519     611.8909   1422.22778     721.2519     611.8909
   1422.21252     719.7123     612.7532   1422.21252     719.7123     612.7532
   1422.19727     719.7842     611.0577   1422.19727     719.7842     611.0577
   1422.18201     718.8904     610.8431   1422.18201     718.8904     610.8431
   1422.16675     719.5481     607.8270   1422.16675     719.5481     607.8270
   1422.15149     718.8042     606.5453   1422.15149     718.8042     606.5453
   1422.13623     717.8934     605.0103   1422.13623     717.8934     605.0103
   1422.12097     718.5737     603.8553   1422.12097     718.5737     603.8553
   1422.10571     718.9904     603.2025   1422.10571     718.9904     603.2025
   1422.09045     717.2133     601.0652   1422.09045     717.2133     601.0652
   1422.07520     718.6813     601.1676   1422.07520     718.6813     601.1676
   1422.05994     717.9802     599.0551   1422.05994     717.9802     599.0551
   1422.04468     717.0848     597.3484   1422.04468     717.0848     597.3484
   1422.02942     716.5566     596.8965   1422.02942     716.5566     596.8965
   1422.01416     716.4747     595.3326   1422.01416     716.4747     595.3326
   1421.99890     717.5308     594.1838   1421.99890     717.5308     594.1838
   1421.98364     716.0876     593.3832   1421.98364     716.0876     593.3832
   1421.96838     716.8025     591.0173   1421.96838     716.8025     591.0173
   1421.95312     716.5480     590.3702   1421.95312     716.5480     590.3702
   1421.93787     715.3594     588.6412   1421.93787     715.3594     588.6412
   1421.92261     714.9174     586.8120   1421.92261     714.9174     586.8120
   1421.90735     715.4716     586.4959   1421.90735     715.4716     586.4959
   1421.89209     714.9924     585.1671   1421.89209     714.9924     585.1671
   1421.87683     716.0219     583.5170   1421.87683     716.0219     583.5170
   1421.86157     714.5123     583.1960   1421.86157     714.5123     583.1960
   1421.84631     715.0155     580.7640   1421.84631     715.0155     580.7640
   1421.83105     714.7586     580.1436   1421.83105     714.7586     580.1436
   1421.81580     714.4268     578.3665   1421.81580     714.4268     578.3665
   1421.80054     714.5314     576.4379   1421.80054     714.5314     576.4379
   1421.78528     713.8118     575.5779   1421.78528     713.8118     575.5779
   1421.77002     713.3549     573.9443   1421.77002     713.3549     573.9443
   1421.75476     713.1061     573.8967   1421.75476     713.1061     573.8967
   1421.73950     713.0110     571.2185   1421.73950     713.0110     571.2185
   1421.72424     713.3704     569.6993   1421.72424     713.3704     569.6993
   1421.70898     712.8566     568.2704   1421.70898     712.8566     568.2704
   1421.69373     711.9821     567.2545   1421.69373     711.9821     567.2545
   1421.67847     712.1865     565.0877   1421.67847     712.1865     565.0877
   1421.66321     711.9954     565.2029   1421.66321     711.9954     565.2029
   1421.64795     711.0933     564.3582   1421.64795     711.0933     564.3582
   1421.63269     711.4522     561.8506   1421.63269     711.4522     561.8506
   1421.61743     711.6026     560.2155   1421.61743     711.6026     560.2155
   1421.60217     711.3655     558.7871   1421.60217     711.3655     558.7871
   1421.58691     709.9795     557.8792   1421.58691     709.9795     557.8792
   1421.57166     709.9131     556.2581   1421.57166     709.9131     556.2581
   1421.55640     709.9326     554.0224   1421.55640     709.9326     554.0224
   1421.54114     710.8143     552.9166   1421.54114     710.8143     552.9166
   1421.52588     709.8964     551.6574   1421.52588     709.8964     551.6574
   1421.51062     710.1835     550.2762   1421.51062     710.1835     550.2762
   1421.49536     710.1242     549.3365   1421.49536     710.1242     549.3365
   1421.48010     710.6526     548.1544   1421.48010     710.6526     548.1544
   1421.46484     708.5725     546.1781   1421.46484     708.5725     546.1781
   1421.44958     709.3011     544.9601   1421.44958     709.3011     544.9601
   1421.43433     708.9233     544.2213   1421.43433     708.9233     544.2213
   1421.41907     708.9369     542.2995   1421.41907     708.9369     542.2995
   1421.40381     708.4567     539.9360   1421.40381     708.4567     539.9360
   1421.38855     709.0521     538.7172   1421.38855     709.0521     538.7172
   1421.37329     708.6553     537.8813   1421.37329     708.6553     537.8813
   1421.35803     708.7672     536.2148   1421.35803     708.7672     536.2148
   1421.34277     708.0706     535.0590   1421.34277     708.0706     535.0590
   1421.32751     708.4265     534.9485   1421.32751     708.4265     534.9485
   1421.31226     708.5007     532.9960   1421.31226     708.5007     532.9960
   1421.29700     708.5933     532.0278   1421.29700     708.5933     532.0278
   1421.28174     707.5414     530.0880   1421.28174     707.5414     530.0880
   1421.26648     706.8214     529.9375   1421.26648     706.8214     529.9375
   1421.25122     708.3209     528.4969   1421.25122     708.3209     528.4969
   1421.23596     710.0145     527.4601   1421.23596     710.0145     527.4601
   1421.22070     709.8486     526.8293   1421.22070     709.8486     526.8293
   1421.20544     710.7509     525.8668   1421.20544     710.7509     525.8668
   1421.19019     711.7775     525.9294   1421.19019     711.7775     525.9294
   1421.17493     713.1420     527.6954   1421.17493     713.1420     527.6954
   1421.15967     719.4333     528.7836   1421.15967     719.4333     528.7836
   1421.14441     727.6937     533.4839   1421.14441     727.6937     533.4839
   1421.12915     742.0510     542.5235   1421.12915     742.0510     542.5235
   1421.11389     758.4275     553.0866   1421.11389     758.4275     553.0866
   1421.09863     784.7197     570.6192   1421.09863     784.7197     570.6192
   1421.08337     819.7315     592.8864   1421.08337     819.7315     592.8864
   1421.06812     872.1742     628.3617   1421.06812     872.1742     628.3617
   1421.05286     942.0259     675.3129   1421.05286     942.0259     675.3129
   1421.03760     995.2418     712.3677   1421.03760     995.2418     712.3677
   1421.02234    1051.8459     751.0558   1421.02234    1051.8459     751.0558
   1421.00708    1097.9650     781.8489   1421.00708    1097.9650     781.8489
   1420.99182    1092.8260     775.0358   1420.99182    1092.8260     775.0358
   1420.97656    1050.3459     742.0794   1420.97656    1050.3459     742.0794
   1420.96130    1026.6080     723.8227   1420.96130    1026.6080     723.8227
   1420.94604    1017.9072     716.9531   1420.94604    1017.9072     716.9531
   1420.93079    1002.6367     705.5959   1420.93079    1002.6367     705.5959
   1420.91553    1014.7148     711.1432   1420.91553    1014.7148     711.1432
   1420.90027    1049.4974     734.0444   1420.90027    1049.4974     734.0444
   1420.88501    1079.8042     752.3292   1420.88501    1079.8042     752.3292
   1420.86975    1083.0658     752.9233   1420.86975    1083.0658     752.9233
   1420.85449    1054.5385     732.3626   1420.85449    1054.5385     732.3626
   1420.83923    1065.1471     737.9416   1420.83923    1065.1471     737.9416
   1420.82397    1140.4530     786.3867   1420.82397    1140.4530     786.3867
   1420.80872    1382.4314     946.3413   1420.80872    1382.4314     946.3413
   1420.79346    1770.4978    1204.8945   1420.79346    1770.4978    1204.8945
   1420.77820    2033.1985    1376.4868   1420.77820    2033.1985    1376.4868
   1420.76294    2065.6729    1393.2720   1420.76294    2065.6729    1393.2720
   1420.74768    1924.6874    1296.6276   1420.74768    1924.6874    1296.6276
   1420.73242    1849.3862    1244.0942   1420.73242    1849.3862    1244.0942
   1420.71716    1707.7035    1146.8655   1420.71716    1707.7035    1146.8655
   1420.70190    1566.9719    1053.3523   1420.70190    1566.9719    1053.3523
   1420.68665    1488.8192     998.0082   1420.68665    1488.8192     998.0082
   1420.67139    1377.9106     924.3061   1420.67139    1377.9106     924.3061
   1420.65613    1364.6547     916.3491   1420.65613    1364.6547     916.3491
   1420.64087    1224.6106     821.7582   1420.64087    1224.6106     821.7582
   1420.62561    1211.4762     813.4565   1420.62561    1211.4762     813.4565
   1420.61035    1373.8419     915.3246   1420.61035    1373.8419     915.3246
   1420.59509    1549.7512    1030.1691   1420.59509    1549.7512    1030.1691
   1420.57983    1639.1266    1084.1548   1420.57983    1639.1266    1084.1548
   1420.56458    1761.1444    1159.8134   1420.56458    1761.1444    1159.8134
   1420.54932    1967.5555    1290.8911   1420.54932    1967.5555    1290.8911
   1420.53406    2281.9944    1490.9095   1420.53406    2281.9944    1490.9095
   1420.51880    2300.2847    1499.7072   1420.51880    2300.2847    1499.7072
   1420.50354    1849.9464    1205.3213   1420.50354    1849.9464    1205.3213
   1420.48828    1298.8770     850.5488   1420.48828    1298.8770     850.5488
   1420.47302     942.0539     621.9150   1420.47302     942.0539     621.9150
   1420.45776     808.3710     534.6548   1420.45776     808.3710     534.6548
   1420.44250     761.5091     503.8982   1420.44250     761.5091     503.8982
   1420.42725     740.9311     489.5240   1420.42725     740.9311     489.5240
   1420.41199     726.3770     479.7026   1420.41199     726.3770     479.7026
   1420.39673     717.3972     473.6100   1420.39673     717.3972     473.6100
   1420.38147     712.4382     470.3526   1420.38147     712.4382     470.3526
   1420.36621     708.9059     465.6132   1420.36621     708.9059     465.6132
   1420.35095     706.8538     463.5259   1420.35095     706.8538     463.5259
   1420.33569     706.1251     462.6611   1420.33569     706.1251     462.6611
   1420.32043     704.5182     461.1917   1420.32043     704.5182     461.1917
   1420.30518     704.8041     459.4334   1420.30518     704.8041     459.4334
   1420.28992     703.9265     458.7103   1420.28992     703.9265     458.7103
   1420.27466     704.5833     457.4143   1420.27466     704.5833     457.4143
   1420.25940     703.9741     456.0172   1420.25940     703.9741     456.0172
   1420.24414     702.8311     455.5513   1420.24414     702.8311     455.5513
   1420.22888     702.9257     454.5897   1420.22888     702.9257     454.5897
   1420.21362     701.4910     453.1712   1420.21362     701.4910     453.1712
   1420.19836     700.7354     451.6049   1420.19836     700.7354     451.6049
   1420.18311     699.8245     449.4820   1420.18311     699.8245     449.4820
   1420.16785     699.1337     449.1769   1420.16785     699.1337     449.1769
   1420.15259     698.2939     447.1013   1420.15259     698.2939     447.1013
   1420.13733     696.6537     446.5882   1420.13733     696.6537     446.5882
   1420.12207     697.0254     445.3976   1420.12207     697.0254     445.3976
   1420.10681     696.8481     444.2665   1420.10681     696.8481     444.2665
   1420.09155     696.7997     443.1136   1420.09155     696.7997     443.1136
   1420.07629     694.9451     442.7507   1420.07629     694.9451     442.7507
   1420.06104     696.2352     441.5151   1420.06104     696.2352     441.5151
   1420.04578     695.5417     440.1464   1420.04578     695.5417     440.1464
   1420.03052     695.4172     440.5669   1420.03052     695.4172     440.5669
   1420.01526     695.2702     439.5443   1420.01526     695.2702     439.5443
   1420.00000     696.4043     439.8291   1420.00000     696.4043     439.8291
   1419.98474     697.5382     440.1140   1419.98474     697.5382     440.1140
   1419.96948     696.1927     438.1873   1419.96948     696.1927     438.1873
   1419.95422     694.7159     436.7914   1419.95422     694.7159     436.7914
   1419.93896     695.4675     436.3376   1419.93896     695.4675     436.3376
   1419.92371     695.5943     435.7578   1419.92371     695.5943     435.7578
   1419.90845     695.2969     434.4891   1419.90845     695.2969     434.4891
   1419.89319     695.3508     434.7146   1419.89319     695.3508     434.7146
   1419.87793     695.4824     434.8803   1419.87793     695.4824     434.8803
   1419.86267     695.4124     433.5645   1419.86267     695.4124     433.5645
   1419.84741     696.0283     433.7194   1419.84741     696.0283     433.7194
   1419.83215     696.2465     432.5446   1419.83215     696.2465     432.5446
   1419.81689     696.1530     431.8885   1419.81689     696.1530     431.8885
   1419.80164     696.9795     432.2708   1419.80164     696.9795     432.2708
   1419.78638     695.9102     431.1393   1419.78638     695.9102     431.1393
   1419.77112     697.8524     431.6033   1419.77112     697.8524     431.6033
   1419.75586     697.0903     430.8820   1419.75586     697.0903     430.8820
   1419.74060     697.2855     430.9429   1419.74060     697.2855     430.9429
   1419.72534     698.0944     430.0344   1419.72534     698.0944     430.0344
   1419.71008     699.6511     429.0683   1419.71008     699.6511     429.0683
   1419.69482     698.4111     429.2852   1419.69482     698.4111     429.2852
   1419.67957     698.3854     429.6897   1419.67957     698.3854     429.6897
   1419.66431     699.4337     428.3779   1419.66431     699.4337     428.3779
   1419.64905     699.7543     429.2829   1419.64905     699.7543     429.2829
   1419.63379     700.3181     428.6746   1419.63379     700.3181     428.6746
   1419.61853     700.1589     427.6696   1419.61853     700.1589     427.6696
   1419.60327     700.0850     427.6751   1419.60327     700.0850     427.6751
   1419.58801     701.9470     427.0667   1419.58801     701.9470     427.0667
   1419.57275     701.7452     426.6225   1419.57275     701.7452     426.6225
   1419.55750     702.4177     427.0646   1419.55750     702.4177     427.0646
   1419.54224     702.2311     427.3498   1419.54224     702.2311     427.3498
   1419.52698     701.9639     426.8636   1419.52698     701.9639     426.8636
   1419.51172     704.1468     426.7821   1419.51172     704.1468     426.7821
   1419.49646     703.5001     426.0822   1419.49646     703.5001     426.0822
   1419.48120     704.1710     426.4264   1419.48120     704.1710     426.4264
   1419.46594     704.0053     426.4362   1419.46594     704.0053     426.4362
   1419.45068     704.8440     426.4004   1419.45068     704.8440     426.4004
   1419.43542     705.3150     426.1639   1419.43542     705.3150     426.1639
   1419.42017     705.4999     425.6761   1419.42017     705.4999     425.6761
   1419.40491     706.3950     426.4174   1419.40491     706.3950     426.4174
   1419.38965     706.4810     425.7430   1419.38965     706.4810     425.7430
   1419.37439     706.8109     425.4082   1419.37439     706.8109     425.4082
   1419.35913     707.8930     426.0234   1419.35913     707.8930     426.0234
   1419.34387     708.2244     425.8240   1419.34387     708.2244     425.8240
   1419.32861     708.5109     425.8294   1419.32861     708.5109     425.8294
   1419.31335     707.8054     426.0646   1419.31335     707.8054     426.0646
   1419.29810     709.7096     426.2977   1419.29810     709.7096     426.2977
   1419.28284     709.5703     425.6836   1419.28284     709.5703     425.6836
   1419.26758     710.2783     426.6608   1419.26758     710.2783     426.6608
   1419.25232     708.9509     425.5922   1419.25232     708.9509     425.5922
   1419.23706     711.3533     425.4017   1419.23706     711.3533     425.4017
   1419.22180     711.8902     426.2181   1419.22180     711.8902     426.2181
   1419.20654     712.5139     426.0698   1419.20654     712.5139     426.0698
   1419.19128     712.8181     426.4518   1419.19128     712.8181     426.4518
   1419.17603     713.1314     426.6573   1419.17603     713.1314     426.6573
   1419.16077     714.5746     426.3314   1419.16077     714.5746     426.3314
   1419.14551     714.0051     426.5948   1419.14551     714.0051     426.5948
   1419.13025     714.3737     426.9127   1419.13025     714.3737     426.9127
   1419.11499     715.8864     426.8708   1419.11499     715.8864     426.8708
   1419.09973     717.0146     426.8217   1419.09973     717.0146     426.8217
   1419.08447     717.6127     426.9937   1419.08447     717.6127     426.9937
   1419.06921     718.3058     428.2687   1419.06921     718.3058     428.2687
   1419.05396     718.2960     427.6682   1419.05396     718.2960     427.6682
   1419.03870     719.7805     428.4004   1419.03870     719.7805     428.4004
   1419.02344     718.1923     428.4208   1419.02344     718.1923     428.4208
   1419.00818     720.2021     429.0897   1419.00818     720.2021     429.0897
   1418.99292     720.4733     429.0596   1418.99292     720.4733     429.0596
   1418.97766     721.4279     429.3034   1418.97766     721.4279     429.3034
   1418.96240     721.6842     429.0168   1418.96240     721.6842     429.0168
   1418.94714     722.8779     429.9525   1418.94714     722.8779     429.9525
   1418.93188     722.7435     429.9850   1418.93188     722.7435     429.9850
   1418.91663     723.9294     430.4109   1418.91663     723.9294     430.4109
   1418.90137     724.8244     430.3625   1418.90137     724.8244     430.3625
   1418.88611     724.6107     431.4976   1418.88611     724.6107     431.4976
   1418.87085     726.4731     431.8734   1418.87085     726.4731     431.8734
   1418.85559     725.7332     432.4113   1418.85559     725.7332     432.4113
   1418.84033     727.9185     432.8377   1418.84033     727.9185     432.8377
   1418.82507     728.1963     432.2036   1418.82507     728.1963     432.2036
   1418.80981     727.9984     432.8182   1418.80981     727.9984     432.8182
   1418.79456     729.4183     434.3796   1418.79456     729.4183     434.3796
   1418.77930     730.5754     433.9175   1418.77930     730.5754     433.9175
   1418.76404     731.0753     433.8698   1418.76404     731.0753     433.8698
   1418.74878     730.4511     435.0770   1418.74878     730.4511     435.0770
   1418.73352     732.0450     434.8840   1418.73352     732.0450     434.8840
   1418.71826     733.6248     436.0476   1418.71826     733.6248     436.0476
   1418.70300     734.8524     436.1830   1418.70300     734.8524     436.1830
   1418.68774     733.9241     436.2729   1418.68774     733.9241     436.2729
   1418.67249     734.9929     437.7083   1418.67249     734.9929     437.7083
   1418.65723     736.8722     438.3102   1418.65723     736.8722     438.3102
   1418.64197     735.8349     437.9438   1418.64197     735.8349     437.9438
   1418.62671     738.2763     439.4783   1418.62671     738.2763     439.4783
   1418.61145     740.2695     438.8970   1418.61145     740.2695     438.8970
   1418.59619     738.5967     440.3777   1418.59619     738.5967     440.3777
   1418.58093     740.5922     440.8042   1418.58093     740.5922     440.8042
   1418.56567     740.9210     440.8794   1418.56567     740.9210     440.8794
   1418.55042     742.6603     442.0400   1418.55042     742.6603     442.0400
   1418.53516     741.9424     442.5327   1418.53516     741.9424     442.5327
   1418.51990     743.9895     443.5926   1418.51990     743.9895     443.5926
   1418.50464     744.0056     443.3297   1418.50464     744.0056     443.3297
   1418.48938     745.5511     444.0394   1418.48938     745.5511     444.0394
   1418.47412     746.2753     444.8003   1418.47412     746.2753     444.8003
   1418.45886     747.0752     445.5159   1418.45886     747.0752     445.5159
   1418.44360     746.9985     446.6089   1418.44360     746.9985     446.6089
   1418.42834     748.6016     446.7298   1418.42834     748.6016     446.7298
   1418.41309     749.3027     447.9628   1418.41309     749.3027     447.9628
   1418.39783     750.8650     449.2169   1418.39783     750.8650     449.2169
   1418.38257     751.5343     448.7555   1418.38257     751.5343     448.7555
   1418.36731     752.4209     449.0045   1418.36731     752.4209     449.0045
   1418.35205     752.0249     450.7605   1418.35205     752.0249     450.7605
   1418.33679     754.5179     451.8189   1418.33679     754.5179     451.8189
   1418.32153     753.1612     451.6836   1418.32153     753.1612     451.6836
   1418.30627     755.9831     452.6489   1418.30627     755.9831     452.6489
   1418.29102     755.8723     453.9197   1418.29102     755.8723     453.9197
   1418.27576     757.8101     453.9959   1418.27576     757.8101     453.9959
   1418.26050     758.3275     454.9834   1418.26050     758.3275     454.9834
   1418.24524     759.2252     455.4940   1418.24524     759.2252     455.4940
   1418.22998     758.3258     456.9218   1418.22998     758.3258     456.9218
   1418.21472     761.4958     457.1100   1418.21472     761.4958     457.1100
   1418.19946     761.9086     457.9902   1418.19946     761.9086     457.9902
   1418.18420     763.0701     458.8580   1418.18420     763.0701     458.8580
   1418.16895     763.7526     458.5264   1418.16895     763.7526     458.5264
   1418.15369     764.7952     460.8461   1418.15369     764.7952     460.8461
   1418.13843     764.6964     461.4461   1418.13843     764.6964     461.4461
   1418.12317     765.1755     461.9993   1418.12317     765.1755     461.9993
   1418.10791     767.4957     463.0555   1418.10791     767.4957     463.0555
   1418.09265     769.2159     463.8313   1418.09265     769.2159     463.8313
   1418.07739     767.8171     464.9085   1418.07739     767.8171     464.9085
   1418.06213     769.4332     464.2281   1418.06213     769.4332     464.2281
   1418.04688     770.9553     466.1769   1418.04688     770.9553     466.1769
   1418.03162     771.4980     466.5261   1418.03162     771.4980     466.5261
   1418.01636     773.1275     467.9123   1418.01636     773.1275     467.9123
   1418.00110     773.7029     469.0155   1418.00110     773.7029     469.0155
   1417.98584     773.8165     469.4795   1417.98584     773.8165     469.4795
   1417.97058     776.2239     471.2330   1417.97058     776.2239     471.2330
   1417.95532     776.7257     470.4290   1417.95532     776.7257     470.4290
   1417.94006     778.5052     471.4881   1417.94006     778.5052     471.4881
   1417.92480     779.5154     473.0995   1417.92480     779.5154     473.0995
   1417.90955     779.8638     474.3716   1417.90955     779.8638     474.3716
   1417.89429     780.3555     475.0808   1417.89429     780.3555     475.0808
   1417.87903     780.9332     476.3038   1417.87903     780.9332     476.3038
   1417.86377     783.1884     477.2071   1417.86377     783.1884     477.2071
   1417.84851     783.3109     477.7695   1417.84851     783.3109     477.7695
   1417.83325     784.7043     478.8840   1417.83325     784.7043     478.8840
   1417.81799     785.4376     479.1161   1417.81799     785.4376     479.1161
   1417.80273     787.0579     480.2669   1417.80273     787.0579     480.2669
   1417.78748     787.7884     481.5293   1417.78748     787.7884     481.5293
   1417.77222     788.2643     482.6364   1417.77222     788.2643     482.6364
   1417.75696     790.7206     482.6913   1417.75696     790.7206     482.6913
   1417.74170     790.2628     484.0617   1417.74170     790.2628     484.0617
   1417.72644     790.0310     484.5879   1417.72644     790.0310     484.5879
   1417.71118     791.6891     486.4958   1417.71118     791.6891     486.4958
   1417.69592     791.7498     485.8216   1417.69592     791.7498     485.8216
   1417.68066     793.4749     487.3095   1417.68066     793.4749     487.3095
   1417.66541     794.0323     488.8149   1417.66541     794.0323     488.8149
   1417.65015     795.4229     489.5976   1417.65015     795.4229     489.5976
   1417.63489     797.0933     490.5968   1417.63489     797.0933     490.5968
   1417.61963     796.9400     491.1403   1417.61963     796.9400     491.1403
   1417.60437     797.6945     491.4060   1417.60437     797.6945     491.4060
   1417.58911     798.6074     492.4388   1417.58911     798.6074     492.4388
   1417.57385     800.2917     494.1992   1417.57385     800.2917     494.1992
   1417.55859     801.8466     494.7080   1417.55859     801.8466     494.7080
   1417.54333     802.3812     496.6571   1417.54333     802.3812     496.6571
   1417.52808     803.0356     496.8912   1417.52808     803.0356     496.8912
   1417.51282     803.2762     497.6378   1417.51282     803.2762     497.6378
   1417.49756     802.6111     497.9877   1417.49756     802.6111     497.9877
   1417.48230     805.2833     499.1001   1417.48230     805.2833     499.1001
   1417.46704     806.3769     499.7111   1417.46704     806.3769     499.7111
   1417.45178     806.1250     501.9899   1417.45178     806.1250     501.9899
   1417.43652     807.0532     501.3069   1417.43652     807.0532     501.3069
   1417.42126     808.7849     502.5451   1417.42126     808.7849     502.5451
   1417.40601     808.8785     502.6559   1417.40601     808.8785     502.6559
   1417.39075     810.7805     504.5098   1417.39075     810.7805     504.5098
   1417.37549     809.9675     505.6806   1417.37549     809.9675     505.6806
   1417.36023     811.5350     506.2556   1417.36023     811.5350     506.2556
   1417.34497     811.2071     507.0913   1417.34497     811.2071     507.0913
   1417.32971     811.9418     507.6423   1417.32971     811.9418     507.6423
   1417.31445     814.6891     507.9133   1417.31445     814.6891     507.9133
   1417.29919     815.6057     509.0279   1417.29919     815.6057     509.0279
   1417.28394     814.1897     509.7036   1417.28394     814.1897     509.7036
   1417.26868     815.4014     510.7905   1417.26868     815.4014     510.7905
   1417.25342     817.0315     511.2504   1417.25342     817.0315     511.2504
   1417.23816     817.9179     512.5403   1417.23816     817.9179     512.5403
   1417.22290     817.7426     512.6810   1417.22290     817.7426     512.6810
   1417.20764     819.3869     513.5656   1417.20764     819.3869     513.5656
   1417.19238     821.0859     515.2355   1417.19238     821.0859     515.2355
   1417.17712     820.2498     514.6607   1417.17712     820.2498     514.6607
   1417.16187     819.5588     516.0582   1417.16187     819.5588     516.0582
   1417.14661     821.1153     516.7376   1417.14661     821.1153     516.7376
   1417.13135     823.3577     517.7405   1417.13135     823.3577     517.7405
   1417.11609     822.5878     518.6234   1417.11609     822.5878     518.6234
   1417.10083     824.2701     518.7915   1417.10083     824.2701     518.7915
   1417.08557     825.0058     520.1836   1417.08557     825.0058     520.1836
   1417.07031     825.7422     519.2625   1417.07031     825.7422     519.2625
   1417.05505     824.4670     520.4478   1417.05505     824.4670     520.4478
   1417.03979     824.8281     521.4053   1417.03979     824.8281     521.4053
   1417.02454     826.4498     521.7776   1417.02454     826.4498     521.7776
   1417.00928     827.7036     522.6739   1417.00928     827.7036     522.6739
   1416.99402     828.0094     521.7812   1416.99402     828.0094     521.7812
   1416.97876     828.1856     524.5613   1416.97876     828.1856     524.5613
   1416.96350     827.3445     523.8024   1416.96350     827.3445     523.8024
   1416.94824     830.6044     523.5548   1416.94824     830.6044     523.5548
   1416.93298     828.5467     525.4453   1416.93298     828.5467     525.4453
   1416.91772     829.0076     526.1738   1416.91772     829.0076     526.1738
   1416.90247     830.2940     526.8734   1416.90247     830.2940     526.8734
   1416.88721     829.1285     526.0919   1416.88721     829.1285     526.0919
   1416.87195     832.3489     526.3628   1416.87195     832.3489     526.3628
   1416.85669     831.1458     527.2221   1416.85669     831.1458     527.2221
   1416.84143     830.9310     527.4095   1416.84143     830.9310     527.4095
   1416.82617     831.4599     527.6617   1416.82617     831.4599     527.6617
   1416.81091     832.4548     528.5438   1416.81091     832.4548     528.5438
   1416.79565     833.7594     528.3002   1416.79565     833.7594     528.3002
   1416.78040     833.3201     528.8547   1416.78040     833.3201     528.8547
   1416.76514     833.1830     530.2119   1416.76514     833.1830     530.2119
   1416.74988     832.1084     529.1841   1416.74988     832.1084     529.1841
   1416.73462     832.8236     529.3196   1416.73462     832.8236     529.3196
   1416.71936     834.3896     530.3366   1416.71936     834.3896     530.3366
   1416.70410     834.7533     529.7100   1416.70410     834.7533     529.7100
   1416.68884     834.8547     530.6057   1416.68884     834.8547     530.6057
   1416.67358     834.8244     529.9637   1416.67358     834.8244     529.9637
   1416.65833     835.2430     530.6196   1416.65833     835.2430     530.6196
   1416.64307     834.4606     530.8935   1416.64307     834.4606     530.8935
   1416.62781     834.8813     530.2105   1416.62781     834.8813     530.2105
   1416.61255     835.4223     531.2856   1416.61255     835.4223     531.2856
   1416.59729     835.0637     530.8369   1416.59729     835.0637     530.8369
   1416.58203     834.3093     530.9109   1416.58203     834.3093     530.9109
   1416.56677     834.4608     531.1314   1416.56677     834.4608     531.1314
   1416.55151     834.2768     532.1761   1416.55151     834.2768     532.1761
   1416.53625     834.6404     531.9766   1416.53625     834.6404     531.9766
   1416.52100     835.5859     530.2403   1416.52100     835.5859     530.2403
   1416.50574     835.5966     532.0319   1416.50574     835.5966     532.0319
   1416.49048     834.4984     531.6370   1416.49048     834.4984     531.6370
   1416.47522     834.2087     530.2042   1416.47522     834.2087     530.2042
   1416.45996     834.1577     530.5061   1416.45996     834.1577     530.5061
   1416.44470     833.8383     530.5920   1416.44470     833.8383     530.5920
   1416.42944     834.1180     530.8031   1416.42944     834.1180     530.8031
   1416.41418     836.2908     530.1732   1416.41418     836.2908     530.1732
   1416.39893     834.8860     530.9047   1416.39893     834.8860     530.9047
   1416.38367     834.1814     529.3519   1416.38367     834.1814     529.3519
   1416.36841     833.8370     530.1761   1416.36841     833.8370     530.1761
   1416.35315     833.0037     529.6702   1416.35315     833.0037     529.6702
   1416.33789     832.6846     529.5911   1416.33789     832.6846     529.5911
   1416.32263     833.8118     529.2952   1416.32263     833.8118     529.2952
   1416.30737     833.1002     528.7049   1416.30737     833.1002     528.7049
   1416.29211     833.0088     528.3817   1416.29211     833.0088     528.3817
   1416.27686     832.2545     528.1176   1416.27686     832.2545     528.1176
   1416.26160     830.9257     528.0503   1416.26160     830.9257     528.0503
   1416.24634     831.8242     527.2587   1416.24634     831.8242     527.2587
   1416.23108     831.0995     528.1500   1416.23108     831.0995     528.1500
   1416.21582     829.5781     526.4337   1416.21582     829.5781     526.4337
   1416.20056     830.3870     526.3567   1416.20056     830.3870     526.3567
   1416.18530     830.1626     526.2665   1416.18530     830.1626     526.2665
   1416.17004     830.2631     525.8904   1416.17004     830.2631     525.8904
   1416.15479     828.6853     525.2699   1416.15479     828.6853     525.2699
   1416.13953     828.7093     525.3074   1416.13953     828.7093     525.3074
   1416.12427     829.3404     523.9578   1416.12427     829.3404     523.9578
   1416.10901     827.7910     524.3144   1416.10901     827.7910     524.3144
   1416.09375     827.9576     523.7026   1416.09375     827.9576     523.7026
   1416.07849     826.7911     523.7476   1416.07849     826.7911     523.7476
   1416.06323     827.9347     523.4628   1416.06323     827.9347     523.4628
   1416.04797     825.1350     522.0288   1416.04797     825.1350     522.0288
   1416.03271     826.2117     522.4301   1416.03271     826.2117     522.4301
   1416.01746     824.6492     521.1623   1416.01746     824.6492     521.1623
   1416.00220     825.0219     521.7642   1416.00220     825.0219     521.7642
   1415.98694     824.1002     521.2732   1415.98694     824.1002     521.2732
   1415.97168     822.8387     521.2607   1415.97168     822.8387     521.2607
   1415.95642     823.4319     519.4311   1415.95642     823.4319     519.4311
   1415.94116     821.9899     519.5854   1415.94116     821.9899     519.5854
   1415.92590     821.5251     518.6011   1415.92590     821.5251     518.6011
   1415.91064     820.1313     517.8015   1415.91064     820.1313     517.8015
   1415.89539     820.4445     517.8516   1415.89539     820.4445     517.8516
   1415.88013     819.3629     517.5250   1415.88013     819.3629     517.5250
   1415.86487     818.7337     516.5433   1415.86487     818.7337     516.5433
   1415.84961     817.8612     515.7090   1415.84961     817.8612     515.7090
   1415.83435     817.7455     515.2627   1415.83435     817.7455     515.2627
   1415.81909     816.0539     515.5703   1415.81909     816.0539     515.5703
   1415.80383     816.7342     514.5217   1415.80383     816.7342     514.5217
   1415.78857     815.0378     514.6706   1415.78857     815.0378     514.6706
   1415.77332     814.5623     513.3884   1415.77332     814.5623     513.3884
   1415.75806     813.5189     512.5362   1415.75806     813.5189     512.5362
   1415.74280     812.9920     511.8081   1415.74280     812.9920     511.8081
   1415.72754     812.8180     511.0240   1415.72754     812.8180     511.0240
   1415.71228     810.9515     511.5149   1415.71228     810.9515     511.5149
   1415.69702     809.2007     510.3723   1415.69702     809.2007     510.3723
   1415.68176     809.0219     509.5799   1415.68176     809.0219     509.5799
   1415.66650     807.7632     509.3975   1415.66650     807.7632     509.3975
   1415.65125     807.8380     509.9363   1415.65125     807.8380     509.9363
   1415.63599     806.1036     508.5222   1415.63599     806.1036     508.5222
   1415.62073     804.0971     507.0263   1415.62073     804.0971     507.0263
   1415.60547     805.6324     507.2742   1415.60547     805.6324     507.2742
   1415.59021     804.7292     506.3574   1415.59021     804.7292     506.3574
   1415.57495     802.5251     505.9545   1415.57495     802.5251     505.9545
   1415.55969     801.1700     504.8983   1415.55969     801.1700     504.8983
   1415.54443     801.1641     505.0845   1415.54443     801.1641     505.0845
   1415.52917     800.4490     504.3352   1415.52917     800.4490     504.3352
   1415.51392     799.4191     503.1982   1415.51392     799.4191     503.1982
   1415.49866     797.6961     503.4621   1415.49866     797.6961     503.4621
   1415.48340     796.3080     502.0717   1415.48340     796.3080     502.0717
   1415.46814     796.2026     501.6140   1415.46814     796.2026     501.6140
   1415.45288     794.6359     501.0736   1415.45288     794.6359     501.0736
   1415.43762     794.3664     500.9661   1415.43762     794.3664     500.9661
   1415.42236     791.6297     499.6412   1415.42236     791.6297     499.6412
   1415.40710     790.5781     498.9056   1415.40710     790.5781     498.9056
   1415.39185     789.4742     498.0432   1415.39185     789.4742     498.0432
   1415.37659     789.6367     498.0681   1415.37659     789.6367     498.0681
   1415.36133     787.3483     496.6719   1415.36133     787.3483     496.6719
   1415.34607     786.4274     495.8324   1415.34607     786.4274     495.8324
   1415.33081     785.5153     495.2000   1415.33081     785.5153     495.2000
   1415.31555     784.5976     494.4467   1415.31555     784.5976     494.4467
   1415.30029     783.0189     494.1523   1415.30029     783.0189     494.1523
   1415.28503     781.6655     492.9317   1415.28503     781.6655     492.9317
   1415.26978     779.6832     492.4302   1415.26978     779.6832     492.4302
   1415.25452     779.9590     491.5554   1415.25452     779.9590     491.5554
   1415.23926     778.0872     491.7582   1415.23926     778.0872     491.7582
   1415.22400     776.6351     490.8499   1415.22400     776.6351     490.8499
   1415.20874     775.3199     490.0000   1415.20874     775.3199     490.0000
   1415.19348     774.6069     489.4955   1415.19348     774.6069     489.4955
   1415.17822     772.0270     488.5214   1415.17822     772.0270     488.5214
   1415.16296     769.5546     487.4749   1415.16296     769.5546     487.4749
   1415.14771     768.8512     486.5730   1415.14771     768.8512     486.5730
   1415.13245     767.1170     485.9856   1415.13245     767.1170     485.9856
   1415.11719     767.0804     484.9182   1415.11719     767.0804     484.9182
   1415.10193     764.3626     484.1426   1415.10193     764.3626     484.1426
   1415.08667     763.5980     484.0410   1415.08667     763.5980     484.0410
   1415.07141     760.4720     482.1381   1415.07141     760.4720     482.1381
   1415.05615     760.0707     482.2356   1415.05615     760.0707     482.2356
   1415.04089     759.2537     481.4312   1415.04089     759.2537     481.4312
   1415.02563     756.9213     479.1654   1415.02563     756.9213     479.1654
   1415.01038     755.5428     479.3797   1415.01038     755.5428     479.3797
   1414.99512     754.0557     478.5809   1414.99512     754.0557     478.5809
   1414.97986     751.5880     477.3058   1414.97986     751.5880     477.3058
   1414.96460     751.6050     476.4628   1414.96460     751.6050     476.4628
   1414.94934     748.7100     475.8808   1414.94934     748.7100     475.8808
   1414.93408     746.7444     475.1107   1414.93408     746.7444     475.1107
   1414.91882     746.3168     474.3635   1414.91882     746.3168     474.3635
   1414.90356     742.9044     472.2094   1414.90356     742.9044     472.2094
   1414.88831     741.1793     471.9112   1414.88831     741.1793     471.9112
   1414.87305     739.2404     470.4759   1414.87305     739.2404     470.4759
   1414.85779     737.5574     470.0076   1414.85779     737.5574     470.0076
   1414.84253     735.5035     469.1583   1414.84253     735.5035     469.1583
   1414.82727     733.6016     467.7153   1414.82727     733.6016     467.7153
   1414.81201     732.1083     467.5234   1414.81201     732.1083     467.5234
   1414.79675     730.7054     466.4005   1414.79675     730.7054     466.4005
   1414.78149     727.9829     465.5880   1414.78149     727.9829     465.5880
   1414.76624     726.4210     464.1638   1414.76624     726.4210     464.1638
   1414.75098     723.1807     464.0885   1414.75098     723.1807     464.0885
   1414.73572     723.2447     461.9738   1414.73572     723.2447     461.9738
   1414.72046     719.8919     460.2309   1414.72046     719.8919     460.2309
   1414.70520     718.4974     459.9056   1414.70520     718.4974     459.9056
   1414.68994     715.9492     458.9481   1414.68994     715.9492     458.9481
   1414.67468     714.2146     458.2488   1414.67468     714.2146     458.2488
   1414.65942     711.4088     457.0299   1414.65942     711.4088     457.0299
   1414.64417     709.5766     455.3601   1414.64417     709.5766     455.3601
   1414.62891     705.8090     454.8509   1414.62891     705.8090     454.8509
   1414.61365     704.3630     453.0804   1414.61365     704.3630     453.0804
   1414.59839     703.5456     453.1902   1414.59839     703.5456     453.1902
   1414.58313     700.8690     451.6794   1414.58313     700.8690     451.6794
   1414.56787     698.5110     450.4283   1414.56787     698.5110     450.4283
   1414.55261     696.9445     448.9802   1414.55261     696.9445     448.9802
   1414.53735     693.8258     447.7494   1414.53735     693.8258     447.7494
   1414.52209     691.1254     445.8481   1414.52209     691.1254     445.8481
   1414.50684     689.4935     445.8242   1414.50684     689.4935     445.8242
   1414.49158     687.3359     443.1030   1414.49158     687.3359     443.1030
   1414.47632     684.0459     442.3721   1414.47632     684.0459     442.3721
   1414.46106     681.8347     441.7864   1414.46106     681.8347     441.7864
   1414.44580     680.1542     440.5224   1414.44580     680.1542     440.5224
   1414.43054     676.1269     438.9665   1414.43054     676.1269     438.9665
   1414.41528     674.4064     437.7083   1414.41528     674.4064     437.7083
   1414.40002     672.0222     436.6166   1414.40002     672.0222     436.6166
   1414.38477     670.6355     435.5723   1414.38477     670.6355     435.5723
   1414.36951     666.9325     434.3172   1414.36951     666.9325     434.3172
   1414.35425     664.4610     431.9621   1414.35425     664.4610     431.9621
   1414.33899     661.7289     431.7064   1414.33899     661.7289     431.7064
   1414.32373     659.6542     430.2859   1414.32373     659.6542     430.2859
   1414.30847     656.8845     428.8740   1414.30847     656.8845     428.8740
   1414.29321     654.6107     427.3148   1414.29321     654.6107     427.3148
   1414.27795     651.3337     426.0544   1414.27795     651.3337     426.0544
   1414.26270     649.0475     424.7213   1414.26270     649.0475     424.7213
   1414.24744     646.6647     423.3593   1414.24744     646.6647     423.3593
   1414.23218     643.1963     422.2991   1414.23218     643.1963     422.2991
   1414.21692     640.5109     420.8691   1414.21692     640.5109     420.8691
   1414.20166     637.8719     418.9641   1414.20166     637.8719     418.9641
   1414.18640     634.2833     418.3464   1414.18640     634.2833     418.3464
   1414.17114     632.5071     416.6757   1414.17114     632.5071     416.6757
   1414.15588     629.0065     414.9655   1414.15588     629.0065     414.9655
   1414.14062     628.2241     414.0555   1414.14062     628.2241     414.0555
   1414.12537     624.3320     412.1419   1414.12537     624.3320     412.1419
   1414.11011     621.3070     411.2977   1414.11011     621.3070     411.2977
   1414.09485     619.1135     409.7606   1414.09485     619.1135     409.7606
   1414.07959     615.7503     408.3296   1414.07959     615.7503     408.3296
   1414.06433     612.9201     406.4696   1414.06433     612.9201     406.4696
   1414.04907     610.2106     404.6955   1414.04907     610.2106     404.6955
   1414.03381     607.3953     403.6468   1414.03381     607.3953     403.6468
   1414.01855     605.1039     401.9025   1414.01855     605.1039     401.9025
   1414.00330     627.5828     407.8726   1414.00330     627.5828     407.8726
   1413.98804     600.7047     399.8208   1413.98804     600.7047     399.8208
   1413.97278     595.0880     397.1446   1413.97278     595.0880     397.1446
   1413.95752     591.9664     395.9219   1413.95752     591.9664     395.9219
   1413.94226     589.4834     393.7470   1413.94226     589.4834     393.7470
   1413.92700     585.9634     393.1313   1413.92700     585.9634     393.1313
   1413.91174     583.0486     391.4248   1413.91174     583.0486     391.4248
   1413.89648     580.4015     389.4782   1413.89648     580.4015     389.4782
   1413.88123     578.1124     388.2003   1413.88123     578.1124     388.2003
   1413.86597     575.8388     387.8707   1413.86597     575.8388     387.8707
   1413.85071     572.3457     385.5102   1413.85071     572.3457     385.5102
   1413.83545     568.7748     384.3214   1413.83545     568.7748     384.3214
   1413.82019     565.3405     382.4262   1413.82019     565.3405     382.4262
   1413.80493     562.4044     380.6758   1413.80493     562.4044     380.6758
   1413.78967     559.4548     379.3267   1413.78967     559.4548     379.3267
   1413.77441     556.9769     377.2808   1413.77441     556.9769     377.2808
   1413.75916     553.3375     375.8335   1413.75916     553.3375     375.8335
   1413.74390     550.8362     374.4266   1413.74390     550.8362     374.4266
   1413.72864     547.7219     372.9852   1413.72864     547.7219     372.9852
   1413.71338     543.9269     371.5328   1413.71338     543.9269     371.5328
   1413.69812     541.0272     369.5174   1413.69812     541.0272     369.5174
   1413.68286     538.3662     368.4392   1413.68286     538.3662     368.4392
   1413.66760     534.5975     366.6270   1413.66760     534.5975     366.6270
   1413.65234     531.4619     365.4731   1413.65234     531.4619     365.4731
   1413.63708     529.1002     363.2544   1413.63708     529.1002     363.2544
   1413.62183     526.4647     362.2217   1413.62183     526.4647     362.2217
   1413.60657     522.7830     360.2361   1413.60657     522.7830     360.2361
   1413.59131     520.1141     359.1783   1413.59131     520.1141     359.1783
   1413.57605     516.9795     357.4019   1413.57605     516.9795     357.4019
   1413.56079     514.2388     355.5323   1413.56079     514.2388     355.5323
   1413.54553     510.8179     354.4674   1413.54553     510.8179     354.4674
   1413.53027     508.3057     352.5967   1413.53027     508.3057     352.5967
   1413.51501     505.1332     351.2596   1413.51501     505.1332     351.2596
   1413.49976     502.3891     350.2650   1413.49976     502.3891     350.2650
   1413.48450     499.3671     348.8173   1413.48450     499.3671     348.8173
   1413.46924     496.3150     346.8283   1413.46924     496.3150     346.8283
   1413.45398     493.1152     344.6196   1413.45398     493.1152     344.6196
   1413.43872     490.4303     343.5900   1413.43872     490.4303     343.5900
   1413.42346     488.0716     342.2850   1413.42346     488.0716     342.2850
   1413.40820     484.8088     339.9850   1413.40820     484.8088     339.9850
   1413.39294     481.9053     339.0437   1413.39294     481.9053     339.0437
   1413.37769     478.8698     337.4230   1413.37769     478.8698     337.4230
   1413.36243     475.8012     335.9647   1413.36243     475.8012     335.9647
   1413.34717     473.1370     334.7502   1413.34717     473.1370     334.7502
   1413.33191     470.0551     332.9228   1413.33191     470.0551     332.9228
   1413.31665     467.3921     332.0169   1413.31665     467.3921     332.0169
   1413.30139     465.9432     330.3173   1413.30139     465.9432     330.3173
   1413.28613     461.5445     329.0324   1413.28613     461.5445     329.0324
   1413.27087     459.0075     327.9966   1413.27087     459.0075     327.9966
   1413.25562     456.8074     325.6718   1413.25562     456.8074     325.6718
   1413.24036     454.8242     324.5905   1413.24036     454.8242     324.5905
   1413.22510     452.0527     323.1034   1413.22510     452.0527     323.1034
   1413.20984     448.7638     322.0847   1413.20984     448.7638     322.0847
   1413.19458     446.3652     320.4044   1413.19458     446.3652     320.4044
   1413.17932     443.7463     319.8470   1413.17932     443.7463     319.8470
   1413.16406     440.4580     317.8952   1413.16406     440.4580     317.8952
   1413.14880     438.4965     316.7461   1413.14880     438.4965     316.7461
   1413.13354     436.4411     315.4274   1413.13354     436.4411     315.4274
   1413.11829     433.5092     314.7675   1413.11829     433.5092     314.7675
   1413.10303     432.1978     312.9772   1413.10303     432.1978     312.9772
   1413.08777     429.4376     312.0841   1413.08777     429.4376     312.0841
   1413.07251     426.7311     310.5187   1413.07251     426.7311     310.5187
   1413.05725     424.2583     309.2916   1413.05725     424.2583     309.2916
   1413.04199     421.9796     307.9116   1413.04199     421.9796     307.9116
   1413.02673     419.9613     307.4986   1413.02673     419.9613     307.4986
   1413.01147     418.8817     306.1920   1413.01147     418.8817     306.1920
   1412.99622     415.3912     305.1415   1412.99622     415.3912     305.1415
   1412.98096     413.7584     303.8856   1412.98096     413.7584     303.8856
   1412.96570     411.1582     302.8632   1412.96570     411.1582     302.8632
   1412.95044     409.1888     301.7801   1412.95044     409.1888     301.7801
   1412.93518     407.8909     300.6017   1412.93518     407.8909     300.6017
   1412.91992     405.4330     300.3016   1412.91992     405.4330     300.3016
   1412.90466     403.4540     299.3334   1412.90466     403.4540     299.3334
   1412.88940     402.1763     298.3005   1412.88940     402.1763     298.3005
   1412.87415     400.3156     297.4762   1412.87415     400.3156     297.4762
   1412.85889     397.6414     296.3670   1412.85889     397.6414     296.3670
   1412.84363     396.3350     295.6477   1412.84363     396.3350     295.6477
   1412.82837     394.9908     294.6734   1412.82837     394.9908     294.6734
   1412.81311     393.3449     294.3973   1412.81311     393.3449     294.3973
   1412.79785     391.3965     292.7784   1412.79785     391.3965     292.7784
   1412.78259     390.0526     292.7834   1412.78259     390.0526     292.7834
   1412.76733     389.1113     291.8256   1412.76733     389.1113     291.8256
   1412.75208     387.3336     291.1547   1412.75208     387.3336     291.1547
   1412.73682     385.8789     290.4175   1412.73682     385.8789     290.4175
   1412.72156     384.3615     290.1136   1412.72156     384.3615     290.1136
   1412.70630     383.4388     289.1863   1412.70630     383.4388     289.1863
   1412.69104     381.4710     288.5318   1412.69104     381.4710     288.5318
   1412.67578     380.0845     288.1848   1412.67578     380.0845     288.1848
   1412.66052     379.7166     288.1455   1412.66052     379.7166     288.1455
   1412.64526     378.5657     288.0635   1412.64526     378.5657     288.0635
   1412.63000     377.4768     287.2098   1412.63000     377.4768     287.2098
   1412.61475     376.5705     287.1190   1412.61475     376.5705     287.1190
   1412.59949     375.1355     286.4040   1412.59949     375.1355     286.4040
   1412.58423     374.3802     286.1801   1412.58423     374.3802     286.1801
   1412.56897     373.5966     285.6227   1412.56897     373.5966     285.6227
   1412.55371     373.4993     285.6999   1412.55371     373.4993     285.6999
   1412.53845     372.6424     285.5909   1412.53845     372.6424     285.5909
   1412.52319     371.5840     285.1599   1412.52319     371.5840     285.1599
   1412.50793     370.9341     285.2742   1412.50793     370.9341     285.2742
   1412.49268     370.8260     284.8895   1412.49268     370.8260     284.8895
   1412.47742     369.8177     285.0835   1412.47742     369.8177     285.0835
   1412.46216     369.6815     285.1555   1412.46216     369.6815     285.1555
   1412.44690     369.2563     284.9601   1412.44690     369.2563     284.9601
   1412.43164     369.2690     285.4933   1412.43164     369.2690     285.4933
   1412.41638     367.8516     285.2593   1412.41638     367.8516     285.2593
   1412.40112     368.0135     285.6608   1412.40112     368.0135     285.6608
   1412.38586     368.2993     285.6230   1412.38586     368.2993     285.6230
   1412.37061     367.6391     285.7868   1412.37061     367.6391     285.7868
   1412.35535     368.2015     285.9751   1412.35535     368.2015     285.9751
   1412.34009     367.8613     286.6881   1412.34009     367.8613     286.6881
   1412.32483     368.2336     286.8385   1412.32483     368.2336     286.8385
   1412.30957     367.9357     287.5677   1412.30957     367.9357     287.5677
   1412.29431     368.5487     287.4618   1412.29431     368.5487     287.4618
   1412.27905     368.5588     288.2127   1412.27905     368.5588     288.2127
   1412.26379     369.1237     288.7307   1412.26379     369.1237     288.7307
   1412.24854     369.6547     289.0351   1412.24854     369.6547     289.0351
   1412.23328     370.0807     289.4933   1412.23328     370.0807     289.4933
   1412.21802     370.5380     290.4474   1412.21802     370.5380     290.4474
   1412.20276     370.6187     291.3342   1412.20276     370.6187     291.3342