#     FILENAME=!Skynet_57528_lach-hhg-171_20554_20994.cyb.fits
#     BASENAME=Skynet_57528_lach-hhg-171_20554_20994
#     SRC_NAME=lach-hhg-171
#     OBSERVER=hhgmadison16_9500
#     DATE_OBS=2016-05-20T18:22:00.370
#        OBSID=20554
#      SCANNUM=20994
#          MJD=57528.7663
#          UTC=66210
#     SCANTYPE=track
#     DATAMODE=HIRES
#     TUNEFREQ=1420.0000
# Actual_FREQ1=1420.0000
# Actual_FREQ2=1420.0000
#    LO1Tuning=6870.000
#     RFFILTER=1355_1435
#        OBSBW=-15.6250
#        NCHAN=1024 
#        FOCUS=37.0489
#           RA=05:22:19.23
#          DEC=36:29:37.35
#      RA(hrs)=5.372000
#     DEC(deg)=36.493700
#    AZIM(deg)=108.807
#    ELEV(deg)=84.521
#     IFattens=11.00, 10.00
#      WARNING=None
#    TCAL_XL1=7.9635
#    TCAL_YR1=9.1340
#    TCAL_XL2=7.9635
#    TCAL_YR2=9.1340
#     TRX_XL1=11.7060
#     TRX_YR1=11.7060
#     TRX_XL2=11.7060
#     TRX_YR2=11.7060
#        TAVE=1.0000
#Freq1(MHz)          XL1          YR1  Freq2(MHz)          XL2          YR2 

   1427.81250     296.7508     272.5097   1427.81250     296.7508     272.5097
   1427.79724     296.9702     273.4460   1427.79724     296.9702     273.4460
   1427.78198     297.3918     275.1211   1427.78198     297.3918     275.1211
   1427.76672     297.7267     276.2637   1427.76672     297.7267     276.2637
   1427.75146     298.9661     277.5835   1427.75146     298.9661     277.5835
   1427.73621     299.1330     279.4293   1427.73621     299.1330     279.4293
   1427.72095     299.5491     280.4236   1427.72095     299.5491     280.4236
   1427.70569     301.2724     282.2664   1427.70569     301.2724     282.2664
   1427.69043     300.8542     283.9973   1427.69043     300.8542     283.9973
   1427.67517     302.7486     285.0990   1427.67517     302.7486     285.0990
   1427.65991     303.6223     286.7322   1427.65991     303.6223     286.7322
   1427.64465     304.5696     289.2115   1427.64465     304.5696     289.2115
   1427.62939     304.7189     290.4658   1427.62939     304.7189     290.4658
   1427.61414     305.6841     291.9567   1427.61414     305.6841     291.9567
   1427.59888     307.0210     294.3068   1427.59888     307.0210     294.3068
   1427.58362     307.8780     296.1336   1427.58362     307.8780     296.1336
   1427.56836     308.6596     297.9349   1427.56836     308.6596     297.9349
   1427.55310     310.0175     299.8016   1427.55310     310.0175     299.8016
   1427.53784     311.5037     301.8595   1427.53784     311.5037     301.8595
   1427.52258     312.3376     303.7691   1427.52258     312.3376     303.7691
   1427.50732     313.8359     305.7246   1427.50732     313.8359     305.7246
   1427.49207     314.9159     307.4128   1427.49207     314.9159     307.4128
   1427.47681     316.4488     309.8959   1427.47681     316.4488     309.8959
   1427.46155     317.7305     311.7650   1427.46155     317.7305     311.7650
   1427.44629     319.1473     313.9794   1427.44629     319.1473     313.9794
   1427.43103     320.8510     315.8563   1427.43103     320.8510     315.8563
   1427.41577     321.8534     318.4922   1427.41577     321.8534     318.4922
   1427.40051     323.4565     320.3841   1427.40051     323.4565     320.3841
   1427.38525     325.4366     322.9629   1427.38525     325.4366     322.9629
   1427.37000     326.5237     324.6849   1427.37000     326.5237     324.6849
   1427.35474     328.4668     326.7625   1427.35474     328.4668     326.7625
   1427.33948     330.5201     329.2507   1427.33948     330.5201     329.2507
   1427.32422     331.6780     331.5638   1427.32422     331.6780     331.5638
   1427.30896     334.1836     334.3217   1427.30896     334.1836     334.3217
   1427.29370     335.4035     335.9323   1427.29370     335.4035     335.9323
   1427.27844     337.0454     338.7704   1427.27844     337.0454     338.7704
   1427.26318     339.0446     341.3774   1427.26318     339.0446     341.3774
   1427.24792     341.1215     343.6335   1427.24792     341.1215     343.6335
   1427.23267     342.4981     346.0627   1427.23267     342.4981     346.0627
   1427.21741     344.7243     348.3010   1427.21741     344.7243     348.3010
   1427.20215     346.5451     350.4167   1427.20215     346.5451     350.4167
   1427.18689     347.7267     353.1672   1427.18689     347.7267     353.1672
   1427.17163     350.4966     355.7574   1427.17163     350.4966     355.7574
   1427.15637     351.8398     358.2138   1427.15637     351.8398     358.2138
   1427.14111     354.5916     361.0527   1427.14111     354.5916     361.0527
   1427.12585     356.5916     363.2090   1427.12585     356.5916     363.2090
   1427.11060     358.4380     365.4084   1427.11060     358.4380     365.4084
   1427.09534     360.8951     368.1802   1427.09534     360.8951     368.1802
   1427.08008     362.3698     370.2558   1427.08008     362.3698     370.2558
   1427.06482     364.7670     372.2243   1427.06482     364.7670     372.2243
   1427.04956     366.1947     375.4888   1427.04956     366.1947     375.4888
   1427.03430     369.2785     378.4498   1427.03430     369.2785     378.4498
   1427.01904     371.5398     380.9813   1427.01904     371.5398     380.9813
   1427.00378     373.8767     383.2938   1427.00378     373.8767     383.2938
   1426.98853     375.9432     385.1422   1426.98853     375.9432     385.1422
   1426.97327     377.7249     388.8792   1426.97327     377.7249     388.8792
   1426.95801     380.2750     390.7131   1426.95801     380.2750     390.7131
   1426.94275     382.1031     393.4570   1426.94275     382.1031     393.4570
   1426.92749     385.1747     395.5973   1426.92749     385.1747     395.5973
   1426.91223     387.1818     397.7593   1426.91223     387.1818     397.7593
   1426.89697     389.4470     400.7808   1426.89697     389.4470     400.7808
   1426.88171     392.2984     402.8718   1426.88171     392.2984     402.8718
   1426.86646     393.6890     405.8372   1426.86646     393.6890     405.8372
   1426.85120     396.9694     407.6371   1426.85120     396.9694     407.6371
   1426.83594     398.8816     410.6913   1426.83594     398.8816     410.6913
   1426.82068     401.7346     412.5743   1426.82068     401.7346     412.5743
   1426.80542     403.1890     414.8350   1426.80542     403.1890     414.8350
   1426.79016     405.7854     417.1475   1426.79016     405.7854     417.1475
   1426.77490     408.4471     419.9600   1426.77490     408.4471     419.9600
   1426.75964     411.1108     421.8200   1426.75964     411.1108     421.8200
   1426.74438     413.9865     424.5536   1426.74438     413.9865     424.5536
   1426.72913     416.1961     427.1206   1426.72913     416.1961     427.1206
   1426.71387     418.3769     429.0908   1426.71387     418.3769     429.0908
   1426.69861     420.7060     430.2478   1426.69861     420.7060     430.2478
   1426.68335     422.8042     433.0013   1426.68335     422.8042     433.0013
   1426.66809     425.5691     435.8561   1426.66809     425.5691     435.8561
   1426.65283     427.7567     438.1505   1426.65283     427.7567     438.1505
   1426.63757     430.9665     440.3857   1426.63757     430.9665     440.3857
   1426.62231     435.9386     445.8879   1426.62231     435.9386     445.8879
   1426.60706     435.1712     444.4054   1426.60706     435.1712     444.4054
   1426.59180     437.6181     446.4337   1426.59180     437.6181     446.4337
   1426.57654     439.9030     449.1162   1426.57654     439.9030     449.1162
   1426.56128     442.3967     450.9630   1426.56128     442.3967     450.9630
   1426.54602     445.2380     452.8436   1426.54602     445.2380     452.8436
   1426.53076     448.2861     454.2241   1426.53076     448.2861     454.2241
   1426.51550     449.8251     456.3124   1426.51550     449.8251     456.3124
   1426.50024     452.6249     458.4998   1426.50024     452.6249     458.4998
   1426.48499     454.4639     460.7559   1426.48499     454.4639     460.7559
   1426.46973     457.4322     463.2715   1426.46973     457.4322     463.2715
   1426.45447     459.6298     464.0381   1426.45447     459.6298     464.0381
   1426.43921     461.3347     466.1041   1426.43921     461.3347     466.1041
   1426.42395     464.8682     468.0857   1426.42395     464.8682     468.0857
   1426.40869     467.2483     469.5582   1426.40869     467.2483     469.5582
   1426.39343     470.6533     472.2880   1426.39343     470.6533     472.2880
   1426.37817     471.7236     473.7614   1426.37817     471.7236     473.7614
   1426.36292     474.1559     475.1091   1426.36292     474.1559     475.1091
   1426.34766     475.9415     477.7621   1426.34766     475.9415     477.7621
   1426.33240     478.5906     479.2591   1426.33240     478.5906     479.2591
   1426.31714     481.8539     480.8520   1426.31714     481.8539     480.8520
   1426.30188     482.8758     482.9320   1426.30188     482.8758     482.9320
   1426.28662     485.9915     483.9835   1426.28662     485.9915     483.9835
   1426.27136     487.8893     484.6307   1426.27136     487.8893     484.6307
   1426.25610     490.1042     486.9585   1426.25610     490.1042     486.9585
   1426.24084     492.5245     488.8923   1426.24084     492.5245     488.8923
   1426.22559     494.0698     490.5890   1426.22559     494.0698     490.5890
   1426.21033     496.4021     491.0882   1426.21033     496.4021     491.0882
   1426.19507     498.5265     492.9203   1426.19507     498.5265     492.9203
   1426.17981     500.7691     494.0745   1426.17981     500.7691     494.0745
   1426.16455     503.4036     495.6240   1426.16455     503.4036     495.6240
   1426.14929     505.4726     497.0015   1426.14929     505.4726     497.0015
   1426.13403     507.5795     498.2780   1426.13403     507.5795     498.2780
   1426.11877     509.3469     499.5086   1426.11877     509.3469     499.5086
   1426.10352     511.1206     501.1017   1426.10352     511.1206     501.1017
   1426.08826     513.5781     502.2811   1426.08826     513.5781     502.2811
   1426.07300     515.4488     503.1477   1426.07300     515.4488     503.1477
   1426.05774     517.7656     504.5587   1426.05774     517.7656     504.5587
   1426.04248     520.1786     504.7494   1426.04248     520.1786     504.7494
   1426.02722     521.7643     507.0014   1426.02722     521.7643     507.0014
   1426.01196     523.7508     508.3575   1426.01196     523.7508     508.3575
   1425.99670     526.0098     509.1200   1425.99670     526.0098     509.1200
   1425.98145     528.3727     510.3120   1425.98145     528.3727     510.3120
   1425.96619     529.8138     510.4205   1425.96619     529.8138     510.4205
   1425.95093     530.7601     511.8254   1425.95093     530.7601     511.8254
   1425.93567     533.1345     511.3982   1425.93567     533.1345     511.3982
   1425.92041     535.1973     513.2737   1425.92041     535.1973     513.2737
   1425.90515     536.6253     514.3503   1425.90515     536.6253     514.3503
   1425.88989     538.8171     515.1996   1425.88989     538.8171     515.1996
   1425.87463     540.9078     517.1553   1425.87463     540.9078     517.1553
   1425.85938     542.3819     517.0672   1425.85938     542.3819     517.0672
   1425.84412     543.6059     518.4455   1425.84412     543.6059     518.4455
   1425.82886     545.5385     518.7165   1425.82886     545.5385     518.7165
   1425.81360     547.4570     519.1935   1425.81360     547.4570     519.1935
   1425.79834     549.7761     520.2785   1425.79834     549.7761     520.2785
   1425.78308     550.3348     520.1438   1425.78308     550.3348     520.1438
   1425.76782     551.9127     521.0330   1425.76782     551.9127     521.0330
   1425.75256     554.6858     521.6604   1425.75256     554.6858     521.6604
   1425.73730     555.3470     522.5788   1425.73730     555.3470     522.5788
   1425.72205     557.4362     522.9008   1425.72205     557.4362     522.9008
   1425.70679     559.4500     523.7026   1425.70679     559.4500     523.7026
   1425.69153     559.4484     523.3284   1425.69153     559.4484     523.3284
   1425.67627     561.3195     524.0280   1425.67627     561.3195     524.0280
   1425.66101     563.0633     525.4409   1425.66101     563.0633     525.4409
   1425.64575     564.9628     525.8347   1425.64575     564.9628     525.8347
   1425.63049     565.6372     526.1085   1425.63049     565.6372     526.1085
   1425.61523     566.6380     526.5582   1425.61523     566.6380     526.5582
   1425.59998     569.0993     526.9379   1425.59998     569.0993     526.9379
   1425.58472     570.1254     527.7828   1425.58472     570.1254     527.7828
   1425.56946     570.9644     526.8364   1425.56946     570.9644     526.8364
   1425.55420     571.4116     527.8367   1425.55420     571.4116     527.8367
   1425.53894     572.8256     527.9173   1425.53894     572.8256     527.9173
   1425.52368     573.8255     528.6815   1425.52368     573.8255     528.6815
   1425.50842     575.5539     528.1753   1425.50842     575.5539     528.1753
   1425.49316     576.9333     528.8079   1425.49316     576.9333     528.8079
   1425.47791     577.5675     529.1620   1425.47791     577.5675     529.1620
   1425.46265     580.6033     529.9504   1425.46265     580.6033     529.9504
   1425.44739     579.9042     529.7163   1425.44739     579.9042     529.7163
   1425.43213     581.6549     529.3534   1425.43213     581.6549     529.3534
   1425.41687     583.1682     530.5168   1425.41687     583.1682     530.5168
   1425.40161     583.7281     530.0032   1425.40161     583.7281     530.0032
   1425.38635     583.6968     530.7070   1425.38635     583.6968     530.7070
   1425.37109     584.9572     530.5908   1425.37109     584.9572     530.5908
   1425.35583     586.1658     530.4082   1425.35583     586.1658     530.4082
   1425.34058     586.4634     530.8419   1425.34058     586.4634     530.8419
   1425.32532     587.0375     530.9588   1425.32532     587.0375     530.9588
   1425.31006     588.4637     531.3707   1425.31006     588.4637     531.3707
   1425.29480     589.3359     530.6986   1425.29480     589.3359     530.6986
   1425.27954     590.0841     530.9864   1425.27954     590.0841     530.9864
   1425.26428     589.9282     531.3500   1425.26428     589.9282     531.3500
   1425.24902     590.8439     530.8178   1425.24902     590.8439     530.8178
   1425.23376     592.2830     532.0283   1425.23376     592.2830     532.0283
   1425.21851     593.9133     530.8455   1425.21851     593.9133     530.8455
   1425.20325     593.6044     530.7352   1425.20325     593.6044     530.7352
   1425.18799     594.1190     531.0352   1425.18799     594.1190     531.0352
   1425.17273     595.0728     531.5993   1425.17273     595.0728     531.5993
   1425.15747     595.3804     530.8167   1425.15747     595.3804     530.8167
   1425.14221     595.6359     530.6284   1425.14221     595.6359     530.6284
   1425.12695     596.5271     530.9243   1425.12695     596.5271     530.9243
   1425.11169     596.6099     530.7082   1425.11169     596.6099     530.7082
   1425.09644     598.0724     530.0692   1425.09644     598.0724     530.0692
   1425.08118     598.3761     529.3423   1425.08118     598.3761     529.3423
   1425.06592     598.9713     530.1837   1425.06592     598.9713     530.1837
   1425.05066     598.9218     529.4467   1425.05066     598.9218     529.4467
   1425.03540     599.8842     529.3591   1425.03540     599.8842     529.3591
   1425.02014     600.2388     529.3699   1425.02014     600.2388     529.3699
   1425.00488     600.2862     528.9373   1425.00488     600.2862     528.9373
   1424.98962     600.4493     529.2275   1424.98962     600.4493     529.2275
   1424.97437     601.8019     529.4101   1424.97437     601.8019     529.4101
   1424.95911     601.1443     528.4830   1424.95911     601.1443     528.4830
   1424.94385     600.8567     528.2384   1424.94385     600.8567     528.2384
   1424.92859     601.7307     528.2115   1424.92859     601.7307     528.2115
   1424.91333     602.9238     527.7328   1424.91333     602.9238     527.7328
   1424.89807     602.1621     528.1309   1424.89807     602.1621     528.1309
   1424.88281     602.8876     527.2729   1424.88281     602.8876     527.2729
   1424.86755     603.8486     527.2422   1424.86755     603.8486     527.2422
   1424.85229     603.2305     526.4775   1424.85229     603.2305     526.4775
   1424.83704     603.5354     525.5477   1424.83704     603.5354     525.5477
   1424.82178     602.8347     525.8629   1424.82178     602.8347     525.8629
   1424.80652     604.5050     525.2443   1424.80652     604.5050     525.2443
   1424.79126     603.4664     525.6719   1424.79126     603.4664     525.6719
   1424.77600     603.9648     524.9613   1424.77600     603.9648     524.9613
   1424.76074     603.8614     524.9413   1424.76074     603.8614     524.9413
   1424.74548     604.4439     523.8536   1424.74548     604.4439     523.8536
   1424.73022     605.8383     523.6164   1424.73022     605.8383     523.6164
   1424.71497     605.1268     523.1733   1424.71497     605.1268     523.1733
   1424.69971     604.3588     523.0729   1424.69971     604.3588     523.0729
   1424.68445     604.8707     521.8417   1424.68445     604.8707     521.8417
   1424.66919     604.8389     522.7194   1424.66919     604.8389     522.7194
   1424.65393     604.0179     521.7843   1424.65393     604.0179     521.7843
   1424.63867     605.0875     521.6595   1424.63867     605.0875     521.6595
   1424.62341     604.9778     520.5897   1424.62341     604.9778     520.5897
   1424.60815     604.5396     520.0228   1424.60815     604.5396     520.0228
   1424.59290     604.8894     519.6673   1424.59290     604.8894     519.6673
   1424.57764     604.4415     519.8355   1424.57764     604.4415     519.8355
   1424.56238     604.0717     517.9421   1424.56238     604.0717     517.9421
   1424.54712     604.0722     517.8389   1424.54712     604.0722     517.8389
   1424.53186     603.9796     518.7159   1424.53186     603.9796     518.7159
   1424.51660     604.5444     518.2559   1424.51660     604.5444     518.2559
   1424.50134     604.2529     517.5524   1424.50134     604.2529     517.5524
   1424.48608     603.5574     516.1639   1424.48608     603.5574     516.1639
   1424.47083     604.0396     516.4915   1424.47083     604.0396     516.4915
   1424.45557     603.4528     515.5828   1424.45557     603.4528     515.5828
   1424.44031     603.8243     515.8682   1424.44031     603.8243     515.8682
   1424.42505     603.2206     515.2108   1424.42505     603.2206     515.2108
   1424.40979     603.5963     514.5281   1424.40979     603.5963     514.5281
   1424.39453     602.7390     513.6021   1424.39453     602.7390     513.6021
   1424.37927     602.8146     512.8936   1424.37927     602.8146     512.8936
   1424.36401     603.7003     512.2388   1424.36401     603.7003     512.2388
   1424.34875     602.6278     512.5685   1424.34875     602.6278     512.5685
   1424.33350     601.6960     512.1814   1424.33350     601.6960     512.1814
   1424.31824     602.6897     510.6096   1424.31824     602.6897     510.6096
   1424.30298     601.0431     510.1537   1424.30298     601.0431     510.1537
   1424.28772     601.3408     510.4185   1424.28772     601.3408     510.4185
   1424.27246     601.5271     509.7184   1424.27246     601.5271     509.7184
   1424.25720     601.0944     509.4914   1424.25720     601.0944     509.4914
   1424.24194     600.9700     508.5357   1424.24194     600.9700     508.5357
   1424.22668     600.9985     507.8551   1424.22668     600.9985     507.8551
   1424.21143     600.5248     506.3567   1424.21143     600.5248     506.3567
   1424.19617     599.7426     506.0107   1424.19617     599.7426     506.0107
   1424.18091     600.0871     506.3106   1424.18091     600.0871     506.3106
   1424.16565     599.3433     505.6117   1424.16565     599.3433     505.6117
   1424.15039     599.2815     505.2652   1424.15039     599.2815     505.2652
   1424.13513     597.3425     504.7850   1424.13513     597.3425     504.7850
   1424.11987     598.4495     503.7643   1424.11987     598.4495     503.7643
   1424.10461     597.9023     503.6820   1424.10461     597.9023     503.6820
   1424.08936     598.0956     503.7397   1424.08936     598.0956     503.7397
   1424.07410     598.1250     502.3589   1424.07410     598.1250     502.3589
   1424.05884     597.1484     502.0030   1424.05884     597.1484     502.0030
   1424.04358     597.6158     501.1515   1424.04358     597.6158     501.1515
   1424.02832     597.3546     499.8661   1424.02832     597.3546     499.8661
   1424.01306     596.6721     500.0342   1424.01306     596.6721     500.0342
   1423.99780     596.7180     498.9169   1423.99780     596.7180     498.9169
   1423.98254     596.1138     497.9720   1423.98254     596.1138     497.9720
   1423.96729     595.6021     498.2325   1423.96729     595.6021     498.2325
   1423.95203     595.5765     497.7656   1423.95203     595.5765     497.7656
   1423.93677     594.7448     496.7195   1423.93677     594.7448     496.7195
   1423.92151     595.1706     496.1768   1423.92151     595.1706     496.1768
   1423.90625     594.8289     496.5173   1423.90625     594.8289     496.5173
   1423.89099     593.6897     495.2176   1423.89099     593.6897     495.2176
   1423.87573     593.8964     494.0485   1423.87573     593.8964     494.0485
   1423.86047     593.0028     494.2276   1423.86047     593.0028     494.2276
   1423.84521     592.3272     492.7498   1423.84521     592.3272     492.7498
   1423.82996     593.3336     492.5252   1423.82996     593.3336     492.5252
   1423.81470     592.3997     492.2348   1423.81470     592.3997     492.2348
   1423.79944     592.3500     491.2142   1423.79944     592.3500     491.2142
   1423.78418     592.8677     490.9105   1423.78418     592.8677     490.9105
   1423.76892     591.9465     491.1078   1423.76892     591.9465     491.1078
   1423.75366     591.9071     489.2522   1423.75366     591.9071     489.2522
   1423.73840     590.0480     488.5656   1423.73840     590.0480     488.5656
   1423.72314     590.8844     488.2759   1423.72314     590.8844     488.2759
   1423.70789     590.0757     488.0785   1423.70789     590.0757     488.0785
   1423.69263     588.8006     486.4304   1423.69263     588.8006     486.4304
   1423.67737     589.2908     486.2119   1423.67737     589.2908     486.2119
   1423.66211     588.7151     486.2924   1423.66211     588.7151     486.2924
   1423.64685     589.2927     484.8450   1423.64685     589.2927     484.8450
   1423.63159     589.3422     484.1120   1423.63159     589.3422     484.1120
   1423.61633     588.5096     484.1601   1423.61633     588.5096     484.1601
   1423.60107     587.4835     482.5417   1423.60107     587.4835     482.5417
   1423.58582     587.2386     482.6662   1423.58582     587.2386     482.6662
   1423.57056     587.3229     480.9335   1423.57056     587.3229     480.9335
   1423.55530     586.8363     479.9658   1423.55530     586.8363     479.9658
   1423.54004     587.4617     481.4531   1423.54004     587.4617     481.4531
   1423.52478     586.2102     479.5269   1423.52478     586.2102     479.5269
   1423.50952     586.3088     479.9228   1423.50952     586.3088     479.9228
   1423.49426     585.9947     478.6735   1423.49426     585.9947     478.6735
   1423.47900     585.1193     478.0243   1423.47900     585.1193     478.0243
   1423.46375     585.4016     476.7256   1423.46375     585.4016     476.7256
   1423.44849     584.6259     476.6089   1423.44849     584.6259     476.6089
   1423.43323     584.2625     475.9841   1423.43323     584.2625     475.9841
   1423.41797     583.2217     474.9916   1423.41797     583.2217     474.9916
   1423.40271     584.1636     474.8293   1423.40271     584.1636     474.8293
   1423.38745     583.1657     473.5687   1423.38745     583.1657     473.5687
   1423.37219     583.5318     473.3859   1423.37219     583.5318     473.3859
   1423.35693     583.3195     472.7100   1423.35693     583.3195     472.7100
   1423.34167     582.7777     472.0476   1423.34167     582.7777     472.0476
   1423.32642     583.2410     471.6374   1423.32642     583.2410     471.6374
   1423.31116     582.2827     470.1716   1423.31116     582.2827     470.1716
   1423.29590     581.7072     470.4858   1423.29590     581.7072     470.4858
   1423.28064     582.0041     469.8574   1423.28064     582.0041     469.8574
   1423.26538     580.4626     468.4884   1423.26538     580.4626     468.4884
   1423.25012     581.6025     468.0380   1423.25012     581.6025     468.0380
   1423.23486     580.5044     467.8639   1423.23486     580.5044     467.8639
   1423.21960     580.8563     467.0000   1423.21960     580.8563     467.0000
   1423.20435     581.0807     466.8594   1423.20435     581.0807     466.8594
   1423.18909     580.0145     465.9704   1423.18909     580.0145     465.9704
   1423.17383     580.1310     464.3224   1423.17383     580.1310     464.3224
   1423.15857     579.6350     463.2070   1423.15857     579.6350     463.2070
   1423.14331     579.8285     463.2728   1423.14331     579.8285     463.2728
   1423.12805     579.6475     462.6744   1423.12805     579.6475     462.6744
   1423.11279     578.7787     462.2019   1423.11279     578.7787     462.2019
   1423.09753     578.9244     460.9318   1423.09753     578.9244     460.9318
   1423.08228     579.2013     460.5059   1423.08228     579.2013     460.5059
   1423.06702     578.0175     459.6330   1423.06702     578.0175     459.6330
   1423.05176     578.9575     458.5749   1423.05176     578.9575     458.5749
   1423.03650     577.4499     459.0013   1423.03650     577.4499     459.0013
   1423.02124     577.6899     457.6773   1423.02124     577.6899     457.6773
   1423.00598     577.1411     457.0075   1423.00598     577.1411     457.0075
   1422.99072     576.8399     456.1244   1422.99072     576.8399     456.1244
   1422.97546     577.0421     455.5559   1422.97546     577.0421     455.5559
   1422.96021     578.1318     455.0717   1422.96021     578.1318     455.0717
   1422.94495     577.8184     453.9849   1422.94495     577.8184     453.9849
   1422.92969     575.8607     453.7108   1422.92969     575.8607     453.7108
   1422.91443     576.6041     453.3854   1422.91443     576.6041     453.3854
   1422.89917     575.7371     452.7888   1422.89917     575.7371     452.7888
   1422.88391     576.7624     452.0491   1422.88391     576.7624     452.0491
   1422.86865     575.8517     451.3870   1422.86865     575.8517     451.3870
   1422.85339     575.8399     450.1082   1422.85339     575.8399     450.1082
   1422.83813     575.3842     449.6269   1422.83813     575.3842     449.6269
   1422.82288     576.2165     449.5633   1422.82288     576.2165     449.5633
   1422.80762     575.7589     448.0566   1422.80762     575.7589     448.0566
   1422.79236     574.1210     448.0305   1422.79236     574.1210     448.0305
   1422.77710     574.6473     446.1386   1422.77710     574.6473     446.1386
   1422.76184     574.4176     445.4607   1422.76184     574.4176     445.4607
   1422.74658     574.4759     445.7485   1422.74658     574.4759     445.7485
   1422.73132     574.1161     444.5104   1422.73132     574.1161     444.5104
   1422.71606     574.9321     444.0394   1422.71606     574.9321     444.0394
   1422.70081     573.8688     443.5468   1422.70081     573.8688     443.5468
   1422.68555     573.7586     441.9334   1422.68555     573.7586     441.9334
   1422.67029     574.6483     440.9368   1422.67029     574.6483     440.9368
   1422.65503     574.7249     440.9819   1422.65503     574.7249     440.9819
   1422.63977     572.9497     440.5434   1422.63977     572.9497     440.5434
   1422.62451     573.2392     439.8179   1422.62451     573.2392     439.8179
   1422.60925     573.3111     438.7533   1422.60925     573.3111     438.7533
   1422.59399     572.5986     438.2513   1422.59399     572.5986     438.2513
   1422.57874     573.5045     437.4314   1422.57874     573.5045     437.4314
   1422.56348     573.1730     436.0910   1422.56348     573.1730     436.0910
   1422.54822     572.4914     435.5231   1422.54822     572.4914     435.5231
   1422.53296     573.6089     435.6021   1422.53296     573.6089     435.6021
   1422.51770     572.7581     434.9091   1422.51770     572.7581     434.9091
   1422.50244     571.5425     434.0270   1422.50244     571.5425     434.0270
   1422.48718     572.9860     433.2924   1422.48718     572.9860     433.2924
   1422.47192     572.4166     432.2135   1422.47192     572.4166     432.2135
   1422.45667     571.7640     432.2010   1422.45667     571.7640     432.2010
   1422.44141     571.8549     431.4717   1422.44141     571.8549     431.4717
   1422.42615     572.9888     430.3764   1422.42615     572.9888     430.3764
   1422.41089     572.1421     429.2830   1422.41089     572.1421     429.2830
   1422.39563     572.2053     428.6547   1422.39563     572.2053     428.6547
   1422.38037     571.8353     428.1715   1422.38037     571.8353     428.1715
   1422.36511     571.9484     427.9213   1422.36511     571.9484     427.9213
   1422.34985     572.1977     427.1164   1422.34985     572.1977     427.1164
   1422.33459     572.0043     426.5282   1422.33459     572.0043     426.5282
   1422.31934     571.1777     426.1011   1422.31934     571.1777     426.1011
   1422.30408     572.1516     424.5842   1422.30408     572.1516     424.5842
   1422.28882     571.6884     424.6160   1422.28882     571.6884     424.6160
   1422.27356     570.6194     423.2471   1422.27356     570.6194     423.2471
   1422.25830     571.9112     422.3964   1422.25830     571.9112     422.3964
   1422.24304     571.2771     422.2119   1422.24304     571.2771     422.2119
   1422.22778     571.6965     422.0672   1422.22778     571.6965     422.0672
   1422.21252     570.9250     420.8696   1422.21252     570.9250     420.8696
   1422.19727     571.0723     420.4778   1422.19727     571.0723     420.4778
   1422.18201     570.7923     420.0664   1422.18201     570.7923     420.0664
   1422.16675     571.2253     419.0455   1422.16675     571.2253     419.0455
   1422.15149     571.1575     418.6424   1422.15149     571.1575     418.6424
   1422.13623     570.1356     417.3410   1422.13623     570.1356     417.3410
   1422.12097     571.3635     417.2169   1422.12097     571.3635     417.2169
   1422.10571     571.1663     416.0630   1422.10571     571.1663     416.0630
   1422.09045     570.6824     415.0754   1422.09045     570.6824     415.0754
   1422.07520     570.3327     415.1457   1422.07520     570.3327     415.1457
   1422.05994     569.4738     413.8807   1422.05994     569.4738     413.8807
   1422.04468     570.9044     413.5237   1422.04468     570.9044     413.5237
   1422.02942     570.2245     412.6918   1422.02942     570.2245     412.6918
   1422.01416     571.2072     412.2361   1422.01416     571.2072     412.2361
   1421.99890     570.6133     411.9056   1421.99890     570.6133     411.9056
   1421.98364     570.0085     410.4360   1421.98364     570.0085     410.4360
   1421.96838     570.7527     410.1210   1421.96838     570.7527     410.1210
   1421.95312     569.9254     409.2986   1421.95312     569.9254     409.2986
   1421.93787     570.3516     409.0503   1421.93787     570.3516     409.0503
   1421.92261     569.2846     406.9868   1421.92261     569.2846     406.9868
   1421.90735     570.2770     407.3934   1421.90735     570.2770     407.3934
   1421.89209     569.3110     407.1806   1421.89209     569.3110     407.1806
   1421.87683     570.2089     406.2631   1421.87683     570.2089     406.2631
   1421.86157     570.0506     405.4839   1421.86157     570.0506     405.4839
   1421.84631     569.5927     404.2440   1421.84631     569.5927     404.2440
   1421.83105     569.2133     403.8367   1421.83105     569.2133     403.8367
   1421.81580     569.1052     403.0753   1421.81580     569.1052     403.0753
   1421.80054     570.4690     402.2575   1421.80054     570.4690     402.2575
   1421.78528     569.6777     401.3566   1421.78528     569.6777     401.3566
   1421.77002     569.0453     401.3367   1421.77002     569.0453     401.3367
   1421.75476     569.8754     400.4398   1421.75476     569.8754     400.4398
   1421.73950     568.7689     400.3643   1421.73950     568.7689     400.3643
   1421.72424     568.9537     399.2012   1421.72424     568.9537     399.2012
   1421.70898     569.5621     397.8329   1421.70898     569.5621     397.8329
   1421.69373     567.9266     397.6893   1421.69373     567.9266     397.6893
   1421.67847     569.5031     397.2303   1421.67847     569.5031     397.2303
   1421.66321     569.5026     397.1535   1421.66321     569.5026     397.1535
   1421.64795     568.5931     395.9180   1421.64795     568.5931     395.9180
   1421.63269     568.9760     394.4677   1421.63269     568.9760     394.4677
   1421.61743     569.6223     394.0295   1421.61743     569.6223     394.0295
   1421.60217     567.5395     393.0980   1421.60217     567.5395     393.0980
   1421.58691     569.6442     392.5491   1421.58691     569.6442     392.5491
   1421.57166     568.9547     392.5356   1421.57166     568.9547     392.5356
   1421.55640     568.4930     391.7361   1421.55640     568.4930     391.7361
   1421.54114     568.2617     390.7167   1421.54114     568.2617     390.7167
   1421.52588     568.4567     389.6102   1421.52588     568.4567     389.6102
   1421.51062     568.4296     389.5223   1421.51062     568.4296     389.5223
   1421.49536     567.5290     388.5739   1421.49536     567.5290     388.5739
   1421.48010     568.3816     388.4441   1421.48010     568.3816     388.4441
   1421.46484     567.9382     387.4739   1421.46484     567.9382     387.4739
   1421.44958     567.4704     386.6078   1421.44958     567.4704     386.6078
   1421.43433     566.4989     385.5699   1421.43433     566.4989     385.5699
   1421.41907     567.2797     384.8727   1421.41907     567.2797     384.8727
   1421.40381     566.8578     384.5982   1421.40381     566.8578     384.5982
   1421.38855     568.2408     384.3302   1421.38855     568.2408     384.3302
   1421.37329     567.5859     383.5864   1421.37329     567.5859     383.5864
   1421.35803     567.5524     382.7349   1421.35803     567.5524     382.7349
   1421.34277     567.2343     381.8237   1421.34277     567.2343     381.8237
   1421.32751     566.6473     381.5319   1421.32751     566.6473     381.5319
   1421.31226     566.9033     380.6712   1421.31226     566.9033     380.6712
   1421.29700     566.9765     379.3774   1421.29700     566.9765     379.3774
   1421.28174     566.1220     379.7595   1421.28174     566.1220     379.7595
   1421.26648     567.2446     378.1507   1421.26648     567.2446     378.1507
   1421.25122     566.1390     377.4081   1421.25122     566.1390     377.4081
   1421.23596     566.2601     377.2095   1421.23596     566.2601     377.2095
   1421.22070     565.7653     376.3424   1421.22070     565.7653     376.3424
   1421.20544     565.9827     376.3545   1421.20544     565.9827     376.3545
   1421.19019     565.6485     375.5646   1421.19019     565.6485     375.5646
   1421.17493     565.9951     374.2955   1421.17493     565.9951     374.2955
   1421.15967     566.0045     374.0629   1421.15967     566.0045     374.0629
   1421.14441     566.0384     372.9996   1421.14441     566.0384     372.9996
   1421.12915     565.7957     372.5940   1421.12915     565.7957     372.5940
   1421.11389     564.8160     371.7635   1421.11389     564.8160     371.7635
   1421.09863     565.1099     371.1133   1421.09863     565.1099     371.1133
   1421.08337     564.2499     370.8576   1421.08337     564.2499     370.8576
   1421.06812     565.1144     370.0520   1421.06812     565.1144     370.0520
   1421.05286     565.5615     369.4866   1421.05286     565.5615     369.4866
   1421.03760     564.8229     368.1648   1421.03760     564.8229     368.1648
   1421.02234     565.2293     367.9183   1421.02234     565.2293     367.9183
   1421.00708     564.1502     367.5677   1421.00708     564.1502     367.5677
   1420.99182     564.0582     366.9572   1420.99182     564.0582     366.9572
   1420.97656     564.4189     366.0895   1420.97656     564.4189     366.0895
   1420.96130     564.7201     365.8471   1420.96130     564.7201     365.8471
   1420.94604     564.4802     364.8845   1420.94604     564.4802     364.8845
   1420.93079     563.5002     364.2250   1420.93079     563.5002     364.2250
   1420.91553     563.2598     363.4781   1420.91553     563.2598     363.4781
   1420.90027     564.0961     363.3195   1420.90027     564.0961     363.3195
   1420.88501     563.6234     362.8523   1420.88501     563.6234     362.8523
   1420.86975     563.2456     362.1185   1420.86975     563.2456     362.1185
   1420.85449     562.9223     361.0901   1420.85449     562.9223     361.0901
   1420.83923     564.5513     360.2341   1420.83923     564.5513     360.2341
   1420.82397     563.5316     360.8278   1420.82397     563.5316     360.8278
   1420.80872     564.0419     359.5777   1420.80872     564.0419     359.5777
   1420.79346     564.2911     360.2320   1420.79346     564.2911     360.2320
   1420.77820     565.6096     359.5283   1420.77820     565.6096     359.5283
   1420.76294     565.8095     359.6432   1420.76294     565.8095     359.6432
   1420.74768     566.4436     358.9067   1420.74768     566.4436     358.9067
   1420.73242     565.1809     359.0463   1420.73242     565.1809     359.0463
   1420.71716     567.6827     359.2127   1420.71716     567.6827     359.2127
   1420.70190     567.0948     358.6502   1420.70190     567.0948     358.6502
   1420.68665     568.1871     358.7414   1420.68665     568.1871     358.7414
   1420.67139     568.8598     358.6820   1420.67139     568.8598     358.6820
   1420.65613     569.1139     358.1402   1420.65613     569.1139     358.1402
   1420.64087     570.5675     358.2906   1420.64087     570.5675     358.2906
   1420.62561     570.3085     357.7360   1420.62561     570.3085     357.7360
   1420.61035     572.6467     358.5309   1420.61035     572.6467     358.5309
   1420.59509     576.8687     360.5608   1420.59509     576.8687     360.5608
   1420.57983     582.7515     363.0802   1420.57983     582.7515     363.0802
   1420.56458     593.7023     369.9336   1420.56458     593.7023     369.9336
   1420.54932     611.9277     380.9114   1420.54932     611.9277     380.9114
   1420.53406     641.4377     398.2426   1420.53406     641.4377     398.2426
   1420.51880     689.0418     426.4700   1420.51880     689.0418     426.4700
   1420.50354     728.7861     450.7352   1420.50354     728.7861     450.7352
   1420.48828     715.0694     441.1342   1420.48828     715.0694     441.1342
   1420.47302     765.4503     471.2549   1420.47302     765.4503     471.2549
   1420.45776     975.0238     595.0393   1420.45776     975.0238     595.0393
   1420.44250    1157.5596     706.8179   1420.44250    1157.5596     706.8179
   1420.42725    1329.0529     810.2495   1420.42725    1329.0529     810.2495
   1420.41199    1716.8778    1043.3114   1420.41199    1716.8778    1043.3114
   1420.39673    1950.1570    1180.8143   1420.39673    1950.1570    1180.8143
   1420.38147    2044.5886    1238.9781   1420.38147    2044.5886    1238.9781
   1420.36621    2063.1086    1245.5763   1420.36621    2063.1086    1245.5763
   1420.35095    1983.9519    1198.1283   1420.35095    1983.9519    1198.1283
   1420.33569    1788.5422    1080.1337   1420.33569    1788.5422    1080.1337
   1420.32043    1576.1934     950.4162   1420.32043    1576.1934     950.4162
   1420.30518    1482.8206     893.4476   1420.30518    1482.8206     893.4476
   1420.28992    1292.3259     780.0561   1420.28992    1292.3259     780.0561
   1420.27466     923.1479     558.4872   1420.27466     923.1479     558.4872
   1420.25940     725.4983     439.2507   1420.25940     725.4983     439.2507
   1420.24414     644.1882     390.0603   1420.24414     644.1882     390.0603
   1420.22888     603.2548     365.1779   1420.22888     603.2548     365.1779
   1420.21362     584.7477     353.3538   1420.21362     584.7477     353.3538
   1420.19836     573.2880     346.6292   1420.19836     573.2880     346.6292
   1420.18311     568.0936     342.5149   1420.18311     568.0936     342.5149
   1420.16785     564.1119     339.9232   1420.16785     564.1119     339.9232
   1420.15259     562.1881     337.1942   1420.15259     562.1881     337.1942
   1420.13733     560.5781     336.6426   1420.13733     560.5781     336.6426
   1420.12207     557.9812     335.5353   1420.12207     557.9812     335.5353
   1420.10681     557.6401     334.3128   1420.10681     557.6401     334.3128
   1420.09155     555.8200     333.2818   1420.09155     555.8200     333.2818
   1420.07629     555.9624     332.0785   1420.07629     555.9624     332.0785
   1420.06104     553.9254     330.7693   1420.06104     553.9254     330.7693
   1420.04578     554.0364     330.4914   1420.04578     554.0364     330.4914
   1420.03052     553.9506     330.3319   1420.03052     553.9506     330.3319
   1420.01526     554.2394     330.2088   1420.01526     554.2394     330.2088
   1420.00000     554.8077     330.7545   1420.00000     554.8077     330.7545
   1419.98474     555.3761     331.3000   1419.98474     555.3761     331.3000
   1419.96948     555.1361     329.2795   1419.96948     555.1361     329.2795
   1419.95422     554.0708     327.6909   1419.95422     554.0708     327.6909
   1419.93896     552.5260     327.0534   1419.93896     552.5260     327.0534
   1419.92371     552.1181     326.4031   1419.92371     552.1181     326.4031
   1419.90845     553.0509     326.0802   1419.90845     553.0509     326.0802
   1419.89319     552.8494     325.3427   1419.89319     552.8494     325.3427
   1419.87793     551.1768     325.0670   1419.87793     551.1768     325.0670
   1419.86267     552.0941     324.0300   1419.86267     552.0941     324.0300
   1419.84741     552.1666     323.9137   1419.84741     552.1666     323.9137
   1419.83215     552.2958     323.6425   1419.83215     552.2958     323.6425
   1419.81689     551.4952     322.9594   1419.81689     551.4952     322.9594
   1419.80164     551.8703     322.5306   1419.80164     551.8703     322.5306
   1419.78638     552.5590     322.1748   1419.78638     552.5590     322.1748
   1419.77112     551.4089     322.0305   1419.77112     551.4089     322.0305
   1419.75586     551.1277     321.6413   1419.75586     551.1277     321.6413
   1419.74060     552.3030     321.2990   1419.74060     552.3030     321.2990
   1419.72534     551.8885     321.2520   1419.72534     551.8885     321.2520
   1419.71008     552.0811     320.3721   1419.71008     552.0811     320.3721
   1419.69482     552.1734     320.1815   1419.69482     552.1734     320.1815
   1419.67957     552.4101     319.3701   1419.67957     552.4101     319.3701
   1419.66431     551.1145     319.2647   1419.66431     551.1145     319.2647
   1419.64905     551.2505     319.4419   1419.64905     551.2505     319.4419
   1419.63379     552.3056     318.8061   1419.63379     552.3056     318.8061
   1419.61853     551.3512     318.6405   1419.61853     551.3512     318.6405
   1419.60327     553.6514     318.1208   1419.60327     553.6514     318.1208
   1419.58801     551.5735     318.0011   1419.58801     551.5735     318.0011
   1419.57275     551.2831     317.5933   1419.57275     551.2831     317.5933
   1419.55750     551.6550     317.5609   1419.55750     551.6550     317.5609
   1419.54224     552.8189     316.8484   1419.54224     552.8189     316.8484
   1419.52698     552.3381     317.0389   1419.52698     552.3381     317.0389
   1419.51172     553.0919     316.8427   1419.51172     553.0919     316.8427
   1419.49646     552.4115     316.0631   1419.49646     552.4115     316.0631
   1419.48120     552.8378     316.1481   1419.48120     552.8378     316.1481
   1419.46594     552.8013     315.4188   1419.46594     552.8013     315.4188
   1419.45068     552.9880     316.1363   1419.45068     552.9880     316.1363
   1419.43542     553.3223     315.7595   1419.43542     553.3223     315.7595
   1419.42017     553.9985     315.4130   1419.42017     553.9985     315.4130
   1419.40491     553.2449     314.8206   1419.40491     553.2449     314.8206
   1419.38965     554.0015     314.3691   1419.38965     554.0015     314.3691
   1419.37439     553.1982     314.4524   1419.37439     553.1982     314.4524
   1419.35913     553.3858     313.6226   1419.35913     553.3858     313.6226
   1419.34387     554.4297     314.1749   1419.34387     554.4297     314.1749
   1419.32861     554.0012     313.6415   1419.32861     554.0012     313.6415
   1419.31335     554.1880     313.3997   1419.31335     554.1880     313.3997
   1419.29810     554.5212     313.9045   1419.29810     554.5212     313.9045
   1419.28284     554.7281     313.5814   1419.28284     554.7281     313.5814
   1419.26758     554.6664     313.4837   1419.26758     554.6664     313.4837
   1419.25232     553.9559     313.5946   1419.25232     553.9559     313.5946
   1419.23706     554.2491     313.4789   1419.23706     554.2491     313.4789
   1419.22180     555.1343     313.2043   1419.22180     555.1343     313.2043
   1419.20654     556.0805     313.2671   1419.20654     556.0805     313.2671
   1419.19128     554.9730     312.3950   1419.19128     554.9730     312.3950
   1419.17603     555.7224     312.3191   1419.17603     555.7224     312.3191
   1419.16077     555.9880     312.3978   1419.16077     555.9880     312.3978
   1419.14551     555.9861     311.9980   1419.14551     555.9861     311.9980
   1419.13025     556.3132     311.7278   1419.13025     556.3132     311.7278
   1419.11499     557.4376     312.2513   1419.11499     557.4376     312.2513
   1419.09973     556.8172     312.0726   1419.09973     556.8172     312.0726
   1419.08447     556.9914     311.9968   1419.08447     556.9914     311.9968
   1419.06921     557.1928     311.9911   1419.06921     557.1928     311.9911
   1419.05396     557.8093     311.5895   1419.05396     557.8093     311.5895
   1419.03870     557.4387     312.1427   1419.03870     557.4387     312.1427
   1419.02344     558.7423     312.3112   1419.02344     558.7423     312.3112
   1419.00818     557.4073     312.1960   1419.00818     557.4073     312.1960
   1418.99292     558.7528     312.2649   1418.99292     558.7528     312.2649
   1418.97766     558.2531     312.2528   1418.97766     558.2531     312.2528
   1418.96240     559.1277     311.5903   1418.96240     559.1277     311.5903
   1418.94714     558.9938     311.8133   1418.94714     558.9938     311.8133
   1418.93188     559.9042     312.1075   1418.93188     559.9042     312.1075
   1418.91663     559.5315     312.1342   1418.91663     559.5315     312.1342
   1418.90137     560.4216     311.8456   1418.90137     560.4216     311.8456
   1418.88611     560.2602     312.1618   1418.88611     560.2602     312.1618
   1418.87085     561.8337     312.2160   1418.87085     561.8337     312.2160
   1418.85559     560.9130     312.4287   1418.85559     560.9130     312.4287
   1418.84033     561.2083     312.2068   1418.84033     561.2083     312.2068
   1418.82507     562.1121     313.3077   1418.82507     562.1121     313.3077
   1418.80981     562.3309     312.7954   1418.80981     562.3309     312.7954
   1418.79456     561.8240     313.1932   1418.79456     561.8240     313.1932
   1418.77930     562.9889     312.7661   1418.77930     562.9889     312.7661
   1418.76404     564.4619     312.9064   1418.76404     564.4619     312.9064
   1418.74878     563.8540     313.1391   1418.74878     563.8540     313.1391
   1418.73352     563.9673     312.8232   1418.73352     563.9673     312.8232
   1418.71826     564.2721     313.1399   1418.71826     564.2721     313.1399
   1418.70300     564.6394     313.6521   1418.70300     564.6394     313.6521
   1418.68774     565.1095     313.8622   1418.68774     565.1095     313.8622
   1418.67249     566.0666     313.3755   1418.67249     566.0666     313.3755
   1418.65723     564.9680     313.7133   1418.65723     564.9680     313.7133
   1418.64197     565.8761     314.2042   1418.64197     565.8761     314.2042
   1418.62671     567.4299     314.4079   1418.62671     567.4299     314.4079
   1418.61145     566.4810     314.4962   1418.61145     566.4810     314.4962
   1418.59619     566.7245     314.7748   1418.59619     566.7245     314.7748
   1418.58093     567.0601     314.4533   1418.58093     567.0601     314.4533
   1418.56567     567.8383     315.1621   1418.56567     567.8383     315.1621
   1418.55042     568.4356     315.8112   1418.55042     568.4356     315.8112
   1418.53516     568.6105     316.0382   1418.53516     568.6105     316.0382
   1418.51990     569.2576     315.7982   1418.51990     569.2576     315.7982
   1418.50464     569.5045     315.8601   1418.50464     569.5045     315.8601
   1418.48938     571.5364     316.1668   1418.48938     571.5364     316.1668
   1418.47412     570.7161     316.4755   1418.47412     570.7161     316.4755
   1418.45886     571.8550     316.9744   1418.45886     571.8550     316.9744
   1418.44360     571.8046     316.8407   1418.44360     571.8046     316.8407
   1418.42834     571.6239     317.2437   1418.42834     571.6239     317.2437
   1418.41309     572.8299     317.6925   1418.41309     572.8299     317.6925
   1418.39783     572.7084     318.2007   1418.39783     572.7084     318.2007
   1418.38257     574.2015     318.0840   1418.38257     574.2015     318.0840
   1418.36731     574.1791     318.6225   1418.36731     574.1791     318.6225
   1418.35205     574.7666     318.3902   1418.35205     574.7666     318.3902
   1418.33679     574.9413     319.4646   1418.33679     574.9413     319.4646
   1418.32153     575.5353     319.8165   1418.32153     575.5353     319.8165
   1418.30627     576.3116     319.7033   1418.30627     576.3116     319.7033
   1418.29102     576.1257     320.2525   1418.29102     576.1257     320.2525
   1418.27576     576.6981     321.0147   1418.27576     576.6981     321.0147
   1418.26050     576.5887     321.0299   1418.26050     576.5887     321.0299
   1418.24524     577.7160     321.4524   1418.24524     577.7160     321.4524
   1418.22998     578.8762     321.7803   1418.22998     578.8762     321.7803
   1418.21472     578.1910     321.9945   1418.21472     578.1910     321.9945
   1418.19946     579.4570     323.0888   1418.19946     579.4570     323.0888
   1418.18420     579.7677     323.5233   1418.18420     579.7677     323.5233
   1418.16895     580.7048     323.9036   1418.16895     580.7048     323.9036
   1418.15369     580.0528     324.2284   1418.15369     580.0528     324.2284
   1418.13843     581.1783     324.2359   1418.13843     581.1783     324.2359
   1418.12317     581.0795     324.6584   1418.12317     581.0795     324.6584
   1418.10791     581.8746     325.3302   1418.10791     581.8746     325.3302
   1418.09265     583.5380     325.8180   1418.09265     583.5380     325.8180
   1418.07739     584.0895     326.5619   1418.07739     584.0895     326.5619
   1418.06213     583.3118     326.7701   1418.06213     583.3118     326.7701
   1418.04688     583.6653     327.4597   1418.04688     583.6653     327.4597
   1418.03162     585.2687     327.4467   1418.03162     585.2687     327.4467
   1418.01636     585.4507     327.9476   1418.01636     585.4507     327.9476
   1418.00110     586.8134     328.6776   1418.00110     586.8134     328.6776
   1417.98584     586.1418     329.0377   1417.98584     586.1418     329.0377
   1417.97058     587.0991     329.7762   1417.97058     587.0991     329.7762
   1417.95532     587.0934     330.4036   1417.95532     587.0934     330.4036
   1417.94006     587.9082     331.2202   1417.94006     587.9082     331.2202
   1417.92480     589.1389     331.1450   1417.92480     589.1389     331.1450
   1417.90955     588.8505     332.6306   1417.90955     588.8505     332.6306
   1417.89429     589.7127     332.2969   1417.89429     589.7127     332.2969
   1417.87903     591.1276     333.0303   1417.87903     591.1276     333.0303
   1417.86377     591.3447     333.8780   1417.86377     591.3447     333.8780
   1417.84851     592.2414     334.0860   1417.84851     592.2414     334.0860
   1417.83325     591.8065     335.1481   1417.83325     591.8065     335.1481
   1417.81799     593.2891     335.4091   1417.81799     593.2891     335.4091
   1417.80273     592.7220     336.6979   1417.80273     592.7220     336.6979
   1417.78748     594.7890     336.6609   1417.78748     594.7890     336.6609
   1417.77222     594.5689     337.0591   1417.77222     594.5689     337.0591
   1417.75696     594.5670     337.9032   1417.75696     594.5670     337.9032
   1417.74170     595.6760     338.3047   1417.74170     595.6760     338.3047
   1417.72644     595.3753     338.7734   1417.72644     595.3753     338.7734
   1417.71118     597.0053     339.8285   1417.71118     597.0053     339.8285
   1417.69592     596.8599     339.8349   1417.69592     596.8599     339.8349
   1417.68066     597.8766     341.2650   1417.68066     597.8766     341.2650
   1417.66541     598.0814     342.0615   1417.66541     598.0814     342.0615
   1417.65015     599.0852     342.5650   1417.65015     599.0852     342.5650
   1417.63489     598.3819     343.4420   1417.63489     598.3819     343.4420
   1417.61963     599.5944     344.1873   1417.61963     599.5944     344.1873
   1417.60437     599.6888     344.9098   1417.60437     599.6888     344.9098
   1417.58911     600.8481     345.5904   1417.58911     600.8481     345.5904
   1417.57385     601.3704     346.2010   1417.57385     601.3704     346.2010
   1417.55859     601.7805     346.8360   1417.55859     601.7805     346.8360
   1417.54333     602.1204     347.1938   1417.54333     602.1204     347.1938
   1417.52808     603.3376     348.3716   1417.52808     603.3376     348.3716
   1417.51282     603.5464     348.7466   1417.51282     603.5464     348.7466
   1417.49756     604.7116     350.1238   1417.49756     604.7116     350.1238
   1417.48230     604.9559     350.6027   1417.48230     604.9559     350.6027
   1417.46704     605.2344     351.2900   1417.46704     605.2344     351.2900
   1417.45178     605.5390     351.5468   1417.45178     605.5390     351.5468
   1417.43652     606.7927     352.7342   1417.43652     606.7927     352.7342
   1417.42126     606.5475     353.1907   1417.42126     606.5475     353.1907
   1417.40601     607.4852     354.4757   1417.40601     607.4852     354.4757
   1417.39075     607.4814     354.4329   1417.39075     607.4814     354.4329
   1417.37549     608.1760     355.8836   1417.37549     608.1760     355.8836
   1417.36023     607.9836     356.3115   1417.36023     607.9836     356.3115
   1417.34497     609.9282     357.3895   1417.34497     609.9282     357.3895
   1417.32971     609.4232     357.9986   1417.32971     609.4232     357.9986
   1417.31445     609.4872     359.1766   1417.31445     609.4872     359.1766
   1417.29919     610.7239     359.8423   1417.29919     610.7239     359.8423
   1417.28394     611.5782     360.4357   1417.28394     611.5782     360.4357
   1417.26868     611.8773     360.9664   1417.26868     611.8773     360.9664
   1417.25342     611.2485     361.8996   1417.25342     611.2485     361.8996
   1417.23816     612.9669     362.5804   1417.23816     612.9669     362.5804
   1417.22290     613.0642     363.3739   1417.22290     613.0642     363.3739
   1417.20764     613.5895     364.2134   1417.20764     613.5895     364.2134
   1417.19238     614.1505     364.8144   1417.19238     614.1505     364.8144
   1417.17712     614.5879     365.6904   1417.17712     614.5879     365.6904
   1417.16187     614.0357     366.0398   1417.16187     614.0357     366.0398
   1417.14661     615.2631     367.4671   1417.14661     615.2631     367.4671
   1417.13135     616.2422     367.5733   1417.13135     616.2422     367.5733
   1417.11609     615.9803     369.0809   1417.11609     615.9803     369.0809
   1417.10083     616.4708     369.2985   1417.10083     616.4708     369.2985
   1417.08557     616.3123     370.2114   1417.08557     616.3123     370.2114
   1417.07031     616.6704     371.2412   1417.07031     616.6704     371.2412
   1417.05505     617.5595     372.1846   1417.05505     617.5595     372.1846
   1417.03979     617.9145     372.5847   1417.03979     617.9145     372.5847
   1417.02454     617.8923     373.8821   1417.02454     617.8923     373.8821
   1417.00928     618.3456     374.5157   1417.00928     618.3456     374.5157
   1416.99402     618.6298     375.1201   1416.99402     618.6298     375.1201
   1416.97876     619.3931     376.1394   1416.97876     619.3931     376.1394
   1416.96350     620.5051     376.8572   1416.96350     620.5051     376.8572
   1416.94824     621.0319     377.6932   1416.94824     621.0319     377.6932
   1416.93298     620.6297     378.2623   1416.93298     620.6297     378.2623
   1416.91772     620.3924     378.8185   1416.91772     620.3924     378.8185
   1416.90247     622.0922     379.9981   1416.90247     622.0922     379.9981
   1416.88721     621.5148     380.4418   1416.88721     621.5148     380.4418
   1416.87195     621.7419     381.1562   1416.87195     621.7419     381.1562
   1416.85669     621.9333     381.3047   1416.85669     621.9333     381.3047
   1416.84143     621.9512     383.1236   1416.84143     621.9512     383.1236
   1416.82617     623.6377     383.2587   1416.82617     623.6377     383.2587
   1416.81091     623.0253     384.3242   1416.81091     623.0253     384.3242
   1416.79565     624.3124     385.0248   1416.79565     624.3124     385.0248
   1416.78040     623.3300     385.3094   1416.78040     623.3300     385.3094
   1416.76514     622.8724     386.0874   1416.76514     622.8724     386.0874
   1416.74988     624.2739     386.5201   1416.74988     624.2739     386.5201
   1416.73462     622.9954     387.3329   1416.73462     622.9954     387.3329
   1416.71936     623.7449     387.5606   1416.71936     623.7449     387.5606
   1416.70410     624.3279     388.6549   1416.70410     624.3279     388.6549
   1416.68884     625.1325     389.5909   1416.68884     625.1325     389.5909
   1416.67358     624.3011     390.0663   1416.67358     624.3011     390.0663
   1416.65833     624.8931     390.3790   1416.65833     624.8931     390.3790
   1416.64307     624.7355     391.1247   1416.64307     624.7355     391.1247
   1416.62781     625.1774     391.5421   1416.62781     625.1774     391.5421
   1416.61255     624.8937     391.9657   1416.61255     624.8937     391.9657
   1416.59729     624.6978     392.8297   1416.59729     624.6978     392.8297
   1416.58203     626.3764     393.8991   1416.58203     626.3764     393.8991
   1416.56677     624.4190     393.4063   1416.56677     624.4190     393.4063
   1416.55151     625.4331     395.3224   1416.55151     625.4331     395.3224
   1416.53625     625.3081     395.0618   1416.53625     625.3081     395.0618
   1416.52100     624.9025     395.3195   1416.52100     624.9025     395.3195
   1416.50574     625.4404     395.6277   1416.50574     625.4404     395.6277
   1416.49048     624.8684     396.4478   1416.49048     624.8684     396.4478
   1416.47522     626.1313     397.4911   1416.47522     626.1313     397.4911
   1416.45996     625.3682     397.1564   1416.45996     625.3682     397.1564
   1416.44470     626.5018     398.0101   1416.44470     626.5018     398.0101
   1416.42944     625.8265     397.7409   1416.42944     625.8265     397.7409
   1416.41418     625.9489     398.7461   1416.41418     625.9489     398.7461
   1416.39893     624.2153     399.0854   1416.39893     624.2153     399.0854
   1416.38367     625.8341     399.2820   1416.38367     625.8341     399.2820
   1416.36841     625.5134     399.2371   1416.36841     625.5134     399.2371
   1416.35315     625.4657     400.2523   1416.35315     625.4657     400.2523
   1416.33789     626.0851     400.6722   1416.33789     626.0851     400.6722
   1416.32263     626.4705     400.9769   1416.32263     626.4705     400.9769
   1416.30737     624.2122     401.1111   1416.30737     624.2122     401.1111
   1416.29211     624.4581     402.2598   1416.29211     624.4581     402.2598
   1416.27686     624.8937     402.0995   1416.27686     624.8937     402.0995
   1416.26160     624.5782     402.6890   1416.26160     624.5782     402.6890
   1416.24634     624.6077     402.5045   1416.24634     624.6077     402.5045
   1416.23108     624.5190     403.2232   1416.23108     624.5190     403.2232
   1416.21582     624.2977     403.4107   1416.21582     624.2977     403.4107
   1416.20056     623.8660     402.8889   1416.20056     623.8660     402.8889
   1416.18530     624.2896     403.8894   1416.18530     624.2896     403.8894
   1416.17004     623.3155     403.5711   1416.17004     623.3155     403.5711
   1416.15479     622.5176     403.8433   1416.15479     622.5176     403.8433
   1416.13953     623.4839     404.0193   1416.13953     623.4839     404.0193
   1416.12427     622.6304     404.9793   1416.12427     622.6304     404.9793
   1416.10901     621.6984     405.3263   1416.10901     621.6984     405.3263
   1416.09375     622.2685     404.5845   1416.09375     622.2685     404.5845
   1416.07849     621.7659     405.1989   1416.07849     621.7659     405.1989
   1416.06323     621.8735     405.3541   1416.06323     621.8735     405.3541
   1416.04797     620.7706     405.1117   1416.04797     620.7706     405.1117
   1416.03271     620.8630     405.4957   1416.03271     620.8630     405.4957
   1416.01746     621.2471     405.5337   1416.01746     621.2471     405.5337
   1416.00220     621.1784     405.5870   1416.00220     621.1784     405.5870
   1415.98694     619.7465     405.9104   1415.98694     619.7465     405.9104
   1415.97168     621.1494     405.8760   1415.97168     621.1494     405.8760
   1415.95642     618.2217     406.5476   1415.95642     618.2217     406.5476
   1415.94116     619.2504     406.5011   1415.94116     619.2504     406.5011
   1415.92590     618.5507     406.6179   1415.92590     618.5507     406.6179
   1415.91064     618.8817     406.7181   1415.91064     618.8817     406.7181
   1415.89539     617.3353     405.8672   1415.89539     617.3353     405.8672
   1415.88013     617.2159     406.9532   1415.88013     617.2159     406.9532
   1415.86487     616.1042     406.6349   1415.86487     616.1042     406.6349
   1415.84961     616.6358     407.0062   1415.84961     616.6358     407.0062
   1415.83435     616.0040     407.1824   1415.83435     616.0040     407.1824
   1415.81909     615.6362     407.0266   1415.81909     615.6362     407.0266
   1415.80383     613.6456     406.8676   1415.80383     613.6456     406.8676
   1415.78857     615.5072     406.9626   1415.78857     615.5072     406.9626
   1415.77332     613.4582     406.3615   1415.77332     613.4582     406.3615
   1415.75806     613.0872     406.6577   1415.75806     613.0872     406.6577
   1415.74280     612.8182     406.5926   1415.74280     612.8182     406.5926
   1415.72754     612.0334     406.7765   1415.72754     612.0334     406.7765
   1415.71228     611.2407     406.1695   1415.71228     611.2407     406.1695
   1415.69702     611.6022     405.9823   1415.69702     611.6022     405.9823
   1415.68176     610.3664     406.6930   1415.68176     610.3664     406.6930
   1415.66650     610.7348     406.6995   1415.66650     610.7348     406.6995
   1415.65125     609.5457     406.2465   1415.65125     609.5457     406.2465
   1415.63599     609.5368     406.2817   1415.63599     609.5368     406.2817
   1415.62073     607.7944     406.2518   1415.62073     607.7944     406.2518
   1415.60547     608.2745     405.9961   1415.60547     608.2745     405.9961
   1415.59021     607.6692     406.1766   1415.59021     607.6692     406.1766
   1415.57495     606.0887     405.8832   1415.57495     606.0887     405.8832
   1415.55969     604.7668     405.4490   1415.55969     604.7668     405.4490
   1415.54443     605.8612     406.1326   1415.54443     605.8612     406.1326
   1415.52917     604.1537     406.3946   1415.52917     604.1537     406.3946
   1415.51392     604.2390     406.3874   1415.51392     604.2390     406.3874
   1415.49866     604.2045     406.0096   1415.49866     604.2045     406.0096
   1415.48340     602.5360     405.6617   1415.48340     602.5360     405.6617
   1415.46814     601.6943     405.0814   1415.46814     601.6943     405.0814
   1415.45288     601.2902     405.6490   1415.45288     601.2902     405.6490
   1415.43762     600.0440     405.1058   1415.43762     600.0440     405.1058
   1415.42236     600.1696     404.8654   1415.42236     600.1696     404.8654
   1415.40710     598.4692     404.5262   1415.40710     598.4692     404.5262
   1415.39185     598.3292     404.2739   1415.39185     598.3292     404.2739
   1415.37659     596.9975     404.7861   1415.37659     596.9975     404.7861
   1415.36133     597.0957     403.5972   1415.36133     597.0957     403.5972
   1415.34607     597.0060     403.2117   1415.34607     597.0060     403.2117
   1415.33081     595.3810     403.4742   1415.33081     595.3810     403.4742
   1415.31555     594.6911     403.6459   1415.31555     594.6911     403.6459
   1415.30029     593.4927     403.2946   1415.30029     593.4927     403.2946
   1415.28503     592.0961     402.5043   1415.28503     592.0961     402.5043
   1415.26978     592.3538     402.9599   1415.26978     592.3538     402.9599
   1415.25452     591.3046     402.4301   1415.25452     591.3046     402.4301
   1415.23926     590.2496     401.7585   1415.23926     590.2496     401.7585
   1415.22400     588.7367     402.1699   1415.22400     588.7367     402.1699
   1415.20874     589.1964     401.0741   1415.20874     589.1964     401.0741
   1415.19348     587.6236     401.0718   1415.19348     587.6236     401.0718
   1415.17822     586.7604     401.2053   1415.17822     586.7604     401.2053
   1415.16296     585.7807     400.2737   1415.16296     585.7807     400.2737
   1415.14771     583.7822     400.6542   1415.14771     583.7822     400.6542
   1415.13245     583.8105     399.6414   1415.13245     583.8105     399.6414
   1415.11719     583.7787     399.9624   1415.11719     583.7787     399.9624
   1415.10193     581.2048     398.4750   1415.10193     581.2048     398.4750
   1415.08667     579.8375     398.5017   1415.08667     579.8375     398.5017
   1415.07141     580.1336     398.5106   1415.07141     580.1336     398.5106
   1415.05615     578.5998     398.6525   1415.05615     578.5998     398.6525
   1415.04089     577.5598     397.2365   1415.04089     577.5598     397.2365
   1415.02563     576.1031     397.7354   1415.02563     576.1031     397.7354
   1415.01038     575.5223     396.8434   1415.01038     575.5223     396.8434
   1414.99512     574.6968     397.2604   1414.99512     574.6968     397.2604
   1414.97986     574.0086     396.2837   1414.97986     574.0086     396.2837
   1414.96460     571.1854     395.2395   1414.96460     571.1854     395.2395
   1414.94934     571.1576     395.7273   1414.94934     571.1576     395.7273
   1414.93408     569.4296     394.0482   1414.93408     569.4296     394.0482
   1414.91882     568.0875     394.9341   1414.91882     568.0875     394.9341
   1414.90356     567.5918     393.6792   1414.90356     567.5918     393.6792
   1414.88831     565.7653     393.2992   1414.88831     565.7653     393.2992
   1414.87305     565.3998     392.6063   1414.87305     565.3998     392.6063
   1414.85779     563.8882     392.4846   1414.85779     563.8882     392.4846
   1414.84253     562.2253     391.4885   1414.84253     562.2253     391.4885
   1414.82727     561.4873     390.8112   1414.82727     561.4873     390.8112
   1414.81201     560.5753     389.9883   1414.81201     560.5753     389.9883
   1414.79675     558.3483     389.7399   1414.79675     558.3483     389.7399
   1414.78149     557.4562     389.5287   1414.78149     557.4562     389.5287
   1414.76624     556.1106     388.5589   1414.76624     556.1106     388.5589
   1414.75098     555.3893     388.6850   1414.75098     555.3893     388.6850
   1414.73572     553.0919     387.5661   1414.73572     553.0919     387.5661
   1414.72046     550.8494     386.7599   1414.72046     550.8494     386.7599
   1414.70520     550.4991     386.5714   1414.70520     550.4991     386.5714
   1414.68994     549.5938     385.7851   1414.68994     549.5938     385.7851
   1414.67468     547.1649     384.8697   1414.67468     547.1649     384.8697
   1414.65942     546.3281     384.5014   1414.65942     546.3281     384.5014
   1414.64417     543.8707     383.5079   1414.64417     543.8707     383.5079
   1414.62891     542.7334     382.8799   1414.62891     542.7334     382.8799
   1414.61365     542.2445     381.6266   1414.61365     542.2445     381.6266
   1414.59839     539.6429     381.7758   1414.59839     539.6429     381.7758
   1414.58313     538.8211     380.2852   1414.58313     538.8211     380.2852
   1414.56787     536.6663     379.3671   1414.56787     536.6663     379.3671
   1414.55261     536.5467     379.0277   1414.55261     536.5467     379.0277
   1414.53735     533.5945     378.5363   1414.53735     533.5945     378.5363
   1414.52209     532.5209     377.6002   1414.52209     532.5209     377.6002
   1414.50684     529.8461     376.9176   1414.50684     529.8461     376.9176
   1414.49158     529.5766     375.6284   1414.49158     529.5766     375.6284
   1414.47632     527.2781     375.1225   1414.47632     527.2781     375.1225
   1414.46106     525.9203     373.9490   1414.46106     525.9203     373.9490
   1414.44580     523.4501     372.6225   1414.44580     523.4501     372.6225
   1414.43054     522.2239     372.0750   1414.43054     522.2239     372.0750
   1414.41528     519.7604     371.0380   1414.41528     519.7604     371.0380
   1414.40002     518.6886     370.0457   1414.40002     518.6886     370.0457
   1414.38477     516.8623     369.6178   1414.38477     516.8623     369.6178
   1414.36951     515.6691     368.4398   1414.36951     515.6691     368.4398
   1414.35425     513.3569     367.5505   1414.35425     513.3569     367.5505
   1414.33899     512.4920     366.4837   1414.33899     512.4920     366.4837
   1414.32373     509.0528     365.4529   1414.32373     509.0528     365.4529
   1414.30847     508.7376     363.8702   1414.30847     508.7376     363.8702
   1414.29321     506.1686     363.3206   1414.29321     506.1686     363.3206
   1414.27795     504.2939     362.2870   1414.27795     504.2939     362.2870
   1414.26270     502.1993     361.4984   1414.26270     502.1993     361.4984
   1414.24744     500.6414     361.0225   1414.24744     500.6414     361.0225
   1414.23218     499.1570     359.7702   1414.23218     499.1570     359.7702
   1414.21692     496.9544     358.5703   1414.21692     496.9544     358.5703
   1414.20166     494.4866     357.5689   1414.20166     494.4866     357.5689
   1414.18640     493.4204     356.0777   1414.18640     493.4204     356.0777
   1414.17114     490.5926     355.3647   1414.17114     490.5926     355.3647
   1414.15588     489.8365     353.9067   1414.15588     489.8365     353.9067
   1414.14062     486.8420     352.5986   1414.14062     486.8420     352.5986
   1414.12537     484.7915     351.6701   1414.12537     484.7915     351.6701
   1414.11011     483.0565     350.7637   1414.11011     483.0565     350.7637
   1414.09485     480.6417     349.8811   1414.09485     480.6417     349.8811
   1414.07959     479.4111     348.7173   1414.07959     479.4111     348.7173
   1414.06433     477.4257     347.7001   1414.06433     477.4257     347.7001
   1414.04907     475.4705     346.0019   1414.04907     475.4705     346.0019
   1414.03381     473.1248     344.9534   1414.03381     473.1248     344.9534
   1414.01855     472.2361     344.5657   1414.01855     472.2361     344.5657
   1414.00330     489.2170     349.8739   1414.00330     489.2170     349.8739
   1413.98804     468.8803     341.8797   1413.98804     468.8803     341.8797
   1413.97278     464.3990     340.2039   1413.97278     464.3990     340.2039
   1413.95752     462.2117     339.2661   1413.95752     462.2117     339.2661
   1413.94226     461.1727     338.0707   1413.94226     461.1727     338.0707
   1413.92700     457.7516     336.9190   1413.92700     457.7516     336.9190
   1413.91174     456.0625     335.3242   1413.91174     456.0625     335.3242
   1413.89648     453.9706     334.1660   1413.89648     453.9706     334.1660
   1413.88123     452.4429     333.2866   1413.88123     452.4429     333.2866
   1413.86597     449.9041     331.8493   1413.86597     449.9041     331.8493
   1413.85071     447.0153     330.5191   1413.85071     447.0153     330.5191
   1413.83545     444.2046     329.0307   1413.83545     444.2046     329.0307
   1413.82019     443.7834     328.3780   1413.82019     443.7834     328.3780
   1413.80493     440.3672     326.5356   1413.80493     440.3672     326.5356
   1413.78967     438.9205     325.7561   1413.78967     438.9205     325.7561
   1413.77441     436.6457     324.3689   1413.77441     436.6457     324.3689
   1413.75916     434.1434     323.1180   1413.75916     434.1434     323.1180
   1413.74390     431.9230     321.6189   1413.74390     431.9230     321.6189
   1413.72864     429.9509     320.5197   1413.72864     429.9509     320.5197
   1413.71338     427.9156     319.0845   1413.71338     427.9156     319.0845
   1413.69812     425.2628     317.6266   1413.69812     425.2628     317.6266
   1413.68286     423.2460     316.6283   1413.68286     423.2460     316.6283
   1413.66760     420.5174     315.4378   1413.66760     420.5174     315.4378
   1413.65234     419.1361     314.0715   1413.65234     419.1361     314.0715
   1413.63708     416.1488     312.9545   1413.63708     416.1488     312.9545
   1413.62183     414.8799     311.2906   1413.62183     414.8799     311.2906
   1413.60657     411.7190     309.8976   1413.60657     411.7190     309.8976
   1413.59131     409.7182     308.8852   1413.59131     409.7182     308.8852
   1413.57605     407.6190     307.4251   1413.57605     407.6190     307.4251
   1413.56079     405.5320     305.7962   1413.56079     405.5320     305.7962
   1413.54553     402.9613     305.0233   1413.54553     402.9613     305.0233
   1413.53027     400.8795     303.4999   1413.53027     400.8795     303.4999
   1413.51501     398.7569     302.3639   1413.51501     398.7569     302.3639
   1413.49976     396.6238     301.3613   1413.49976     396.6238     301.3613
   1413.48450     394.5291     299.9210   1413.48450     394.5291     299.9210
   1413.46924     391.8188     298.7960   1413.46924     391.8188     298.7960
   1413.45398     389.5634     297.1473   1413.45398     389.5634     297.1473
   1413.43872     387.3837     296.4062   1413.43872     387.3837     296.4062
   1413.42346     386.0258     294.7244   1413.42346     386.0258     294.7244
   1413.40820     383.5599     294.1252   1413.40820     383.5599     294.1252
   1413.39294     381.4651     291.9942   1413.39294     381.4651     291.9942
   1413.37769     379.3466     291.5609   1413.37769     379.3466     291.5609
   1413.36243     377.4315     289.8348   1413.36243     377.4315     289.8348
   1413.34717     374.9553     289.0585   1413.34717     374.9553     289.0585
   1413.33191     372.2964     287.6398   1413.33191     372.2964     287.6398
   1413.31665     370.7498     286.1557   1413.31665     370.7498     286.1557
   1413.30139     368.3830     285.3519   1413.30139     368.3830     285.3519
   1413.28613     366.8426     284.1639   1413.28613     366.8426     284.1639
   1413.27087     364.4058     283.2732   1413.27087     364.4058     283.2732
   1413.25562     363.0862     282.2423   1413.25562     363.0862     282.2423
   1413.24036     360.7499     280.3748   1413.24036     360.7499     280.3748
   1413.22510     358.6001     279.5161   1413.22510     358.6001     279.5161
   1413.20984     357.0999     278.6380   1413.20984     357.0999     278.6380
   1413.19458     354.2435     277.6807   1413.19458     354.2435     277.6807
   1413.17932     352.6796     276.5688   1413.17932     352.6796     276.5688
   1413.16406     350.4727     275.5997   1413.16406     350.4727     275.5997
   1413.14880     349.4768     274.1536   1413.14880     349.4768     274.1536
   1413.13354     345.9817     273.2789   1413.13354     345.9817     273.2789
   1413.11829     345.4129     272.3383   1413.11829     345.4129     272.3383
   1413.10303     343.4088     271.3121   1413.10303     343.4088     271.3121
   1413.08777     341.7583     270.0933   1413.08777     341.7583     270.0933
   1413.07251     339.7219     269.2406   1413.07251     339.7219     269.2406
   1413.05725     338.3979     268.8154   1413.05725     338.3979     268.8154
   1413.04199     336.2536     267.7277   1413.04199     336.2536     267.7277
   1413.02673     334.9155     266.8914   1413.02673     334.9155     266.8914
   1413.01147     333.0428     266.0392   1413.01147     333.0428     266.0392
   1412.99622     331.3387     265.1078   1412.99622     331.3387     265.1078
   1412.98096     329.8443     264.3121   1412.98096     329.8443     264.3121
   1412.96570     328.7918     263.6862   1412.96570     328.7918     263.6862
   1412.95044     326.4695     262.9157   1412.95044     326.4695     262.9157
   1412.93518     325.0839     262.3174   1412.93518     325.0839     262.3174
   1412.91992     323.2691     261.5511   1412.91992     323.2691     261.5511
   1412.90466     321.5238     260.7922   1412.90466     321.5238     260.7922
   1412.88940     320.4922     260.7707   1412.88940     320.4922     260.7707
   1412.87415     319.2682     259.7731   1412.87415     319.2682     259.7731
   1412.85889     317.8959     258.9474   1412.85889     317.8959     258.9474
   1412.84363     316.2108     258.8416   1412.84363     316.2108     258.8416
   1412.82837     314.7239     257.7004   1412.82837     314.7239     257.7004
   1412.81311     313.9079     257.3787   1412.81311     313.9079     257.3787
   1412.79785     312.8160     257.4731   1412.79785     312.8160     257.4731
   1412.78259     311.3254     256.9106   1412.78259     311.3254     256.9106
   1412.76733     310.4830     256.5002   1412.76733     310.4830     256.5002
   1412.75208     309.0515     255.7618   1412.75208     309.0515     255.7618
   1412.73682     308.2282     255.6868   1412.73682     308.2282     255.6868
   1412.72156     307.0000     255.4220   1412.72156     307.0000     255.4220
   1412.70630     306.1684     255.1912   1412.70630     306.1684     255.1912
   1412.69104     304.7954     254.7834   1412.69104     304.7954     254.7834
   1412.67578     304.1052     255.0214   1412.67578     304.1052     255.0214
   1412.66052     303.5767     255.1739   1412.66052     303.5767     255.1739
   1412.64526     302.6391     255.1013   1412.64526     302.6391     255.1013
   1412.63000     301.4136     254.8493   1412.63000     301.4136     254.8493
   1412.61475     300.8654     254.6291   1412.61475     300.8654     254.6291
   1412.59949     299.7036     254.6141   1412.59949     299.7036     254.6141
   1412.58423     299.4697     254.8655   1412.58423     299.4697     254.8655
   1412.56897     299.3194     255.0921   1412.56897     299.3194     255.0921
   1412.55371     298.2926     255.1825   1412.55371     298.2926     255.1825
   1412.53845     297.7232     255.6138   1412.53845     297.7232     255.6138
   1412.52319     296.9443     255.7417   1412.52319     296.9443     255.7417
   1412.50793     296.1406     255.8920   1412.50793     296.1406     255.8920
   1412.49268     295.8563     256.1574   1412.49268     295.8563     256.1574
   1412.47742     296.2896     256.9584   1412.47742     296.2896     256.9584
   1412.46216     295.3750     257.3209   1412.46216     295.3750     257.3209
   1412.44690     295.0717     257.6508   1412.44690     295.0717     257.6508
   1412.43164     294.7170     257.9434   1412.43164     294.7170     257.9434
   1412.41638     294.6130     258.4149   1412.41638     294.6130     258.4149
   1412.40112     294.2001     259.4999   1412.40112     294.2001     259.4999
   1412.38586     294.3371     260.1577   1412.38586     294.3371     260.1577
   1412.37061     294.3352     261.1115   1412.37061     294.3352     261.1115
   1412.35535     293.4894     261.4359   1412.35535     293.4894     261.4359
   1412.34009     294.0676     262.1905   1412.34009     294.0676     262.1905
   1412.32483     294.1230     262.6545   1412.32483     294.1230     262.6545
   1412.30957     294.1772     264.0526   1412.30957     294.1772     264.0526
   1412.29431     294.2252     264.7864   1412.29431     294.2252     264.7864
   1412.27905     294.4651     265.9461   1412.27905     294.4651     265.9461
   1412.26379     294.4181     266.9544   1412.26379     294.4181     266.9544
   1412.24854     295.1105     267.7859   1412.24854     295.1105     267.7859
   1412.23328     295.1290     268.7818   1412.23328     295.1290     268.7818
   1412.21802     296.0074     269.9981   1412.21802     296.0074     269.9981
   1412.20276     295.6218     271.3291   1412.20276     295.6218     271.3291