#     FILENAME=!Skynet_57528_lach-cc-237_20653_21018.cyb.fits
#     BASENAME=Skynet_57528_lach-cc-237_20653_21018
#     SRC_NAME=lach-cc-237
#     OBSERVER=ccmadison16_9505
#     DATE_OBS=2016-05-20T19:11:51.750
#        OBSID=20653
#      SCANNUM=21018
#          MJD=57528.8010
#          UTC=69201
#     SCANTYPE=track
#     DATAMODE=HIRES
#     TUNEFREQ=1420.0000
# Actual_FREQ1=1420.0000
# Actual_FREQ2=1420.0000
#    LO1Tuning=6870.000
#     RFFILTER=1355_1435
#        OBSBW=-15.6250
#        NCHAN=1024 
#        FOCUS=37.0709
#           RA=07:37:28.98
#          DEC=-21:17:03.84
#      RA(hrs)=7.624700
#     DEC(deg)=-21.284400
#    AZIM(deg)=151.131
#    ELEV(deg)=24.735
#     IFattens=10.00, 9.00
#      WARNING=None
#    TCAL_XL1=7.9635
#    TCAL_YR1=9.1340
#    TCAL_XL2=7.9635
#    TCAL_YR2=9.1340
#     TRX_XL1=11.7060
#     TRX_YR1=11.7060
#     TRX_XL2=11.7060
#     TRX_YR2=11.7060
#        TAVE=1.0000
#Freq1(MHz)          XL1          YR1  Freq2(MHz)          XL2          YR2 

   1427.81250     371.4209     292.9395   1427.81250     371.4209     292.9395
   1427.79724     371.8961     293.6303   1427.79724     371.8961     293.6303
   1427.78198     372.8038     293.4384   1427.78198     372.8038     293.4384
   1427.76672     373.8144     294.4003   1427.76672     373.8144     294.4003
   1427.75146     374.3334     295.5630   1427.75146     374.3334     295.5630
   1427.73621     374.5899     295.9203   1427.73621     374.5899     295.9203
   1427.72095     376.3976     296.7483   1427.72095     376.3976     296.7483
   1427.70569     377.1006     297.5886   1427.70569     377.1006     297.5886
   1427.69043     379.0744     297.9229   1427.69043     379.0744     297.9229
   1427.67517     379.2962     299.3398   1427.67517     379.2962     299.3398
   1427.65991     380.6565     299.9017   1427.65991     380.6565     299.9017
   1427.64465     381.4722     300.6087   1427.64465     381.4722     300.6087
   1427.62939     383.9145     301.8531   1427.62939     383.9145     301.8531
   1427.61414     384.7772     303.1111   1427.61414     384.7772     303.1111
   1427.59888     385.3899     304.0952   1427.59888     385.3899     304.0952
   1427.58362     386.8445     304.8277   1427.58362     386.8445     304.8277
   1427.56836     388.5995     305.9909   1427.56836     388.5995     305.9909
   1427.55310     390.4263     306.7846   1427.55310     390.4263     306.7846
   1427.53784     391.6003     307.9736   1427.53784     391.6003     307.9736
   1427.52258     392.9652     309.6960   1427.52258     392.9652     309.6960
   1427.50732     394.5852     310.4679   1427.50732     394.5852     310.4679
   1427.49207     396.2857     311.9352   1427.49207     396.2857     311.9352
   1427.47681     397.8575     313.4728   1427.47681     397.8575     313.4728
   1427.46155     400.1890     314.9224   1427.46155     400.1890     314.9224
   1427.44629     401.5907     316.6825   1427.44629     401.5907     316.6825
   1427.43103     403.8319     318.0837   1427.43103     403.8319     318.0837
   1427.41577     405.5498     319.4930   1427.41577     405.5498     319.4930
   1427.40051     407.4259     320.9177   1427.40051     407.4259     320.9177
   1427.38525     409.6989     323.2790   1427.38525     409.6989     323.2790
   1427.37000     411.2893     324.2212   1427.37000     411.2893     324.2212
   1427.35474     413.2687     325.5973   1427.35474     413.2687     325.5973
   1427.33948     416.1813     327.4567   1427.33948     416.1813     327.4567
   1427.32422     418.4027     329.5547   1427.32422     418.4027     329.5547
   1427.30896     419.7789     330.5282   1427.30896     419.7789     330.5282
   1427.29370     422.1426     332.4074   1427.29370     422.1426     332.4074
   1427.27844     424.7761     334.3719   1427.27844     424.7761     334.3719
   1427.26318     426.7672     336.2024   1427.26318     426.7672     336.2024
   1427.24792     429.4415     338.5305   1427.24792     429.4415     338.5305
   1427.23267     431.6440     340.1913   1427.23267     431.6440     340.1913
   1427.21741     433.7506     342.1524   1427.21741     433.7506     342.1524
   1427.20215     435.9701     344.0249   1427.20215     435.9701     344.0249
   1427.18689     438.0098     346.2702   1427.18689     438.0098     346.2702
   1427.17163     441.2522     347.7742   1427.17163     441.2522     347.7742
   1427.15637     443.6978     349.7902   1427.15637     443.6978     349.7902
   1427.14111     446.1605     352.3090   1427.14111     446.1605     352.3090
   1427.12585     448.8618     354.4561   1427.12585     448.8618     354.4561
   1427.11060     451.1638     356.3238   1427.11060     451.1638     356.3238
   1427.09534     454.4337     358.5034   1427.09534     454.4337     358.5034
   1427.08008     456.9754     360.6158   1427.08008     456.9754     360.6158
   1427.06482     459.3803     362.2790   1427.06482     459.3803     362.2790
   1427.04956     462.1157     365.2481   1427.04956     462.1157     365.2481
   1427.03430     465.6841     367.3430   1427.03430     465.6841     367.3430
   1427.01904     467.8262     369.5680   1427.01904     467.8262     369.5680
   1427.00378     469.5837     371.9315   1427.00378     469.5837     371.9315
   1426.98853     472.8495     374.4834   1426.98853     472.8495     374.4834
   1426.97327     476.0707     377.2758   1426.97327     476.0707     377.2758
   1426.95801     478.1265     379.1213   1426.95801     478.1265     379.1213
   1426.94275     481.1201     381.2456   1426.94275     481.1201     381.2456
   1426.92749     484.5701     384.2801   1426.92749     484.5701     384.2801
   1426.91223     487.0436     386.1789   1426.91223     487.0436     386.1789
   1426.89697     489.2100     388.8795   1426.89697     489.2100     388.8795
   1426.88171     492.7622     390.9096   1426.88171     492.7622     390.9096
   1426.86646     495.5285     393.6831   1426.86646     495.5285     393.6831
   1426.85120     498.1798     395.5579   1426.85120     498.1798     395.5579
   1426.83594     501.9163     398.0429   1426.83594     501.9163     398.0429
   1426.82068     505.0581     400.0536   1426.82068     505.0581     400.0536
   1426.80542     507.8130     403.5430   1426.80542     507.8130     403.5430
   1426.79016     510.5422     405.5901   1426.79016     510.5422     405.5901
   1426.77490     513.4255     408.0439   1426.77490     513.4255     408.0439
   1426.75964     516.5354     410.5654   1426.75964     516.5354     410.5654
   1426.74438     518.4276     413.4913   1426.74438     518.4276     413.4913
   1426.72913     522.9247     416.3153   1426.72913     522.9247     416.3153
   1426.71387     524.8592     418.2146   1426.71387     524.8592     418.2146
   1426.69861     527.8632     420.8876   1426.69861     527.8632     420.8876
   1426.68335     531.4331     423.9179   1426.68335     531.4331     423.9179
   1426.66809     534.5627     426.0906   1426.66809     534.5627     426.0906
   1426.65283     536.9981     428.6549   1426.65283     536.9981     428.6549
   1426.63757     539.6177     430.7432   1426.63757     539.6177     430.7432
   1426.62231     547.4846     434.3076   1426.62231     547.4846     434.3076
   1426.60706     545.7398     436.7477   1426.60706     545.7398     436.7477
   1426.59180     549.0165     438.7824   1426.59180     549.0165     438.7824
   1426.57654     552.6694     441.4828   1426.57654     552.6694     441.4828
   1426.56128     555.4332     444.7458   1426.56128     555.4332     444.7458
   1426.54602     558.1196     447.1785   1426.54602     558.1196     447.1785
   1426.53076     560.7986     449.0276   1426.53076     560.7986     449.0276
   1426.51550     564.1073     451.6512   1426.51550     564.1073     451.6512
   1426.50024     566.9423     454.5485   1426.50024     566.9423     454.5485
   1426.48499     569.2980     457.0001   1426.48499     569.2980     457.0001
   1426.46973     572.6839     459.8340   1426.46973     572.6839     459.8340
   1426.45447     575.7524     461.5584   1426.45447     575.7524     461.5584
   1426.43921     578.8902     464.4799   1426.43921     578.8902     464.4799
   1426.42395     581.2443     466.8263   1426.42395     581.2443     466.8263
   1426.40869     584.3610     469.7655   1426.40869     584.3610     469.7655
   1426.39343     587.9429     471.7646   1426.39343     587.9429     471.7646
   1426.37817     590.2807     474.9023   1426.37817     590.2807     474.9023
   1426.36292     592.8542     477.6243   1426.36292     592.8542     477.6243
   1426.34766     595.3948     479.2359   1426.34766     595.3948     479.2359
   1426.33240     599.1414     482.7758   1426.33240     599.1414     482.7758
   1426.31714     601.2596     485.0239   1426.31714     601.2596     485.0239
   1426.30188     604.1099     487.6671   1426.30188     604.1099     487.6671
   1426.28662     606.5219     490.6480   1426.28662     606.5219     490.6480
   1426.27136     609.9749     491.8196   1426.27136     609.9749     491.8196
   1426.25610     612.7009     494.5581   1426.25610     612.7009     494.5581
   1426.24084     614.8995     496.9474   1426.24084     614.8995     496.9474
   1426.22559     618.1556     500.3530   1426.22559     618.1556     500.3530
   1426.21033     620.3865     502.2353   1426.21033     620.3865     502.2353
   1426.19507     622.8804     504.5941   1426.19507     622.8804     504.5941
   1426.17981     625.2129     506.8203   1426.17981     625.2129     506.8203
   1426.16455     628.0272     509.1086   1426.16455     628.0272     509.1086
   1426.14929     630.6370     511.5668   1426.14929     630.6370     511.5668
   1426.13403     634.4421     513.9571   1426.13403     634.4421     513.9571
   1426.11877     636.5151     516.4835   1426.11877     636.5151     516.4835
   1426.10352     638.2832     518.3505   1426.10352     638.2832     518.3505
   1426.08826     641.0324     520.2598   1426.08826     641.0324     520.2598
   1426.07300     642.9228     523.8885   1426.07300     642.9228     523.8885
   1426.05774     645.8539     525.3805   1426.05774     645.8539     525.3805
   1426.04248     648.6077     527.9721   1426.04248     648.6077     527.9721
   1426.02722     651.0168     530.8358   1426.02722     651.0168     530.8358
   1426.01196     653.2866     533.6342   1426.01196     653.2866     533.6342
   1425.99670     655.3235     534.8383   1425.99670     655.3235     534.8383
   1425.98145     657.7477     537.6527   1425.98145     657.7477     537.6527
   1425.96619     660.8591     539.6016   1425.96619     660.8591     539.6016
   1425.95093     662.0319     541.3541   1425.95093     662.0319     541.3541
   1425.93567     664.1741     543.6055   1425.93567     664.1741     543.6055
   1425.92041     666.7908     546.0115   1425.92041     666.7908     546.0115
   1425.90515     668.3370     548.5225   1425.90515     668.3370     548.5225
   1425.88989     670.4707     551.2159   1425.88989     670.4707     551.2159
   1425.87463     673.2372     551.7927   1425.87463     673.2372     551.7927
   1425.85938     675.2476     555.0390   1425.85938     675.2476     555.0390
   1425.84412     677.7817     556.5052   1425.84412     677.7817     556.5052
   1425.82886     678.7609     558.6298   1425.82886     678.7609     558.6298
   1425.81360     681.5708     561.1848   1425.81360     681.5708     561.1848
   1425.79834     685.9969     563.7716   1425.79834     685.9969     563.7716
   1425.78308     685.0997     564.1772   1425.78308     685.0997     564.1772
   1425.76782     686.9704     566.3477   1425.76782     686.9704     566.3477
   1425.75256     688.5956     568.5547   1425.75256     688.5956     568.5547
   1425.73730     691.9630     570.9286   1425.73730     691.9630     570.9286
   1425.72205     691.8100     573.3078   1425.72205     691.8100     573.3078
   1425.70679     694.8453     574.6027   1425.70679     694.8453     574.6027
   1425.69153     696.4372     576.6934   1425.69153     696.4372     576.6934
   1425.67627     697.6145     578.6414   1425.67627     697.6145     578.6414
   1425.66101     700.0844     580.1935   1425.66101     700.0844     580.1935
   1425.64575     700.1884     582.0602   1425.64575     700.1884     582.0602
   1425.63049     702.6976     582.6427   1425.63049     702.6976     582.6427
   1425.61523     704.9210     585.6751   1425.61523     704.9210     585.6751
   1425.59998     705.7564     588.5066   1425.59998     705.7564     588.5066
   1425.58472     707.6760     590.0993   1425.58472     707.6760     590.0993
   1425.56946     710.2953     591.8693   1425.56946     710.2953     591.8693
   1425.55420     709.3934     593.4389   1425.55420     709.3934     593.4389
   1425.53894     711.5423     594.4254   1425.53894     711.5423     594.4254
   1425.52368     712.4661     596.3647   1425.52368     712.4661     596.3647
   1425.50842     714.3695     598.4273   1425.50842     714.3695     598.4273
   1425.49316     715.0356     600.3741   1425.49316     715.0356     600.3741
   1425.47791     717.0460     602.1785   1425.47791     717.0460     602.1785
   1425.46265     719.4656     603.3087   1425.46265     719.4656     603.3087
   1425.44739     720.8203     605.7804   1425.44739     720.8203     605.7804
   1425.43213     721.5620     606.2647   1425.43213     721.5620     606.2647
   1425.41687     723.1750     608.2822   1425.41687     723.1750     608.2822
   1425.40161     724.5937     610.8081   1425.40161     724.5937     610.8081
   1425.38635     725.5588     613.2392   1425.38635     725.5588     613.2392
   1425.37109     726.6284     613.9935   1425.37109     726.6284     613.9935
   1425.35583     727.5896     613.6923   1425.35583     727.5896     613.6923
   1425.34058     727.9039     616.9415   1425.34058     727.9039     616.9415
   1425.32532     728.4677     618.0235   1425.32532     728.4677     618.0235
   1425.31006     730.1096     618.9792   1425.31006     730.1096     618.9792
   1425.29480     732.6178     621.7382   1425.29480     732.6178     621.7382
   1425.27954     733.4787     623.0414   1425.27954     733.4787     623.0414
   1425.26428     734.0396     624.7128   1425.26428     734.0396     624.7128
   1425.24902     734.4675     625.8013   1425.24902     734.4675     625.8013
   1425.23376     734.9804     627.8168   1425.23376     734.9804     627.8168
   1425.21851     736.1362     627.7695   1425.21851     736.1362     627.7695
   1425.20325     737.0154     630.0657   1425.20325     737.0154     630.0657
   1425.18799     737.8344     630.7990   1425.18799     737.8344     630.7990
   1425.17273     738.3841     632.6385   1425.17273     738.3841     632.6385
   1425.15747     739.1050     634.1096   1425.15747     739.1050     634.1096
   1425.14221     741.2601     635.4613   1425.14221     741.2601     635.4613
   1425.12695     741.6838     637.4860   1425.12695     741.6838     637.4860
   1425.11169     741.8931     638.6511   1425.11169     741.8931     638.6511
   1425.09644     742.9795     638.4784   1425.09644     742.9795     638.4784
   1425.08118     741.2453     640.7614   1425.08118     741.2453     640.7614
   1425.06592     743.8684     642.2264   1425.06592     743.8684     642.2264
   1425.05066     743.6543     643.8998   1425.05066     743.6543     643.8998
   1425.03540     745.0972     643.6729   1425.03540     745.0972     643.6729
   1425.02014     745.0767     644.9972   1425.02014     745.0767     644.9972
   1425.00488     745.9628     647.3223   1425.00488     745.9628     647.3223
   1424.98962     746.3710     647.6837   1424.98962     746.3710     647.6837
   1424.97437     746.6067     649.6686   1424.97437     746.6067     649.6686
   1424.95911     746.3603     650.6677   1424.95911     746.3603     650.6677
   1424.94385     747.0109     651.6671   1424.94385     747.0109     651.6671
   1424.92859     748.4587     654.0504   1424.92859     748.4587     654.0504
   1424.91333     748.0468     653.6016   1424.91333     748.0468     653.6016
   1424.89807     749.5421     655.0231   1424.89807     749.5421     655.0231
   1424.88281     748.0507     656.3288   1424.88281     748.0507     656.3288
   1424.86755     749.0828     657.7051   1424.86755     749.0828     657.7051
   1424.85229     750.5335     658.6605   1424.85229     750.5335     658.6605
   1424.83704     750.7842     658.9957   1424.83704     750.7842     658.9957
   1424.82178     750.9338     660.1324   1424.82178     750.9338     660.1324
   1424.80652     750.8646     661.5474   1424.80652     750.8646     661.5474
   1424.79126     750.9869     663.1611   1424.79126     750.9869     663.1611
   1424.77600     752.8269     663.2348   1424.77600     752.8269     663.2348
   1424.76074     750.5102     665.2741   1424.76074     750.5102     665.2741
   1424.74548     752.8430     666.2457   1424.74548     752.8430     666.2457
   1424.73022     751.6374     666.7032   1424.73022     751.6374     666.7032
   1424.71497     752.3199     666.5714   1424.71497     752.3199     666.5714
   1424.69971     752.5361     668.9590   1424.69971     752.5361     668.9590
   1424.68445     751.9379     669.4501   1424.68445     751.9379     669.4501
   1424.66919     751.9221     670.2805   1424.66919     751.9221     670.2805
   1424.65393     752.6494     670.4506   1424.65393     752.6494     670.4506
   1424.63867     753.1586     671.5793   1424.63867     753.1586     671.5793
   1424.62341     753.0819     673.1871   1424.62341     753.0819     673.1871
   1424.60815     753.6186     673.5237   1424.60815     753.6186     673.5237
   1424.59290     752.7306     674.5648   1424.59290     752.7306     674.5648
   1424.57764     752.9428     673.7949   1424.57764     752.9428     673.7949
   1424.56238     753.5062     675.8508   1424.56238     753.5062     675.8508
   1424.54712     754.3112     676.9351   1424.54712     754.3112     676.9351
   1424.53186     753.7088     677.6891   1424.53186     753.7088     677.6891
   1424.51660     754.4745     679.5709   1424.51660     754.4745     679.5709
   1424.50134     753.8759     678.7000   1424.50134     753.8759     678.7000
   1424.48608     753.7991     679.8751   1424.48608     753.7991     679.8751
   1424.47083     754.5351     681.2054   1424.47083     754.5351     681.2054
   1424.45557     754.7941     681.7443   1424.45557     754.7941     681.7443
   1424.44031     754.0958     681.6483   1424.44031     754.0958     681.6483
   1424.42505     753.1784     682.6218   1424.42505     753.1784     682.6218
   1424.40979     752.8492     683.4024   1424.40979     752.8492     683.4024
   1424.39453     753.8800     682.3430   1424.39453     753.8800     682.3430
   1424.37927     753.7243     684.9796   1424.37927     753.7243     684.9796
   1424.36401     752.9357     684.5309   1424.36401     752.9357     684.5309
   1424.34875     753.3761     685.7772   1424.34875     753.3761     685.7772
   1424.33350     754.5319     685.4858   1424.33350     754.5319     685.4858
   1424.31824     752.1594     686.2871   1424.31824     752.1594     686.2871
   1424.30298     752.6058     687.0553   1424.30298     752.6058     687.0553
   1424.28772     752.3707     687.4847   1424.28772     752.3707     687.4847
   1424.27246     753.2596     687.5887   1424.27246     753.2596     687.5887
   1424.25720     752.6144     688.4749   1424.25720     752.6144     688.4749
   1424.24194     753.0655     689.4352   1424.24194     753.0655     689.4352
   1424.22668     752.0197     689.4449   1424.22668     752.0197     689.4449
   1424.21143     752.6392     690.4489   1424.21143     752.6392     690.4489
   1424.19617     752.5027     689.7808   1424.19617     752.5027     689.7808
   1424.18091     753.1625     690.8679   1424.18091     753.1625     690.8679
   1424.16565     751.8434     691.9189   1424.16565     751.8434     691.9189
   1424.15039     752.0764     692.2643   1424.15039     752.0764     692.2643
   1424.13513     751.5439     692.3100   1424.13513     751.5439     692.3100
   1424.11987     751.7449     692.0683   1424.11987     751.7449     692.0683
   1424.10461     750.9303     692.8681   1424.10461     750.9303     692.8681
   1424.08936     751.0222     693.4794   1424.08936     751.0222     693.4794
   1424.07410     751.0277     694.2037   1424.07410     751.0277     694.2037
   1424.05884     750.2581     693.5270   1424.05884     750.2581     693.5270
   1424.04358     750.6459     694.5068   1424.04358     750.6459     694.5068
   1424.02832     750.6932     693.3049   1424.02832     750.6932     693.3049
   1424.01306     749.6874     695.5704   1424.01306     749.6874     695.5704
   1423.99780     750.3804     694.9931   1423.99780     750.3804     694.9931
   1423.98254     749.9745     695.2192   1423.98254     749.9745     695.2192
   1423.96729     749.0728     695.6659   1423.96729     749.0728     695.6659
   1423.95203     748.4626     696.2454   1423.95203     748.4626     696.2454
   1423.93677     749.6504     694.9005   1423.93677     749.6504     694.9005
   1423.92151     749.7610     695.6648   1423.92151     749.7610     695.6648
   1423.90625     748.8478     696.0009   1423.90625     748.8478     696.0009
   1423.89099     749.5037     697.1151   1423.89099     749.5037     697.1151
   1423.87573     748.5533     697.4697   1423.87573     748.5533     697.4697
   1423.86047     747.5005     695.7929   1423.86047     747.5005     695.7929
   1423.84521     748.2084     696.7527   1423.84521     748.2084     696.7527
   1423.82996     746.6973     697.9788   1423.82996     746.6973     697.9788
   1423.81470     746.8912     697.7690   1423.81470     746.8912     697.7690
   1423.79944     746.9966     697.3856   1423.79944     746.9966     697.3856
   1423.78418     746.5530     696.8011   1423.78418     746.5530     696.8011
   1423.76892     747.3794     696.5232   1423.76892     747.3794     696.5232
   1423.75366     746.4480     697.6022   1423.75366     746.4480     697.6022
   1423.73840     745.8786     696.8564   1423.73840     745.8786     696.8564
   1423.72314     745.9206     697.1060   1423.72314     745.9206     697.1060
   1423.70789     745.1392     697.8541   1423.70789     745.1392     697.8541
   1423.69263     745.6902     696.8368   1423.69263     745.6902     696.8368
   1423.67737     744.7247     696.4785   1423.67737     744.7247     696.4785
   1423.66211     744.9270     696.9102   1423.66211     744.9270     696.9102
   1423.64685     745.5914     696.7022   1423.64685     745.5914     696.7022
   1423.63159     744.6884     695.2989   1423.63159     744.6884     695.2989
   1423.61633     744.2758     696.1482   1423.61633     744.2758     696.1482
   1423.60107     745.1597     695.4711   1423.60107     745.1597     695.4711
   1423.58582     743.0109     696.0638   1423.58582     743.0109     696.0638
   1423.57056     742.8402     694.8931   1423.57056     742.8402     694.8931
   1423.55530     744.4139     695.8367   1423.55530     744.4139     695.8367
   1423.54004     743.2463     695.5449   1423.54004     743.2463     695.5449
   1423.52478     742.6488     695.2173   1423.52478     742.6488     695.2173
   1423.50952     743.1409     694.6918   1423.50952     743.1409     694.6918
   1423.49426     742.5108     693.9756   1423.49426     742.5108     693.9756
   1423.47900     741.9784     693.4144   1423.47900     741.9784     693.4144
   1423.46375     742.1061     694.8113   1423.46375     742.1061     694.8113
   1423.44849     742.1028     693.7391   1423.44849     742.1028     693.7391
   1423.43323     741.1439     694.2298   1423.43323     741.1439     694.2298
   1423.41797     741.7361     692.9387   1423.41797     741.7361     692.9387
   1423.40271     741.3664     692.2509   1423.40271     741.3664     692.2509
   1423.38745     739.7568     692.0007   1423.38745     739.7568     692.0007
   1423.37219     739.5754     691.5012   1423.37219     739.5754     691.5012
   1423.35693     739.1979     689.8985   1423.35693     739.1979     689.8985
   1423.34167     739.6672     692.0372   1423.34167     739.6672     692.0372
   1423.32642     740.5321     690.4570   1423.32642     740.5321     690.4570
   1423.31116     738.5482     689.6656   1423.31116     738.5482     689.6656
   1423.29590     738.2403     689.2339   1423.29590     738.2403     689.2339
   1423.28064     738.1428     688.8513   1423.28064     738.1428     688.8513
   1423.26538     738.3096     687.9633   1423.26538     738.3096     687.9633
   1423.25012     739.5823     686.7172   1423.25012     739.5823     686.7172
   1423.23486     737.5601     686.3890   1423.23486     737.5601     686.3890
   1423.21960     737.0838     686.9272   1423.21960     737.0838     686.9272
   1423.20435     738.6396     684.8390   1423.20435     738.6396     684.8390
   1423.18909     736.8900     684.6096   1423.18909     736.8900     684.6096
   1423.17383     736.1937     684.0031   1423.17383     736.1937     684.0031
   1423.15857     736.5433     682.9930   1423.15857     736.5433     682.9930
   1423.14331     736.3503     683.9411   1423.14331     736.3503     683.9411
   1423.12805     735.7846     681.9159   1423.12805     735.7846     681.9159
   1423.11279     736.7956     681.7113   1423.11279     736.7956     681.7113
   1423.09753     735.5412     680.3373   1423.09753     735.5412     680.3373
   1423.08228     735.7932     679.9523   1423.08228     735.7932     679.9523
   1423.06702     736.8887     679.6142   1423.06702     736.8887     679.6142
   1423.05176     734.7910     678.7431   1423.05176     734.7910     678.7431
   1423.03650     734.9692     678.1068   1423.03650     734.9692     678.1068
   1423.02124     735.1041     676.6746   1423.02124     735.1041     676.6746
   1423.00598     734.6017     675.4695   1423.00598     734.6017     675.4695
   1422.99072     733.9716     674.9045   1422.99072     733.9716     674.9045
   1422.97546     732.8463     673.5222   1422.97546     732.8463     673.5222
   1422.96021     734.6448     673.8774   1422.96021     734.6448     673.8774
   1422.94495     733.0634     671.9641   1422.94495     733.0634     671.9641
   1422.92969     732.8386     671.5427   1422.92969     732.8386     671.5427
   1422.91443     732.0181     671.0967   1422.91443     732.0181     671.0967
   1422.89917     732.3830     668.6604   1422.89917     732.3830     668.6604
   1422.88391     732.9225     668.9346   1422.88391     732.9225     668.9346
   1422.86865     732.7891     667.6303   1422.86865     732.7891     667.6303
   1422.85339     732.9740     666.6860   1422.85339     732.9740     666.6860
   1422.83813     732.3130     666.1925   1422.83813     732.3130     666.1925
   1422.82288     732.3224     663.8076   1422.82288     732.3224     663.8076
   1422.80762     730.8698     664.5753   1422.80762     730.8698     664.5753
   1422.79236     731.0308     662.7294   1422.79236     731.0308     662.7294
   1422.77710     730.6820     662.1156   1422.77710     730.6820     662.1156
   1422.76184     731.7418     661.0772   1422.76184     731.7418     661.0772
   1422.74658     729.9316     660.4598   1422.74658     729.9316     660.4598
   1422.73132     730.1664     658.0517   1422.73132     730.1664     658.0517
   1422.71606     731.0948     657.2106   1422.71606     731.0948     657.2106
   1422.70081     730.3281     656.6523   1422.70081     730.3281     656.6523
   1422.68555     729.3163     653.8819   1422.68555     729.3163     653.8819
   1422.67029     729.9247     655.1753   1422.67029     729.9247     655.1753
   1422.65503     729.6531     653.1354   1422.65503     729.6531     653.1354
   1422.63977     728.8425     651.5816   1422.63977     728.8425     651.5816
   1422.62451     728.9977     650.2044   1422.62451     728.9977     650.2044
   1422.60925     729.1928     649.3690   1422.60925     729.1928     649.3690
   1422.59399     728.8855     648.4419   1422.59399     728.8855     648.4419
   1422.57874     727.8649     645.9302   1422.57874     727.8649     645.9302
   1422.56348     728.3235     645.7419   1422.56348     728.3235     645.7419
   1422.54822     726.5283     644.0134   1422.54822     726.5283     644.0134
   1422.53296     727.3649     643.3948   1422.53296     727.3649     643.3948
   1422.51770     725.9694     641.2344   1422.51770     725.9694     641.2344
   1422.50244     725.9033     640.0646   1422.50244     725.9033     640.0646
   1422.48718     727.2213     638.4705   1422.48718     727.2213     638.4705
   1422.47192     727.8503     636.7894   1422.47192     727.8503     636.7894
   1422.45667     725.6464     636.9382   1422.45667     725.6464     636.9382
   1422.44141     725.8087     634.2238   1422.44141     725.8087     634.2238
   1422.42615     726.1160     633.1821   1422.42615     726.1160     633.1821
   1422.41089     725.1930     631.5601   1422.41089     725.1930     631.5601
   1422.39563     724.8616     630.5959   1422.39563     724.8616     630.5959
   1422.38037     725.7132     629.6827   1422.38037     725.7132     629.6827
   1422.36511     723.9977     627.2567   1422.36511     723.9977     627.2567
   1422.34985     724.5571     626.7446   1422.34985     724.5571     626.7446
   1422.33459     724.1848     625.1061   1422.33459     724.1848     625.1061
   1422.31934     723.8883     623.9664   1422.31934     723.8883     623.9664
   1422.30408     724.3162     623.3317   1422.30408     724.3162     623.3317
   1422.28882     722.9884     620.2197   1422.28882     722.9884     620.2197
   1422.27356     722.5203     618.2419   1422.27356     722.5203     618.2419
   1422.25830     722.5707     619.2939   1422.25830     722.5707     619.2939
   1422.24304     724.3060     617.1452   1422.24304     724.3060     617.1452
   1422.22778     723.1243     615.5269   1422.22778     723.1243     615.5269
   1422.21252     721.6039     613.8132   1422.21252     721.6039     613.8132
   1422.19727     722.4717     612.7904   1422.19727     722.4717     612.7904
   1422.18201     722.1501     611.2173   1422.18201     722.1501     611.2173
   1422.16675     721.5442     608.9442   1422.16675     721.5442     608.9442
   1422.15149     721.3712     608.3558   1422.15149     721.3712     608.3558
   1422.13623     721.6500     606.9474   1422.13623     721.6500     606.9474
   1422.12097     720.1962     605.4376   1422.12097     720.1962     605.4376
   1422.10571     720.8454     604.2738   1422.10571     720.8454     604.2738
   1422.09045     720.5215     601.6269   1422.09045     720.5215     601.6269
   1422.07520     720.7266     600.9650   1422.07520     720.7266     600.9650
   1422.05994     720.1033     599.1791   1422.05994     720.1033     599.1791
   1422.04468     719.1536     597.4389   1422.04468     719.1536     597.4389
   1422.02942     719.0930     596.0784   1422.02942     719.0930     596.0784
   1422.01416     719.8806     594.8198   1422.01416     719.8806     594.8198
   1421.99890     719.7891     593.2056   1421.99890     719.7891     593.2056
   1421.98364     719.7269     591.9122   1421.98364     719.7269     591.9122
   1421.96838     719.2169     589.6929   1421.96838     719.2169     589.6929
   1421.95312     718.3500     588.0756   1421.95312     718.3500     588.0756
   1421.93787     718.0349     587.4349   1421.93787     718.0349     587.4349
   1421.92261     717.8918     585.6261   1421.92261     717.8918     585.6261
   1421.90735     717.7164     583.8062   1421.90735     717.7164     583.8062
   1421.89209     718.3730     583.1689   1421.89209     718.3730     583.1689
   1421.87683     717.9991     581.8494   1421.87683     717.9991     581.8494
   1421.86157     716.6443     579.8384   1421.86157     716.6443     579.8384
   1421.84631     717.2388     577.6757   1421.84631     717.2388     577.6757
   1421.83105     716.8759     576.4351   1421.83105     716.8759     576.4351
   1421.81580     716.2128     574.9726   1421.81580     716.2128     574.9726
   1421.80054     716.4573     573.2062   1421.80054     716.4573     573.2062
   1421.78528     716.7071     572.3824   1421.78528     716.7071     572.3824
   1421.77002     715.0384     570.8671   1421.77002     715.0384     570.8671
   1421.75476     715.4695     568.4056   1421.75476     715.4695     568.4056
   1421.73950     714.7703     566.5305   1421.73950     714.7703     566.5305
   1421.72424     715.2570     565.9198   1421.72424     715.2570     565.9198
   1421.70898     714.2822     564.1142   1421.70898     714.2822     564.1142
   1421.69373     714.0504     563.3531   1421.69373     714.0504     563.3531
   1421.67847     714.4808     561.0222   1421.67847     714.4808     561.0222
   1421.66321     713.9651     559.8942   1421.66321     713.9651     559.8942
   1421.64795     712.8128     557.8121   1421.64795     712.8128     557.8121
   1421.63269     714.0624     556.6537   1421.63269     714.0624     556.6537
   1421.61743     712.8998     554.5523   1421.61743     712.8998     554.5523
   1421.60217     713.3217     554.6412   1421.60217     713.3217     554.6412
   1421.58691     712.6685     551.9802   1421.58691     712.6685     551.9802
   1421.57166     712.5278     550.7541   1421.57166     712.5278     550.7541
   1421.55640     713.5928     549.9196   1421.55640     713.5928     549.9196
   1421.54114     712.1864     548.0665   1421.54114     712.1864     548.0665
   1421.52588     711.6483     546.1352   1421.52588     711.6483     546.1352
   1421.51062     711.2438     545.3264   1421.51062     711.2438     545.3264
   1421.49536     712.5243     543.9367   1421.49536     712.5243     543.9367
   1421.48010     711.3860     543.1025   1421.48010     711.3860     543.1025
   1421.46484     711.5175     540.3958   1421.46484     711.5175     540.3958
   1421.44958     710.6385     539.7281   1421.44958     710.6385     539.7281
   1421.43433     710.3761     538.7781   1421.43433     710.3761     538.7781
   1421.41907     710.1426     536.6021   1421.41907     710.1426     536.6021
   1421.40381     708.8179     535.2091   1421.40381     708.8179     535.2091
   1421.38855     710.2692     533.6239   1421.38855     710.2692     533.6239
   1421.37329     708.7314     532.8887   1421.37329     708.7314     532.8887
   1421.35803     709.2861     530.7489   1421.35803     709.2861     530.7489
   1421.34277     708.6664     530.3088   1421.34277     708.6664     530.3088
   1421.32751     707.9739     528.6123   1421.32751     707.9739     528.6123
   1421.31226     708.8906     527.1274   1421.31226     708.8906     527.1274
   1421.29700     708.0804     525.9891   1421.29700     708.0804     525.9891
   1421.28174     707.7694     524.1795   1421.28174     707.7694     524.1795
   1421.26648     707.2650     522.9177   1421.26648     707.2650     522.9177
   1421.25122     705.9344     521.8389   1421.25122     705.9344     521.8389
   1421.23596     706.8344     520.2842   1421.23596     706.8344     520.2842
   1421.22070     707.4286     518.2408   1421.22070     707.4286     518.2408
   1421.20544     705.9529     517.9902   1421.20544     705.9529     517.9902
   1421.19019     705.4169     516.5330   1421.19019     705.4169     516.5330
   1421.17493     705.4404     515.4105   1421.17493     705.4404     515.4105
   1421.15967     705.7333     513.3590   1421.15967     705.7333     513.3590
   1421.14441     705.3798     512.3635   1421.14441     705.3798     512.3635
   1421.12915     703.6284     511.5949   1421.12915     703.6284     511.5949
   1421.11389     704.8633     509.9875   1421.11389     704.8633     509.9875
   1421.09863     704.3774     508.0724   1421.09863     704.3774     508.0724
   1421.08337     704.7353     507.4417   1421.08337     704.7353     507.4417
   1421.06812     704.6058     506.0764   1421.06812     704.6058     506.0764
   1421.05286     705.4283     505.4190   1421.05286     705.4283     505.4190
   1421.03760     704.6589     503.2398   1421.03760     704.6589     503.2398
   1421.02234     703.1648     502.9796   1421.02234     703.1648     502.9796
   1421.00708     703.1892     501.9247   1421.00708     703.1892     501.9247
   1420.99182     702.7932     500.7238   1420.99182     702.7932     500.7238
   1420.97656     703.5102     498.5752   1420.97656     703.5102     498.5752
   1420.96130     702.5377     497.8766   1420.96130     702.5377     497.8766
   1420.94604     702.4459     497.5937   1420.94604     702.4459     497.5937
   1420.93079     702.0270     496.4780   1420.93079     702.0270     496.4780
   1420.91553     702.0568     493.8941   1420.91553     702.0568     493.8941
   1420.90027     702.0761     494.0625   1420.90027     702.0761     494.0625
   1420.88501     701.3788     491.8523   1420.88501     701.3788     491.8523
   1420.86975     700.3109     490.6426   1420.86975     700.3109     490.6426
   1420.85449     700.3673     490.2321   1420.85449     700.3673     490.2321
   1420.83923     701.0126     489.4747   1420.83923     701.0126     489.4747
   1420.82397     701.5276     488.4405   1420.82397     701.5276     488.4405
   1420.80872     701.1091     487.2506   1420.80872     701.1091     487.2506
   1420.79346     701.0839     486.1269   1420.79346     701.0839     486.1269
   1420.77820     700.6241     485.4588   1420.77820     700.6241     485.4588
   1420.76294     701.4726     484.2275   1420.76294     701.4726     484.2275
   1420.74768     699.6470     483.3823   1420.74768     699.6470     483.3823
   1420.73242     700.6717     482.5975   1420.73242     700.6717     482.5975
   1420.71716     700.2514     481.3046   1420.71716     700.2514     481.3046
   1420.70190     702.1371     480.8559   1420.70190     702.1371     480.8559
   1420.68665     701.2534     479.2689   1420.68665     701.2534     479.2689
   1420.67139     700.7518     478.8412   1420.67139     700.7518     478.8412
   1420.65613     701.0843     477.5690   1420.65613     701.0843     477.5690
   1420.64087     699.3686     476.1463   1420.64087     699.3686     476.1463
   1420.62561     700.5464     476.2742   1420.62561     700.5464     476.2742
   1420.61035     699.7324     474.7124   1420.61035     699.7324     474.7124
   1420.59509     700.4514     474.3329   1420.59509     700.4514     474.3329
   1420.57983     700.9767     473.0942   1420.57983     700.9767     473.0942
   1420.56458     701.4124     473.4435   1420.56458     701.4124     473.4435
   1420.54932     703.5270     472.8757   1420.54932     703.5270     472.8757
   1420.53406     702.6971     473.0348   1420.53406     702.6971     473.0348
   1420.51880     705.4930     472.8714   1420.51880     705.4930     472.8714
   1420.50354     704.1682     472.6783   1420.50354     704.1682     472.6783
   1420.48828     703.8707     471.1501   1420.48828     703.8707     471.1501
   1420.47302     704.2228     470.5495   1420.47302     704.2228     470.5495
   1420.45776     703.9439     468.8806   1420.45776     703.9439     468.8806
   1420.44250     702.6046     467.5745   1420.44250     702.6046     467.5745
   1420.42725     703.5846     466.5783   1420.42725     703.5846     466.5783
   1420.41199     702.4691     464.9600   1420.41199     702.4691     464.9600
   1420.39673     701.6523     464.8189   1420.39673     701.6523     464.8189
   1420.38147     700.8199     464.1245   1420.38147     700.8199     464.1245
   1420.36621     701.1606     463.4955   1420.36621     701.1606     463.4955
   1420.35095     702.5799     463.0761   1420.35095     702.5799     463.0761
   1420.33569     701.8293     463.0157   1420.33569     701.8293     463.0157
   1420.32043     704.6069     463.0195   1420.32043     704.6069     463.0195
   1420.30518     706.4421     464.3072   1420.30518     706.4421     464.3072
   1420.28992     711.0129     466.9908   1420.28992     711.0129     466.9908
   1420.27466     724.5992     474.4512   1420.27466     724.5992     474.4512
   1420.25940     771.3817     502.1184   1420.25940     771.3817     502.1184
   1420.24414     873.8201     565.4239   1420.24414     873.8201     565.4239
   1420.22888     942.7257     607.0178   1420.22888     942.7257     607.0178
   1420.21362     920.5757     593.3203   1420.21362     920.5757     593.3203
   1420.19836     926.9823     596.2990   1420.19836     926.9823     596.2990
   1420.18311     960.5974     616.0400   1420.18311     960.5974     616.0400
   1420.16785    1088.1436     693.3411   1420.16785    1088.1436     693.3411
   1420.15259    1392.2363     879.5653   1420.15259    1392.2363     879.5653
   1420.13733    1815.0101    1140.0343   1420.13733    1815.0101    1140.0343
   1420.12207    1803.8285    1133.3966   1420.12207    1803.8285    1133.3966
   1420.10681    1561.0675     983.5583   1420.10681    1561.0675     983.5583
   1420.09155    1382.0466     872.8851   1420.09155    1382.0466     872.8851
   1420.07629    1103.2715     697.3109   1420.07629    1103.2715     697.3109
   1420.06104     898.1172     571.7112   1420.06104     898.1172     571.7112
   1420.04578     842.8024     535.8686   1420.04578     842.8024     535.8686
   1420.03052     883.8011     560.6489   1420.03052     883.8011     560.6489
   1420.01526    1079.9414     680.6969   1420.01526    1079.9414     680.6969
   1420.00000    1403.6023     877.8503   1420.00000    1403.6023     877.8503
   1419.98474    1727.2639    1075.0039   1419.98474    1727.2639    1075.0039
   1419.96948    1913.4406    1187.4868   1419.96948    1913.4406    1187.4868
   1419.95422    1936.6576    1197.9285   1419.95422    1936.6576    1197.9285
   1419.93896    1789.1483    1106.3402   1419.93896    1789.1483    1106.3402
   1419.92371    1712.4595    1059.2389   1419.92371    1712.4595    1059.2389
   1419.90845    1694.2657    1050.0878   1419.90845    1694.2657    1050.0878
   1419.89319    1617.3557    1002.1505   1419.89319    1617.3557    1002.1505
   1419.87793    1618.2002    1001.1512   1419.87793    1618.2002    1001.1512
   1419.86267    1589.6342     983.9591   1419.86267    1589.6342     983.9591
   1419.84741    1507.7247     932.4147   1419.84741    1507.7247     932.4147
   1419.83215    1325.8052     819.2546   1419.83215    1325.8052     819.2546
   1419.81689    1139.2019     706.3807   1419.81689    1139.2019     706.3807
   1419.80164    1009.8759     627.8358   1419.80164    1009.8759     627.8358
   1419.78638     935.9004     582.4380   1419.78638     935.9004     582.4380
   1419.77112     883.0961     550.9808   1419.77112     883.0961     550.9808
   1419.75586     838.0665     524.1894   1419.75586     838.0665     524.1894
   1419.74060     808.8550     506.1320   1419.74060     808.8550     506.1320
   1419.72534     793.2548     496.6347   1419.72534     793.2548     496.6347
   1419.71008     782.7975     489.8392   1419.71008     782.7975     489.8392
   1419.69482     771.2633     482.4366   1419.69482     771.2633     482.4366
   1419.67957     755.1590     472.7319   1419.67957     755.1590     472.7319
   1419.66431     738.3630     461.7940   1419.66431     738.3630     461.7940
   1419.64905     724.8706     453.6622   1419.64905     724.8706     453.6622
   1419.63379     715.0130     447.8577   1419.63379     715.0130     447.8577
   1419.61853     707.1471     442.8854   1419.61853     707.1471     442.8854
   1419.60327     703.1657     439.8544   1419.60327     703.1657     439.8544
   1419.58801     700.0280     437.7650   1419.58801     700.0280     437.7650
   1419.57275     698.4225     436.0300   1419.57275     698.4225     436.0300
   1419.55750     697.0947     434.7622   1419.55750     697.0947     434.7622
   1419.54224     696.6055     434.6428   1419.54224     696.6055     434.6428
   1419.52698     695.8311     434.1636   1419.52698     695.8311     434.1636
   1419.51172     696.1301     433.6919   1419.51172     696.1301     433.6919
   1419.49646     696.2034     432.9530   1419.49646     696.2034     432.9530
   1419.48120     696.3233     432.3932   1419.48120     696.3233     432.3932
   1419.46594     696.1996     433.0411   1419.46594     696.1996     433.0411
   1419.45068     696.3932     432.0506   1419.45068     696.3932     432.0506
   1419.43542     695.9807     431.9856   1419.43542     695.9807     431.9856
   1419.42017     696.4986     432.3500   1419.42017     696.4986     432.3500
   1419.40491     697.2668     432.0310   1419.40491     697.2668     432.0310
   1419.38965     696.6504     432.3426   1419.38965     696.6504     432.3426
   1419.37439     698.5189     432.0684   1419.37439     698.5189     432.0684
   1419.35913     698.5132     432.6288   1419.35913     698.5132     432.6288
   1419.34387     698.8834     431.5205   1419.34387     698.8834     431.5205
   1419.32861     699.2155     431.8593   1419.32861     699.2155     431.8593
   1419.31335     698.0019     431.5167   1419.31335     698.0019     431.5167
   1419.29810     699.9356     431.6979   1419.29810     699.9356     431.6979
   1419.28284     699.1016     431.4469   1419.28284     699.1016     431.4469
   1419.26758     701.5977     431.5580   1419.26758     701.5977     431.5580
   1419.25232     700.3332     431.8837   1419.25232     700.3332     431.8837
   1419.23706     701.2247     431.7016   1419.23706     701.2247     431.7016
   1419.22180     701.0322     431.6952   1419.22180     701.0322     431.6952
   1419.20654     701.4907     432.3490   1419.20654     701.4907     432.3490
   1419.19128     702.3397     431.8297   1419.19128     702.3397     431.8297
   1419.17603     702.9664     432.2445   1419.17603     702.9664     432.2445
   1419.16077     703.4232     431.5887   1419.16077     703.4232     431.5887
   1419.14551     703.8049     432.7482   1419.14551     703.8049     432.7482
   1419.13025     703.9464     432.7257   1419.13025     703.9464     432.7257
   1419.11499     704.8816     432.4774   1419.11499     704.8816     432.4774
   1419.09973     705.2290     432.9390   1419.09973     705.2290     432.9390
   1419.08447     705.5071     433.4311   1419.08447     705.5071     433.4311
   1419.06921     705.3511     433.4709   1419.06921     705.3511     433.4709
   1419.05396     706.4966     432.9502   1419.05396     706.4966     432.9502
   1419.03870     707.0449     432.7811   1419.03870     707.0449     432.7811
   1419.02344     708.5707     433.1052   1419.02344     708.5707     433.1052
   1419.00818     708.5248     433.9999   1419.00818     708.5248     433.9999
   1418.99292     709.5983     433.3637   1418.99292     709.5983     433.3637
   1418.97766     709.8553     433.8544   1418.97766     709.8553     433.8544
   1418.96240     710.3582     434.5030   1418.96240     710.3582     434.5030
   1418.94714     711.7230     434.6002   1418.94714     711.7230     434.6002
   1418.93188     712.0110     433.9866   1418.93188     712.0110     433.9866
   1418.91663     712.9337     435.4059   1418.91663     712.9337     435.4059
   1418.90137     713.0724     435.7244   1418.90137     713.0724     435.7244
   1418.88611     711.6240     435.8964   1418.88611     711.6240     435.8964
   1418.87085     713.2026     435.6974   1418.87085     713.2026     435.6974
   1418.85559     716.2722     435.8899   1418.85559     716.2722     435.8899
   1418.84033     714.0352     436.0209   1418.84033     714.0352     436.0209
   1418.82507     716.5872     436.3775   1418.82507     716.5872     436.3775
   1418.80981     717.6509     436.2281   1418.80981     717.6509     436.2281
   1418.79456     717.8414     437.4273   1418.79456     717.8414     437.4273
   1418.77930     718.4469     437.3232   1418.77930     718.4469     437.3232
   1418.76404     719.5500     438.5995   1418.76404     719.5500     438.5995
   1418.74878     720.1582     438.2962   1418.74878     720.1582     438.2962
   1418.73352     721.4156     437.6243   1418.73352     721.4156     437.6243
   1418.71826     722.1465     438.6396   1418.71826     722.1465     438.6396
   1418.70300     722.1993     438.8037   1418.70300     722.1993     438.8037
   1418.68774     723.7215     439.6944   1418.68774     723.7215     439.6944
   1418.67249     723.9819     439.5356   1418.67249     723.9819     439.5356
   1418.65723     724.3433     440.6034   1418.65723     724.3433     440.6034
   1418.64197     726.6047     440.1352   1418.64197     726.6047     440.1352
   1418.62671     728.2145     440.5116   1418.62671     728.2145     440.5116
   1418.61145     726.5726     441.6204   1418.61145     726.5726     441.6204
   1418.59619     728.0120     441.4851   1418.59619     728.0120     441.4851
   1418.58093     729.4917     442.0609   1418.58093     729.4917     442.0609
   1418.56567     729.4024     443.0268   1418.56567     729.4024     443.0268
   1418.55042     730.3463     442.7660   1418.55042     730.3463     442.7660
   1418.53516     731.3708     443.5701   1418.53516     731.3708     443.5701
   1418.51990     732.8488     444.4799   1418.51990     732.8488     444.4799
   1418.50464     734.6339     443.8737   1418.50464     734.6339     443.8737
   1418.48938     735.0516     445.2431   1418.48938     735.0516     445.2431
   1418.47412     736.0703     446.3680   1418.47412     736.0703     446.3680
   1418.45886     736.8636     445.8586   1418.45886     736.8636     445.8586
   1418.44360     736.4892     446.3573   1418.44360     736.4892     446.3573
   1418.42834     736.6005     446.4583   1418.42834     736.6005     446.4583
   1418.41309     738.9669     447.4204   1418.41309     738.9669     447.4204
   1418.39783     740.8629     447.5966   1418.39783     740.8629     447.5966
   1418.38257     740.4593     448.6682   1418.38257     740.4593     448.6682
   1418.36731     743.1266     448.8163   1418.36731     743.1266     448.8163
   1418.35205     743.8804     449.0014   1418.35205     743.8804     449.0014
   1418.33679     744.7723     450.2462   1418.33679     744.7723     450.2462
   1418.32153     744.2774     449.3166   1418.32153     744.2774     449.3166
   1418.30627     745.0827     450.4641   1418.30627     745.0827     450.4641
   1418.29102     747.6931     450.8798   1418.29102     747.6931     450.8798
   1418.27576     748.6672     451.6211   1418.27576     748.6672     451.6211
   1418.26050     748.5873     452.4363   1418.26050     748.5873     452.4363
   1418.24524     751.4937     453.1508   1418.24524     751.4937     453.1508
   1418.22998     750.3047     453.4680   1418.22998     750.3047     453.4680
   1418.21472     752.2380     454.2767   1418.21472     752.2380     454.2767
   1418.19946     754.6990     453.9899   1418.19946     754.6990     453.9899
   1418.18420     755.4895     454.5798   1418.18420     755.4895     454.5798
   1418.16895     755.9954     455.0878   1418.16895     755.9954     455.0878
   1418.15369     757.6042     456.2223   1418.15369     757.6042     456.2223
   1418.13843     758.5966     456.9684   1418.13843     758.5966     456.9684
   1418.12317     759.2562     456.3034   1418.12317     759.2562     456.3034
   1418.10791     760.6869     457.6325   1418.10791     760.6869     457.6325
   1418.09265     761.3490     458.7691   1418.09265     761.3490     458.7691
   1418.07739     761.8264     458.6904   1418.07739     761.8264     458.6904
   1418.06213     763.0549     459.7266   1418.06213     763.0549     459.7266
   1418.04688     765.1161     460.1881   1418.04688     765.1161     460.1881
   1418.03162     767.1566     460.9074   1418.03162     767.1566     460.9074
   1418.01636     767.6803     461.4016   1418.01636     767.6803     461.4016
   1418.00110     768.7336     462.8472   1418.00110     768.7336     462.8472
   1417.98584     769.7022     462.9699   1417.98584     769.7022     462.9699
   1417.97058     771.0458     463.2874   1417.97058     771.0458     463.2874
   1417.95532     771.8353     464.1858   1417.95532     771.8353     464.1858
   1417.94006     772.9681     464.4867   1417.94006     772.9681     464.4867
   1417.92480     774.9922     464.9053   1417.92480     774.9922     464.9053
   1417.90955     776.7486     465.9597   1417.90955     776.7486     465.9597
   1417.89429     776.5148     466.4046   1417.89429     776.5148     466.4046
   1417.87903     778.6944     466.7822   1417.87903     778.6944     466.7822
   1417.86377     778.7855     467.7119   1417.86377     778.7855     467.7119
   1417.84851     780.5786     467.8977   1417.84851     780.5786     467.8977
   1417.83325     782.6415     468.6314   1417.83325     782.6415     468.6314
   1417.81799     782.3649     470.1892   1417.81799     782.3649     470.1892
   1417.80273     784.1989     470.2532   1417.80273     784.1989     470.2532
   1417.78748     785.0969     470.7203   1417.78748     785.0969     470.7203
   1417.77222     787.3658     471.7502   1417.77222     787.3658     471.7502
   1417.75696     789.6167     472.2148   1417.75696     789.6167     472.2148
   1417.74170     789.6808     472.5079   1417.74170     789.6808     472.5079
   1417.72644     790.7090     473.7303   1417.72644     790.7090     473.7303
   1417.71118     791.5857     473.1148   1417.71118     791.5857     473.1148
   1417.69592     792.4858     475.9138   1417.69592     792.4858     475.9138
   1417.68066     795.4084     475.4166   1417.68066     795.4084     475.4166
   1417.66541     796.8063     476.1342   1417.66541     796.8063     476.1342
   1417.65015     797.9437     475.8734   1417.65015     797.9437     475.8734
   1417.63489     798.7998     476.4770   1417.63489     798.7998     476.4770
   1417.61963     800.4136     478.0397   1417.61963     800.4136     478.0397
   1417.60437     802.0206     478.4138   1417.60437     802.0206     478.4138
   1417.58911     803.5426     479.4999   1417.58911     803.5426     479.4999
   1417.57385     804.8706     479.5536   1417.57385     804.8706     479.5536
   1417.55859     805.0644     480.1904   1417.55859     805.0644     480.1904
   1417.54333     805.0374     480.4979   1417.54333     805.0374     480.4979
   1417.52808     806.7795     481.8792   1417.52808     806.7795     481.8792
   1417.51282     807.3179     481.4418   1417.51282     807.3179     481.4418
   1417.49756     808.4641     482.4058   1417.49756     808.4641     482.4058
   1417.48230     811.3110     482.9354   1417.48230     811.3110     482.9354
   1417.46704     812.2996     483.6683   1417.46704     812.2996     483.6683
   1417.45178     813.8516     484.5728   1417.45178     813.8516     484.5728
   1417.43652     815.6550     484.5415   1417.43652     815.6550     484.5415
   1417.42126     815.8868     485.3733   1417.42126     815.8868     485.3733
   1417.40601     817.8038     486.5184   1417.40601     817.8038     486.5184
   1417.39075     818.5059     486.9260   1417.39075     818.5059     486.9260
   1417.37549     819.6250     487.7520   1417.37549     819.6250     487.7520
   1417.36023     820.9441     487.3725   1417.36023     820.9441     487.3725
   1417.34497     822.2028     488.7867   1417.34497     822.2028     488.7867
   1417.32971     822.8190     490.1207   1417.32971     822.8190     490.1207
   1417.31445     823.9920     489.9164   1417.31445     823.9920     489.9164
   1417.29919     826.0718     490.6213   1417.29919     826.0718     490.6213
   1417.28394     825.7216     490.3674   1417.28394     825.7216     490.3674
   1417.26868     828.1194     491.2859   1417.26868     828.1194     491.2859
   1417.25342     828.8289     491.5626   1417.25342     828.8289     491.5626
   1417.23816     828.3036     492.7066   1417.23816     828.3036     492.7066
   1417.22290     832.6151     494.3705   1417.22290     832.6151     494.3705
   1417.20764     832.3903     493.9767   1417.20764     832.3903     493.9767
   1417.19238     832.3729     494.6861   1417.19238     832.3729     494.6861
   1417.17712     833.2969     495.0979   1417.17712     833.2969     495.0979
   1417.16187     835.1453     494.8099   1417.16187     835.1453     494.8099
   1417.14661     836.3875     495.8543   1417.14661     836.3875     495.8543
   1417.13135     836.8240     496.6714   1417.13135     836.8240     496.6714
   1417.11609     838.3311     497.9306   1417.11609     838.3311     497.9306
   1417.10083     838.2819     498.4086   1417.10083     838.2819     498.4086
   1417.08557     840.0763     498.3546   1417.08557     840.0763     498.3546
   1417.07031     840.8925     498.3116   1417.07031     840.8925     498.3116
   1417.05505     841.9557     498.7396   1417.05505     841.9557     498.7396
   1417.03979     842.0422     500.1098   1417.03979     842.0422     500.1098
   1417.02454     843.6415     500.3682   1417.02454     843.6415     500.3682
   1417.00928     845.0055     500.0869   1417.00928     845.0055     500.0869
   1416.99402     845.6755     500.9563   1416.99402     845.6755     500.9563
   1416.97876     846.9340     501.1696   1416.97876     846.9340     501.1696
   1416.96350     847.9569     501.7509   1416.96350     847.9569     501.7509
   1416.94824     846.8194     502.1952   1416.94824     846.8194     502.1952
   1416.93298     847.9798     501.9585   1416.93298     847.9798     501.9585
   1416.91772     849.5300     503.2782   1416.91772     849.5300     503.2782
   1416.90247     850.3901     503.0815   1416.90247     850.3901     503.0815
   1416.88721     851.0889     503.8015   1416.88721     851.0889     503.8015
   1416.87195     850.5552     504.3440   1416.87195     850.5552     504.3440
   1416.85669     851.6151     504.4706   1416.85669     851.6151     504.4706
   1416.84143     853.0634     504.1323   1416.84143     853.0634     504.1323
   1416.82617     854.3782     503.8878   1416.82617     854.3782     503.8878
   1416.81091     853.4096     505.7089   1416.81091     853.4096     505.7089
   1416.79565     856.5203     505.3460   1416.79565     856.5203     505.3460
   1416.78040     854.1864     504.8546   1416.78040     854.1864     504.8546
   1416.76514     856.2726     505.7766   1416.76514     856.2726     505.7766
   1416.74988     853.8340     506.0919   1416.74988     853.8340     506.0919
   1416.73462     857.0587     506.8122   1416.73462     857.0587     506.8122
   1416.71936     857.6998     507.0553   1416.71936     857.6998     507.0553
   1416.70410     855.6324     506.8019   1416.70410     855.6324     506.8019
   1416.68884     857.8149     506.5712   1416.68884     857.8149     506.5712
   1416.67358     858.6371     507.3836   1416.67358     858.6371     507.3836
   1416.65833     859.4547     507.4547   1416.65833     859.4547     507.4547
   1416.64307     859.2059     506.8237   1416.64307     859.2059     506.8237
   1416.62781     857.1320     507.1459   1416.62781     857.1320     507.1459
   1416.61255     859.3233     507.7916   1416.61255     859.3233     507.7916
   1416.59729     860.6895     508.2599   1416.59729     860.6895     508.2599
   1416.58203     859.4991     507.4150   1416.58203     859.4991     507.4150
   1416.56677     859.1765     507.2314   1416.56677     859.1765     507.2314
   1416.55151     859.9092     507.3951   1416.55151     859.9092     507.3951
   1416.53625     860.1138     507.0956   1416.53625     860.1138     507.0956
   1416.52100     859.5322     507.8961   1416.52100     859.5322     507.8961
   1416.50574     859.1943     507.6242   1416.50574     859.1943     507.6242
   1416.49048     860.4402     508.3461   1416.49048     860.4402     508.3461
   1416.47522     860.9130     507.3871   1416.47522     860.9130     507.3871
   1416.45996     860.4739     507.4706   1416.45996     860.4739     507.4706
   1416.44470     860.6518     508.1874   1416.44470     860.6518     508.1874
   1416.42944     861.1428     507.9628   1416.42944     861.1428     507.9628
   1416.41418     859.2239     507.4164   1416.41418     859.2239     507.4164
   1416.39893     858.7523     507.7162   1416.39893     858.7523     507.7162
   1416.38367     860.1002     507.5319   1416.38367     860.1002     507.5319
   1416.36841     859.2321     507.4600   1416.36841     859.2321     507.4600
   1416.35315     860.3571     506.5662   1416.35315     860.3571     506.5662
   1416.33789     859.9199     507.3259   1416.33789     859.9199     507.3259
   1416.32263     858.3959     507.0840   1416.32263     858.3959     507.0840
   1416.30737     860.3793     506.9828   1416.30737     860.3793     506.9828
   1416.29211     857.4484     507.1266   1416.29211     857.4484     507.1266
   1416.27686     858.4996     506.0276   1416.27686     858.4996     506.0276
   1416.26160     857.9055     505.8808   1416.26160     857.9055     505.8808
   1416.24634     857.7407     506.6623   1416.24634     857.7407     506.6623
   1416.23108     858.6949     506.7160   1416.23108     858.6949     506.7160
   1416.21582     860.2543     507.1089   1416.21582     860.2543     507.1089
   1416.20056     856.5948     505.8561   1416.20056     856.5948     505.8561
   1416.18530     856.6133     505.2816   1416.18530     856.6133     505.2816
   1416.17004     855.4888     504.8475   1416.17004     855.4888     504.8475
   1416.15479     854.6877     505.8599   1416.15479     854.6877     505.8599
   1416.13953     856.3979     504.8612   1416.13953     856.3979     504.8612
   1416.12427     852.8856     504.8825   1416.12427     852.8856     504.8825
   1416.10901     853.0417     505.0652   1416.10901     853.0417     505.0652
   1416.09375     853.4293     503.8880   1416.09375     853.4293     503.8880
   1416.07849     853.2050     503.6228   1416.07849     853.2050     503.6228
   1416.06323     851.6901     503.9603   1416.06323     851.6901     503.9603
   1416.04797     851.6987     503.0305   1416.04797     851.6987     503.0305
   1416.03271     851.7733     503.5581   1416.03271     851.7733     503.5581
   1416.01746     850.6357     503.9596   1416.01746     850.6357     503.9596
   1416.00220     850.2618     502.4399   1416.00220     850.2618     502.4399
   1415.98694     849.5903     502.7547   1415.98694     849.5903     502.7547
   1415.97168     846.7753     501.8661   1415.97168     846.7753     501.8661
   1415.95642     846.5859     501.6897   1415.95642     846.5859     501.6897
   1415.94116     848.3950     502.1561   1415.94116     848.3950     502.1561
   1415.92590     846.9250     501.2664   1415.92590     846.9250     501.2664
   1415.91064     844.8172     500.9442   1415.91064     844.8172     500.9442
   1415.89539     845.0940     500.5805   1415.89539     845.0940     500.5805
   1415.88013     845.1421     500.2081   1415.88013     845.1421     500.2081
   1415.86487     843.8790     500.3496   1415.86487     843.8790     500.3496
   1415.84961     843.7280     499.2846   1415.84961     843.7280     499.2846
   1415.83435     844.9016     501.5731   1415.83435     844.9016     501.5731
   1415.81909     840.8049     499.6035   1415.81909     840.8049     499.6035
   1415.80383     839.7861     499.8808   1415.80383     839.7861     499.8808
   1415.78857     838.0970     498.6078   1415.78857     838.0970     498.6078
   1415.77332     838.1594     498.2719   1415.77332     838.1594     498.2719
   1415.75806     838.6843     498.1783   1415.75806     838.6843     498.1783
   1415.74280     836.0556     498.6178   1415.74280     836.0556     498.6178
   1415.72754     834.8450     497.8246   1415.72754     834.8450     497.8246
   1415.71228     834.3575     497.2063   1415.71228     834.3575     497.2063
   1415.69702     833.4631     497.0230   1415.69702     833.4631     497.0230
   1415.68176     833.9502     496.9969   1415.68176     833.9502     496.9969
   1415.66650     831.9582     496.5158   1415.66650     831.9582     496.5158
   1415.65125     831.2516     497.2603   1415.65125     831.2516     497.2603
   1415.63599     830.2715     494.8814   1415.63599     830.2715     494.8814
   1415.62073     828.4259     496.2509   1415.62073     828.4259     496.2509
   1415.60547     828.1765     496.2660   1415.60547     828.1765     496.2660
   1415.59021     826.8215     494.6528   1415.59021     826.8215     494.6528
   1415.57495     826.4719     493.9352   1415.57495     826.4719     493.9352
   1415.55969     823.8281     494.1237   1415.55969     823.8281     494.1237
   1415.54443     825.1154     493.8091   1415.54443     825.1154     493.8091
   1415.52917     822.3721     493.7916   1415.52917     822.3721     493.7916
   1415.51392     821.7517     493.2132   1415.51392     821.7517     493.2132
   1415.49866     819.7877     492.8703   1415.49866     819.7877     492.8703
   1415.48340     819.4668     492.0431   1415.48340     819.4668     492.0431
   1415.46814     817.9547     492.2644   1415.46814     817.9547     492.2644
   1415.45288     820.5995     494.9883   1415.45288     820.5995     494.9883
   1415.43762     816.3575     491.0928   1415.43762     816.3575     491.0928
   1415.42236     815.2198     490.9693   1415.42236     815.2198     490.9693
   1415.40710     811.6812     491.4758   1415.40710     811.6812     491.4758
   1415.39185     810.9520     490.5703   1415.39185     810.9520     490.5703
   1415.37659     809.2485     489.9904   1415.37659     809.2485     489.9904
   1415.36133     809.5501     489.6775   1415.36133     809.5501     489.6775
   1415.34607     807.7194     489.1653   1415.34607     807.7194     489.1653
   1415.33081     806.9243     488.4989   1415.33081     806.9243     488.4989
   1415.31555     804.6857     488.4956   1415.31555     804.6857     488.4956
   1415.30029     804.0184     488.6296   1415.30029     804.0184     488.6296
   1415.28503     801.3298     487.3767   1415.28503     801.3298     487.3767
   1415.26978     802.2962     487.2792   1415.26978     802.2962     487.2792
   1415.25452     799.5535     487.6735   1415.25452     799.5535     487.6735
   1415.23926     798.1957     487.1595   1415.23926     798.1957     487.1595
   1415.22400     797.7325     486.0359   1415.22400     797.7325     486.0359
   1415.20874     794.7839     485.9584   1415.20874     794.7839     485.9584
   1415.19348     794.3513     485.3255   1415.19348     794.3513     485.3255
   1415.17822     792.9822     485.0732   1415.17822     792.9822     485.0732
   1415.16296     789.8105     484.3428   1415.16296     789.8105     484.3428
   1415.14771     788.4211     484.1833   1415.14771     788.4211     484.1833
   1415.13245     786.4424     483.2874   1415.13245     786.4424     483.2874
   1415.11719     786.3836     482.7927   1415.11719     786.3836     482.7927
   1415.10193     783.3511     482.1031   1415.10193     783.3511     482.1031
   1415.08667     781.6318     482.2997   1415.08667     781.6318     482.2997
   1415.07141     781.5958     481.2107   1415.07141     781.5958     481.2107
   1415.05615     779.3749     480.5493   1415.05615     779.3749     480.5493
   1415.04089     777.1996     480.4084   1415.04089     777.1996     480.4084
   1415.02563     775.1848     479.1885   1415.02563     775.1848     479.1885
   1415.01038     772.7935     479.2560   1415.01038     772.7935     479.2560
   1414.99512     771.3387     478.4435   1414.99512     771.3387     478.4435
   1414.97986     770.0648     478.9074   1414.97986     770.0648     478.9074
   1414.96460     767.2393     477.6342   1414.96460     767.2393     477.6342
   1414.94934     766.6757     477.4403   1414.94934     766.6757     477.4403
   1414.93408     763.8386     475.9051   1414.93408     763.8386     475.9051
   1414.91882     763.0361     475.7924   1414.91882     763.0361     475.7924
   1414.90356     761.1425     475.4969   1414.90356     761.1425     475.4969
   1414.88831     758.2755     475.2549   1414.88831     758.2755     475.2549
   1414.87305     755.8214     474.3304   1414.87305     755.8214     474.3304
   1414.85779     754.3336     473.0310   1414.85779     754.3336     473.0310
   1414.84253     753.4166     472.9507   1414.84253     753.4166     472.9507
   1414.82727     750.4614     471.6667   1414.82727     750.4614     471.6667
   1414.81201     748.6030     470.9792   1414.81201     748.6030     470.9792
   1414.79675     746.4293     470.4212   1414.79675     746.4293     470.4212
   1414.78149     743.6985     469.8019   1414.78149     743.6985     469.8019
   1414.76624     743.1776     469.1948   1414.76624     743.1776     469.1948
   1414.75098     739.6482     468.3546   1414.75098     739.6482     468.3546
   1414.73572     737.1224     467.7473   1414.73572     737.1224     467.7473
   1414.72046     734.3678     467.1551   1414.72046     734.3678     467.1551
   1414.70520     733.3510     466.3165   1414.70520     733.3510     466.3165
   1414.68994     732.1759     466.3629   1414.68994     732.1759     466.3629
   1414.67468     728.9554     464.6173   1414.67468     728.9554     464.6173
   1414.65942     727.5599     464.2837   1414.65942     727.5599     464.2837
   1414.64417     724.7519     463.3377   1414.64417     724.7519     463.3377
   1414.62891     720.5152     462.3576   1414.62891     720.5152     462.3576
   1414.61365     718.8004     461.2606   1414.61365     718.8004     461.2606
   1414.59839     717.4236     461.2667   1414.59839     717.4236     461.2667
   1414.58313     715.0187     460.1469   1414.58313     715.0187     460.1469
   1414.56787     712.5989     458.6720   1414.56787     712.5989     458.6720
   1414.55261     709.5276     458.5193   1414.55261     709.5276     458.5193
   1414.53735     707.3283     456.9155   1414.53735     707.3283     456.9155
   1414.52209     704.4117     456.3616   1414.52209     704.4117     456.3616
   1414.50684     701.4657     455.6019   1414.50684     701.4657     455.6019
   1414.49158     699.3184     455.0429   1414.49158     699.3184     455.0429
   1414.47632     696.5403     454.1698   1414.47632     696.5403     454.1698
   1414.46106     693.7939     451.7851   1414.46106     693.7939     451.7851
   1414.44580     691.3008     451.1540   1414.44580     691.3008     451.1540
   1414.43054     688.5175     450.6084   1414.43054     688.5175     450.6084
   1414.41528     686.4300     449.4520   1414.41528     686.4300     449.4520
   1414.40002     684.1232     448.4277   1414.40002     684.1232     448.4277
   1414.38477     681.3411     446.7848   1414.38477     681.3411     446.7848
   1414.36951     678.1409     446.6512   1414.36951     678.1409     446.6512
   1414.35425     676.7043     445.2936   1414.35425     676.7043     445.2936
   1414.33899     673.5811     443.8606   1414.33899     673.5811     443.8606
   1414.32373     671.2170     443.2381   1414.32373     671.2170     443.2381
   1414.30847     667.9620     442.8093   1414.30847     667.9620     442.8093
   1414.29321     664.0533     440.8178   1414.29321     664.0533     440.8178
   1414.27795     662.0007     439.6104   1414.27795     662.0007     439.6104
   1414.26270     659.3849     438.9919   1414.26270     659.3849     438.9919
   1414.24744     656.5042     436.9733   1414.24744     656.5042     436.9733
   1414.23218     652.9947     436.6036   1414.23218     652.9947     436.6036
   1414.21692     650.8138     435.8683   1414.21692     650.8138     435.8683
   1414.20166     646.5079     434.3930   1414.20166     646.5079     434.3930
   1414.18640     644.6142     432.8805   1414.18640     644.6142     432.8805
   1414.17114     640.4568     431.6462   1414.17114     640.4568     431.6462
   1414.15588     638.6809     430.5640   1414.15588     638.6809     430.5640
   1414.14062     635.6199     429.3917   1414.14062     635.6199     429.3917
   1414.12537     633.2004     427.6764   1414.12537     633.2004     427.6764
   1414.11011     629.6541     426.7366   1414.11011     629.6541     426.7366
   1414.09485     625.3597     425.7282   1414.09485     625.3597     425.7282
   1414.07959     623.0812     424.2402   1414.07959     623.0812     424.2402
   1414.06433     619.7664     422.7726   1414.06433     619.7664     422.7726
   1414.04907     617.2825     421.7495   1414.04907     617.2825     421.7495
   1414.03381     613.8574     420.3966   1414.03381     613.8574     420.3966
   1414.01855     610.9047     419.7485   1414.01855     610.9047     419.7485
   1414.00330     622.7885     422.9599   1414.00330     622.7885     422.9599
   1413.98804     605.3674     416.8162   1413.98804     605.3674     416.8162
   1413.97278     601.5307     416.0519   1413.97278     601.5307     416.0519
   1413.95752     597.5494     413.6675   1413.95752     597.5494     413.6675
   1413.94226     595.6572     412.5011   1413.94226     595.6572     412.5011
   1413.92700     592.1472     410.9526   1413.92700     592.1472     410.9526
   1413.91174     588.2035     409.4069   1413.91174     588.2035     409.4069
   1413.89648     585.4999     407.9749   1413.89648     585.4999     407.9749
   1413.88123     582.4562     406.5348   1413.88123     582.4562     406.5348
   1413.86597     579.5307     405.3611   1413.86597     579.5307     405.3611
   1413.85071     575.6216     403.4785   1413.85071     575.6216     403.4785
   1413.83545     572.6138     401.8222   1413.83545     572.6138     401.8222
   1413.82019     568.7906     401.1280   1413.82019     568.7906     401.1280
   1413.80493     566.8307     399.5247   1413.80493     566.8307     399.5247
   1413.78967     563.4897     398.0803   1413.78967     563.4897     398.0803
   1413.77441     559.4783     396.7095   1413.77441     559.4783     396.7095
   1413.75916     556.2488     394.2328   1413.75916     556.2488     394.2328
   1413.74390     553.5719     392.8513   1413.74390     553.5719     392.8513
   1413.72864     550.4340     392.2811   1413.72864     550.4340     392.2811
   1413.71338     547.3794     390.8292   1413.71338     547.3794     390.8292
   1413.69812     544.5563     388.5033   1413.69812     544.5563     388.5033
   1413.68286     540.5735     387.7335   1413.68286     540.5735     387.7335
   1413.66760     537.5099     385.1812   1413.66760     537.5099     385.1812
   1413.65234     534.6360     383.7745   1413.65234     534.6360     383.7745
   1413.63708     531.6521     382.6195   1413.63708     531.6521     382.6195
   1413.62183     528.6636     381.0617   1413.62183     528.6636     381.0617
   1413.60657     525.8377     379.5990   1413.60657     525.8377     379.5990
   1413.59131     522.6332     377.9211   1413.59131     522.6332     377.9211
   1413.57605     518.8348     376.6027   1413.57605     518.8348     376.6027
   1413.56079     515.4973     375.3605   1413.56079     515.4973     375.3605
   1413.54553     512.8862     373.7577   1413.54553     512.8862     373.7577
   1413.53027     510.0135     372.1129   1413.53027     510.0135     372.1129
   1413.51501     506.3043     370.2455   1413.51501     506.3043     370.2455
   1413.49976     503.4208     368.7587   1413.49976     503.4208     368.7587
   1413.48450     499.6627     366.6723   1413.48450     499.6627     366.6723
   1413.46924     497.4109     365.4392   1413.46924     497.4109     365.4392
   1413.45398     493.9821     364.1085   1413.45398     493.9821     364.1085
   1413.43872     491.1821     362.5805   1413.43872     491.1821     362.5805
   1413.42346     488.4006     361.1020   1413.42346     488.4006     361.1020
   1413.40820     484.7627     358.7216   1413.40820     484.7627     358.7216
   1413.39294     482.5139     357.9589   1413.39294     482.5139     357.9589
   1413.37769     479.4064     356.1282   1413.37769     479.4064     356.1282
   1413.36243     476.0899     354.4866   1413.36243     476.0899     354.4866
   1413.34717     474.1088     353.7066   1413.34717     474.1088     353.7066
   1413.33191     470.0615     351.7678   1413.33191     470.0615     351.7678
   1413.31665     468.1912     349.7653   1413.31665     468.1912     349.7653
   1413.30139     465.5187     348.6349   1413.30139     465.5187     348.6349
   1413.28613     461.8932     347.1077   1413.28613     461.8932     347.1077
   1413.27087     459.2544     344.6223   1413.27087     459.2544     344.6223
   1413.25562     456.1476     344.0496   1413.25562     456.1476     344.0496
   1413.24036     453.6445     342.2122   1413.24036     453.6445     342.2122
   1413.22510     450.9150     341.0173   1413.22510     450.9150     341.0173
   1413.20984     447.8157     339.0808   1413.20984     447.8157     339.0808
   1413.19458     445.6855     338.4001   1413.19458     445.6855     338.4001
   1413.17932     442.5692     336.9184   1413.17932     442.5692     336.9184
   1413.16406     441.3414     335.7985   1413.16406     441.3414     335.7985
   1413.14880     438.0614     334.1992   1413.14880     438.0614     334.1992
   1413.13354     435.5081     332.4519   1413.13354     435.5081     332.4519
   1413.11829     433.1673     331.5038   1413.11829     433.1673     331.5038
   1413.10303     430.7815     329.4314   1413.10303     430.7815     329.4314
   1413.08777     427.7521     328.4291   1413.08777     427.7521     328.4291
   1413.07251     425.9406     326.8296   1413.07251     425.9406     326.8296
   1413.05725     423.4090     324.9057   1413.05725     423.4090     324.9057
   1413.04199     421.9093     324.2787   1413.04199     421.9093     324.2787
   1413.02673     419.4911     322.5144   1413.02673     419.4911     322.5144
   1413.01147     417.6328     321.0686   1413.01147     417.6328     321.0686
   1412.99622     414.9405     319.9043   1412.99622     414.9405     319.9043
   1412.98096     412.9132     319.1993   1412.98096     412.9132     319.1993
   1412.96570     410.4388     318.2650   1412.96570     410.4388     318.2650
   1412.95044     408.4509     315.7597   1412.95044     408.4509     315.7597
   1412.93518     406.6602     315.1087   1412.93518     406.6602     315.1087
   1412.91992     404.8329     314.0587   1412.91992     404.8329     314.0587
   1412.90466     402.2838     312.4792   1412.90466     402.2838     312.4792
   1412.88940     400.7453     311.8103   1412.88940     400.7453     311.8103
   1412.87415     399.1401     310.5481   1412.87415     399.1401     310.5481
   1412.85889     397.4568     309.1062   1412.85889     397.4568     309.1062
   1412.84363     395.5619     308.1949   1412.84363     395.5619     308.1949
   1412.82837     393.9421     307.5246   1412.82837     393.9421     307.5246
   1412.81311     392.3123     306.4261   1412.81311     392.3123     306.4261
   1412.79785     390.7467     305.4051   1412.79785     390.7467     305.4051
   1412.78259     388.9699     304.5173   1412.78259     388.9699     304.5173
   1412.76733     388.1190     303.6295   1412.76733     388.1190     303.6295
   1412.75208     386.3879     302.7195   1412.75208     386.3879     302.7195
   1412.73682     384.5665     301.5142   1412.73682     384.5665     301.5142
   1412.72156     383.4941     301.1272   1412.72156     383.4941     301.1272
   1412.70630     382.1990     299.4851   1412.70630     382.1990     299.4851
   1412.69104     381.3169     299.3957   1412.69104     381.3169     299.3957
   1412.67578     380.0161     298.5154   1412.67578     380.0161     298.5154
   1412.66052     378.3733     297.7228   1412.66052     378.3733     297.7228
   1412.64526     377.4532     297.1295   1412.64526     377.4532     297.1295
   1412.63000     376.3616     296.4659   1412.63000     376.3616     296.4659
   1412.61475     375.7973     295.6529   1412.61475     375.7973     295.6529
   1412.59949     374.7709     294.8474   1412.59949     374.7709     294.8474
   1412.58423     373.8639     294.7412   1412.58423     373.8639     294.7412
   1412.56897     373.2213     294.0201   1412.56897     373.2213     294.0201
   1412.55371     372.4652     293.4958   1412.55371     372.4652     293.4958
   1412.53845     371.9765     293.1131   1412.53845     371.9765     293.1131
   1412.52319     371.1118     292.5094   1412.52319     371.1118     292.5094
   1412.50793     370.8555     291.7785   1412.50793     370.8555     291.7785
   1412.49268     370.3120     291.8181   1412.49268     370.3120     291.8181
   1412.47742     369.1943     291.5809   1412.47742     369.1943     291.5809
   1412.46216     369.0241     291.1153   1412.46216     369.0241     291.1153
   1412.44690     369.0013     291.5511   1412.44690     369.0013     291.5511
   1412.43164     368.1582     291.0179   1412.43164     368.1582     291.0179
   1412.41638     368.0766     290.6677   1412.41638     368.0766     290.6677
   1412.40112     368.2266     290.3492   1412.40112     368.2266     290.3492
   1412.38586     367.8691     290.4675   1412.38586     367.8691     290.4675
   1412.37061     367.7117     290.4403   1412.37061     367.7117     290.4403
   1412.35535     368.4202     290.5580   1412.35535     368.4202     290.5580
   1412.34009     368.2304     290.2513   1412.34009     368.2304     290.2513
   1412.32483     367.6979     290.1037   1412.32483     367.6979     290.1037
   1412.30957     368.8220     290.3659   1412.30957     368.8220     290.3659
   1412.29431     368.3975     291.1409   1412.29431     368.3975     291.1409
   1412.27905     368.7441     291.2916   1412.27905     368.7441     291.2916
   1412.26379     369.1758     291.0576   1412.26379     369.1758     291.0576
   1412.24854     369.4476     291.3076   1412.24854     369.4476     291.3076
   1412.23328     370.0239     291.6070   1412.23328     370.0239     291.6070
   1412.21802     370.3342     292.0204   1412.21802     370.3342     292.0204
   1412.20276     370.8484     292.4105   1412.20276     370.8484     292.4105