#     FILENAME=!Skynet_57528_lachhhg95_20331_20902.cyb.fits
#     BASENAME=Skynet_57528_lachhhg95_20331_20902
#     SRC_NAME=lachhhg95
#     OBSERVER=hhgmadison16_9500
#     DATE_OBS=2016-05-20T15:13:42.750
#        OBSID=20331
#      SCANNUM=20902
#          MJD=57528.6356
#          UTC=54912
#     SCANTYPE=track
#     DATAMODE=HIRES
#     TUNEFREQ=1420.0000
# Actual_FREQ1=1420.0000
# Actual_FREQ2=1420.0000
#    LO1Tuning=6870.000
#     RFFILTER=1355_1435
#        OBSBW=-15.6250
#        NCHAN=1024 
#        FOCUS=37.0709
#           RA=21:34:10.44
#          DEC=51:50:25.53
#      RA(hrs)=21.569600
#     DEC(deg)=51.840400
#    AZIM(deg)=308.377
#    ELEV(deg)=44.625
#     IFattens=10.00, 9.00
#      WARNING=None
#    TCAL_XL1=7.9635
#    TCAL_YR1=9.1340
#    TCAL_XL2=7.9635
#    TCAL_YR2=9.1340
#     TRX_XL1=11.7060
#     TRX_YR1=11.7060
#     TRX_XL2=11.7060
#     TRX_YR2=11.7060
#        TAVE=1.0000
#Freq1(MHz)          XL1          YR1  Freq2(MHz)          XL2          YR2 

   1427.81250     372.3384     291.2727   1427.81250     372.3384     291.2727
   1427.79724     373.8713     292.1025   1427.79724     373.8713     292.1025
   1427.78198     374.2055     293.2700   1427.78198     374.2055     293.2700
   1427.76672     375.1232     293.8479   1427.76672     375.1232     293.8479
   1427.75146     375.8082     294.3068   1427.75146     375.8082     294.3068
   1427.73621     376.9279     295.2733   1427.73621     376.9279     295.2733
   1427.72095     377.7956     296.0545   1427.72095     377.7956     296.0545
   1427.70569     378.4159     297.3425   1427.70569     378.4159     297.3425
   1427.69043     380.1849     298.1054   1427.69043     380.1849     298.1054
   1427.67517     381.5448     299.6780   1427.67517     381.5448     299.6780
   1427.65991     382.1163     300.9535   1427.65991     382.1163     300.9535
   1427.64465     383.2539     301.8432   1427.64465     383.2539     301.8432
   1427.62939     384.8323     302.4934   1427.62939     384.8323     302.4934
   1427.61414     385.7991     303.8831   1427.61414     385.7991     303.8831
   1427.59888     387.7297     305.0632   1427.59888     387.7297     305.0632
   1427.58362     388.6547     306.0151   1427.58362     388.6547     306.0151
   1427.56836     390.2564     307.5156   1427.56836     390.2564     307.5156
   1427.55310     392.2418     308.6215   1427.55310     392.2418     308.6215
   1427.53784     393.4432     310.1890   1427.53784     393.4432     310.1890
   1427.52258     395.5037     311.6158   1427.52258     395.5037     311.6158
   1427.50732     397.0209     312.7766   1427.50732     397.0209     312.7766
   1427.49207     398.4527     314.4613   1427.49207     398.4527     314.4613
   1427.47681     399.4695     315.8611   1427.47681     399.4695     315.8611
   1427.46155     402.1602     317.7626   1427.46155     402.1602     317.7626
   1427.44629     403.9867     319.1779   1427.44629     403.9867     319.1779
   1427.43103     406.2561     320.3802   1427.43103     406.2561     320.3802
   1427.41577     407.7765     321.8614   1427.41577     407.7765     321.8614
   1427.40051     410.6924     324.0448   1427.40051     410.6924     324.0448
   1427.38525     411.9156     325.2065   1427.38525     411.9156     325.2065
   1427.37000     414.5106     327.0063   1427.37000     414.5106     327.0063
   1427.35474     415.6094     328.6647   1427.35474     415.6094     328.6647
   1427.33948     418.3549     330.4330   1427.33948     418.3549     330.4330
   1427.32422     420.5982     332.3685   1427.32422     420.5982     332.3685
   1427.30896     423.2458     334.1636   1427.30896     423.2458     334.1636
   1427.29370     425.0620     335.9772   1427.29370     425.0620     335.9772
   1427.27844     427.4160     338.0135   1427.27844     427.4160     338.0135
   1427.26318     430.5284     339.3188   1427.26318     430.5284     339.3188
   1427.24792     432.3799     341.3287   1427.24792     432.3799     341.3287
   1427.23267     435.4078     343.5169   1427.23267     435.4078     343.5169
   1427.21741     438.0991     345.5243   1427.21741     438.0991     345.5243
   1427.20215     440.1966     347.3600   1427.20215     440.1966     347.3600
   1427.18689     442.8560     349.5959   1427.18689     442.8560     349.5959
   1427.17163     445.2719     351.4814   1427.17163     445.2719     351.4814
   1427.15637     447.5433     353.4939   1427.15637     447.5433     353.4939
   1427.14111     451.2179     355.4987   1427.14111     451.2179     355.4987
   1427.12585     453.3355     357.2133   1427.12585     453.3355     357.2133
   1427.11060     456.0343     359.8330   1427.11060     456.0343     359.8330
   1427.09534     458.5869     362.0721   1427.09534     458.5869     362.0721
   1427.08008     461.0848     363.5674   1427.08008     461.0848     363.5674
   1427.06482     464.3142     365.4564   1427.06482     464.3142     365.4564
   1427.04956     466.5555     367.9566   1427.04956     466.5555     367.9566
   1427.03430     469.5838     370.4614   1427.03430     469.5838     370.4614
   1427.01904     473.1765     372.0612   1427.01904     473.1765     372.0612
   1427.00378     476.1403     375.0368   1427.00378     476.1403     375.0368
   1426.98853     478.8617     376.5706   1426.98853     478.8617     376.5706
   1426.97327     481.2478     378.6804   1426.97327     481.2478     378.6804
   1426.95801     484.3487     381.4375   1426.95801     484.3487     381.4375
   1426.94275     487.6294     382.7727   1426.94275     487.6294     382.7727
   1426.92749     490.6178     385.9425   1426.92749     490.6178     385.9425
   1426.91223     493.4835     387.5638   1426.91223     493.4835     387.5638
   1426.89697     497.2314     389.8112   1426.89697     497.2314     389.8112
   1426.88171     500.2735     392.1364   1426.88171     500.2735     392.1364
   1426.86646     503.1117     394.5399   1426.86646     503.1117     394.5399
   1426.85120     505.8938     397.2897   1426.85120     505.8938     397.2897
   1426.83594     508.4755     399.4053   1426.83594     508.4755     399.4053
   1426.82068     512.2395     401.1681   1426.82068     512.2395     401.1681
   1426.80542     515.2836     403.3232   1426.80542     515.2836     403.3232
   1426.79016     517.3424     406.1020   1426.79016     517.3424     406.1020
   1426.77490     521.8865     408.0064   1426.77490     521.8865     408.0064
   1426.75964     524.9202     410.3217   1426.75964     524.9202     410.3217
   1426.74438     527.6726     413.2764   1426.74438     527.6726     413.2764
   1426.72913     530.9447     414.8727   1426.72913     530.9447     414.8727
   1426.71387     532.8546     416.4426   1426.71387     532.8546     416.4426
   1426.69861     536.4309     419.3506   1426.69861     536.4309     419.3506
   1426.68335     540.3870     421.8461   1426.68335     540.3870     421.8461
   1426.66809     542.5787     423.7513   1426.66809     542.5787     423.7513
   1426.65283     546.5312     426.4587   1426.65283     546.5312     426.4587
   1426.63757     549.4944     428.4305   1426.63757     549.4944     428.4305
   1426.62231     554.4425     431.3714   1426.62231     554.4425     431.3714
   1426.60706     556.1300     432.8256   1426.60706     556.1300     432.8256
   1426.59180     558.7098     434.8154   1426.59180     558.7098     434.8154
   1426.57654     562.8949     436.6219   1426.57654     562.8949     436.6219
   1426.56128     565.2104     439.4100   1426.56128     565.2104     439.4100
   1426.54602     568.2527     441.9586   1426.54602     568.2527     441.9586
   1426.53076     570.5327     443.7369   1426.53076     570.5327     443.7369
   1426.51550     574.9852     445.9915   1426.51550     574.9852     445.9915
   1426.50024     577.8972     447.7762   1426.50024     577.8972     447.7762
   1426.48499     581.0704     450.8391   1426.48499     581.0704     450.8391
   1426.46973     582.1819     452.1095   1426.46973     582.1819     452.1095
   1426.45447     586.7010     455.1327   1426.45447     586.7010     455.1327
   1426.43921     589.7291     457.1190   1426.43921     589.7291     457.1190
   1426.42395     592.3257     458.6261   1426.42395     592.3257     458.6261
   1426.40869     595.5786     461.2073   1426.40869     595.5786     461.2073
   1426.39343     598.1678     463.5728   1426.39343     598.1678     463.5728
   1426.37817     602.0384     465.3516   1426.37817     602.0384     465.3516
   1426.36292     604.9760     467.6057   1426.36292     604.9760     467.6057
   1426.34766     606.5517     469.0421   1426.34766     606.5517     469.0421
   1426.33240     611.0708     471.2795   1426.33240     611.0708     471.2795
   1426.31714     613.4901     473.5797   1426.31714     613.4901     473.5797
   1426.30188     616.2908     475.9095   1426.30188     616.2908     475.9095
   1426.28662     619.6009     477.6956   1426.28662     619.6009     477.6956
   1426.27136     621.5225     479.7887   1426.27136     621.5225     479.7887
   1426.25610     626.1353     481.9665   1426.25610     626.1353     481.9665
   1426.24084     627.9637     483.9399   1426.24084     627.9637     483.9399
   1426.22559     630.4192     485.8150   1426.22559     630.4192     485.8150
   1426.21033     632.5452     487.7735   1426.21033     632.5452     487.7735
   1426.19507     636.1993     488.8709   1426.19507     636.1993     488.8709
   1426.17981     638.5623     492.0016   1426.17981     638.5623     492.0016
   1426.16455     641.0190     493.8862   1426.16455     641.0190     493.8862
   1426.14929     643.8044     496.5560   1426.14929     643.8044     496.5560
   1426.13403     646.8621     497.5710   1426.13403     646.8621     497.5710
   1426.11877     648.5168     499.9811   1426.11877     648.5168     499.9811
   1426.10352     652.2780     502.2719   1426.10352     652.2780     502.2719
   1426.08826     653.9584     502.6884   1426.08826     653.9584     502.6884
   1426.07300     656.6135     505.2969   1426.07300     656.6135     505.2969
   1426.05774     658.6728     506.8533   1426.05774     658.6728     506.8533
   1426.04248     661.6025     507.6866   1426.04248     661.6025     507.6866
   1426.02722     664.2620     510.9588   1426.02722     664.2620     510.9588
   1426.01196     666.3385     512.3392   1426.01196     666.3385     512.3392
   1425.99670     668.9043     515.4970   1425.99670     668.9043     515.4970
   1425.98145     670.8642     516.2695   1425.98145     670.8642     516.2695
   1425.96619     674.4519     518.2679   1425.96619     674.4519     518.2679
   1425.95093     674.8460     519.3842   1425.95093     674.8460     519.3842
   1425.93567     677.9655     521.3906   1425.93567     677.9655     521.3906
   1425.92041     680.0919     523.2547   1425.92041     680.0919     523.2547
   1425.90515     682.3191     524.4791   1425.90515     682.3191     524.4791
   1425.88989     684.5524     526.8914   1425.88989     684.5524     526.8914
   1425.87463     687.2622     528.1328   1425.87463     687.2622     528.1328
   1425.85938     689.0970     529.6870   1425.85938     689.0970     529.6870
   1425.84412     691.7800     531.3379   1425.84412     691.7800     531.3379
   1425.82886     692.8328     532.7723   1425.82886     692.8328     532.7723
   1425.81360     695.0519     533.4164   1425.81360     695.0519     533.4164
   1425.79834     697.2397     535.2673   1425.79834     697.2397     535.2673
   1425.78308     697.5287     537.8540   1425.78308     697.5287     537.8540
   1425.76782     699.8860     538.8881   1425.76782     699.8860     538.8881
   1425.75256     701.2826     540.3615   1425.75256     701.2826     540.3615
   1425.73730     704.3409     542.2010   1425.73730     704.3409     542.2010
   1425.72205     706.1254     544.0281   1425.72205     706.1254     544.0281
   1425.70679     708.0844     545.5505   1425.70679     708.0844     545.5505
   1425.69153     708.7872     547.1464   1425.69153     708.7872     547.1464
   1425.67627     710.5225     547.6541   1425.67627     710.5225     547.6541
   1425.66101     713.3674     549.0064   1425.66101     713.3674     549.0064
   1425.64575     714.1636     550.6112   1425.64575     714.1636     550.6112
   1425.63049     717.1833     552.6208   1425.63049     717.1833     552.6208
   1425.61523     718.1096     554.4567   1425.61523     718.1096     554.4567
   1425.59998     718.5215     555.5563   1425.59998     718.5215     555.5563
   1425.58472     720.7505     557.1387   1425.58472     720.7505     557.1387
   1425.56946     722.4601     558.9283   1425.56946     722.4601     558.9283
   1425.55420     724.2444     559.3185   1425.55420     724.2444     559.3185
   1425.53894     723.8727     561.2286   1425.53894     723.8727     561.2286
   1425.52368     727.2230     561.8806   1425.52368     727.2230     561.8806
   1425.50842     728.0187     563.4976   1425.50842     728.0187     563.4976
   1425.49316     728.2240     564.3613   1425.49316     728.2240     564.3613
   1425.47791     730.4966     567.1204   1425.47791     730.4966     567.1204
   1425.46265     732.3107     567.5022   1425.46265     732.3107     567.5022
   1425.44739     733.0830     568.1629   1425.44739     733.0830     568.1629
   1425.43213     733.3209     570.0019   1425.43213     733.3209     570.0019
   1425.41687     735.7014     571.5848   1425.41687     735.7014     571.5848
   1425.40161     735.4086     572.5218   1425.40161     735.4086     572.5218
   1425.38635     737.8984     573.4821   1425.38635     737.8984     573.4821
   1425.37109     738.5068     574.8786   1425.37109     738.5068     574.8786
   1425.35583     738.8594     575.4462   1425.35583     738.8594     575.4462
   1425.34058     740.9312     576.3648   1425.34058     740.9312     576.3648
   1425.32532     742.0797     578.1033   1425.32532     742.0797     578.1033
   1425.31006     742.0157     579.3831   1425.31006     742.0157     579.3831
   1425.29480     743.8542     581.0970   1425.29480     743.8542     581.0970
   1425.27954     744.3970     582.2150   1425.27954     744.3970     582.2150
   1425.26428     744.7447     583.3448   1425.26428     744.7447     583.3448
   1425.24902     745.2297     583.4720   1425.24902     745.2297     583.4720
   1425.23376     747.0613     585.5649   1425.23376     747.0613     585.5649
   1425.21851     747.4692     585.9250   1425.21851     747.4692     585.9250
   1425.20325     747.6457     587.8088   1425.20325     747.6457     587.8088
   1425.18799     748.3805     589.4453   1425.18799     748.3805     589.4453
   1425.17273     749.0739     589.2070   1425.17273     749.0739     589.2070
   1425.15747     750.0661     590.9409   1425.15747     750.0661     590.9409
   1425.14221     750.7234     592.4343   1425.14221     750.7234     592.4343
   1425.12695     752.3290     593.0038   1425.12695     752.3290     593.0038
   1425.11169     752.6252     593.7789   1425.11169     752.6252     593.7789
   1425.09644     751.7475     594.7574   1425.09644     751.7475     594.7574
   1425.08118     754.4872     594.9044   1425.08118     754.4872     594.9044
   1425.06592     753.5417     596.4380   1425.06592     753.5417     596.4380
   1425.05066     754.3455     597.1401   1425.05066     754.3455     597.1401
   1425.03540     754.0342     599.0053   1425.03540     754.0342     599.0053
   1425.02014     756.3788     600.1163   1425.02014     756.3788     600.1163
   1425.00488     756.6683     600.9901   1425.00488     756.6683     600.9901
   1424.98962     755.5772     601.1542   1424.98962     755.5772     601.1542
   1424.97437     756.7224     601.5568   1424.97437     756.7224     601.5568
   1424.95911     757.6590     603.4523   1424.95911     757.6590     603.4523
   1424.94385     756.9927     604.0332   1424.94385     756.9927     604.0332
   1424.92859     757.1936     604.6423   1424.92859     757.1936     604.6423
   1424.91333     757.1789     605.1021   1424.91333     757.1789     605.1021
   1424.89807     757.8953     606.3366   1424.89807     757.8953     606.3366
   1424.88281     758.7925     607.5735   1424.88281     758.7925     607.5735
   1424.86755     757.8980     608.6382   1424.86755     757.8980     608.6382
   1424.85229     759.0215     609.3851   1424.85229     759.0215     609.3851
   1424.83704     758.4683     610.0386   1424.83704     758.4683     610.0386
   1424.82178     758.8119     610.4174   1424.82178     758.8119     610.4174
   1424.80652     759.2620     610.9053   1424.80652     759.2620     610.9053
   1424.79126     759.2876     613.0706   1424.79126     759.2876     613.0706
   1424.77600     757.7225     612.8075   1424.77600     757.7225     612.8075
   1424.76074     759.5859     614.3210   1424.76074     759.5859     614.3210
   1424.74548     759.7610     614.6766   1424.74548     759.7610     614.6766
   1424.73022     758.8668     616.0827   1424.73022     758.8668     616.0827
   1424.71497     759.8984     616.9012   1424.71497     759.8984     616.9012
   1424.69971     758.9594     617.2061   1424.69971     758.9594     617.2061
   1424.68445     759.5063     617.7167   1424.68445     759.5063     617.7167
   1424.66919     759.7369     619.4567   1424.66919     759.7369     619.4567
   1424.65393     759.7333     619.8075   1424.65393     759.7333     619.8075
   1424.63867     759.0066     619.6010   1424.63867     759.0066     619.6010
   1424.62341     759.1497     621.6487   1424.62341     759.1497     621.6487
   1424.60815     759.0029     620.9332   1424.60815     759.0029     620.9332
   1424.59290     758.6788     622.8043   1424.59290     758.6788     622.8043
   1424.57764     759.8792     623.1606   1424.57764     759.8792     623.1606
   1424.56238     759.1778     624.1554   1424.56238     759.1778     624.1554
   1424.54712     759.0491     625.1036   1424.54712     759.0491     625.1036
   1424.53186     758.8015     624.9562   1424.53186     758.8015     624.9562
   1424.51660     759.3947     624.6653   1424.51660     759.3947     624.6653
   1424.50134     758.0368     627.0285   1424.50134     758.0368     627.0285
   1424.48608     758.0875     626.8798   1424.48608     758.0875     626.8798
   1424.47083     757.5125     627.5392   1424.47083     757.5125     627.5392
   1424.45557     759.6140     627.3846   1424.45557     759.6140     627.3846
   1424.44031     756.7275     629.2490   1424.44031     756.7275     629.2490
   1424.42505     756.8476     629.0504   1424.42505     756.8476     629.0504
   1424.40979     758.3427     630.9178   1424.40979     758.3427     630.9178
   1424.39453     757.8706     629.5795   1424.39453     757.8706     629.5795
   1424.37927     756.4250     630.8761   1424.37927     756.4250     630.8761
   1424.36401     756.9213     631.4665   1424.36401     756.9213     631.4665
   1424.34875     757.3472     632.1304   1424.34875     757.3472     632.1304
   1424.33350     757.7198     632.7542   1424.33350     757.7198     632.7542
   1424.31824     756.3248     632.9046   1424.31824     756.3248     632.9046
   1424.30298     757.2317     634.7245   1424.30298     757.2317     634.7245
   1424.28772     756.2371     634.5826   1424.28772     756.2371     634.5826
   1424.27246     756.9413     634.8792   1424.27246     756.9413     634.8792
   1424.25720     755.0541     636.2588   1424.25720     755.0541     636.2588
   1424.24194     755.2069     637.3767   1424.24194     755.2069     637.3767
   1424.22668     755.3226     636.7895   1424.22668     755.3226     636.7895
   1424.21143     752.8796     636.7698   1424.21143     752.8796     636.7698
   1424.19617     755.7827     637.4587   1424.19617     755.7827     637.4587
   1424.18091     754.4415     638.2034   1424.18091     754.4415     638.2034
   1424.16565     754.7253     638.7266   1424.16565     754.7253     638.7266
   1424.15039     754.4236     639.2803   1424.15039     754.4236     639.2803
   1424.13513     754.6961     639.6600   1424.13513     754.6961     639.6600
   1424.11987     753.4265     640.2914   1424.11987     753.4265     640.2914
   1424.10461     753.0939     640.4315   1424.10461     753.0939     640.4315
   1424.08936     753.8888     641.9097   1424.08936     753.8888     641.9097
   1424.07410     753.5082     643.0817   1424.07410     753.5082     643.0817
   1424.05884     751.0999     642.4520   1424.05884     751.0999     642.4520
   1424.04358     751.5334     644.3820   1424.04358     751.5334     644.3820
   1424.02832     751.6295     643.4937   1424.02832     751.6295     643.4937
   1424.01306     749.4412     644.6360   1424.01306     749.4412     644.6360
   1423.99780     751.3790     644.3999   1423.99780     751.3790     644.3999
   1423.98254     751.3730     644.3702   1423.98254     751.3730     644.3702
   1423.96729     750.9898     646.1598   1423.96729     750.9898     646.1598
   1423.95203     751.0516     645.0839   1423.95203     751.0516     645.0839
   1423.93677     749.9678     645.9772   1423.93677     749.9678     645.9772
   1423.92151     750.0804     647.1175   1423.92151     750.0804     647.1175
   1423.90625     749.3798     647.2945   1423.90625     749.3798     647.2945
   1423.89099     748.5969     647.3561   1423.89099     748.5969     647.3561
   1423.87573     747.7663     648.1578   1423.87573     747.7663     648.1578
   1423.86047     746.5722     647.6293   1423.86047     746.5722     647.6293
   1423.84521     748.4880     648.2665   1423.84521     748.4880     648.2665
   1423.82996     747.4019     649.0887   1423.82996     747.4019     649.0887
   1423.81470     746.9721     649.3011   1423.81470     746.9721     649.3011
   1423.79944     747.2321     650.1085   1423.79944     747.2321     650.1085
   1423.78418     747.2829     649.8442   1423.78418     747.2829     649.8442
   1423.76892     744.9420     649.9518   1423.76892     744.9420     649.9518
   1423.75366     746.3721     650.8214   1423.75366     746.3721     650.8214
   1423.73840     745.0226     650.1049   1423.73840     745.0226     650.1049
   1423.72314     745.0825     650.8189   1423.72314     745.0825     650.8189
   1423.70789     744.9948     651.6290   1423.70789     744.9948     651.6290
   1423.69263     744.2465     650.5687   1423.69263     744.2465     650.5687
   1423.67737     745.1130     652.2622   1423.67737     745.1130     652.2622
   1423.66211     744.1123     651.8123   1423.66211     744.1123     651.8123
   1423.64685     743.4736     651.8046   1423.64685     743.4736     651.8046
   1423.63159     742.9138     652.3295   1423.63159     742.9138     652.3295
   1423.61633     744.3562     652.4816   1423.61633     744.3562     652.4816
   1423.60107     742.7067     653.4323   1423.60107     742.7067     653.4323
   1423.58582     743.0106     653.3083   1423.58582     743.0106     653.3083
   1423.57056     741.4508     653.8410   1423.57056     741.4508     653.8410
   1423.55530     741.0797     654.4763   1423.55530     741.0797     654.4763
   1423.54004     742.3592     653.9745   1423.54004     742.3592     653.9745
   1423.52478     741.5562     654.0366   1423.52478     741.5562     654.0366
   1423.50952     741.2960     654.7823   1423.50952     741.2960     654.7823
   1423.49426     740.7177     653.9144   1423.49426     740.7177     653.9144
   1423.47900     740.8051     654.5350   1423.47900     740.8051     654.5350
   1423.46375     739.7787     654.5332   1423.46375     739.7787     654.5332
   1423.44849     738.8748     654.0549   1423.44849     738.8748     654.0549
   1423.43323     740.1144     655.8408   1423.43323     740.1144     655.8408
   1423.41797     738.4381     655.0677   1423.41797     738.4381     655.0677
   1423.40271     739.2470     654.9412   1423.40271     739.2470     654.9412
   1423.38745     739.2155     654.6376   1423.38745     739.2155     654.6376
   1423.37219     738.7669     654.5543   1423.37219     738.7669     654.5543
   1423.35693     737.8124     654.3342   1423.35693     737.8124     654.3342
   1423.34167     737.5478     654.0363   1423.34167     737.5478     654.0363
   1423.32642     736.8496     654.9324   1423.32642     736.8496     654.9324
   1423.31116     736.8577     654.5450   1423.31116     736.8577     654.5450
   1423.29590     737.1183     655.2985   1423.29590     737.1183     655.2985
   1423.28064     736.7111     654.3848   1423.28064     736.7111     654.3848
   1423.26538     735.6744     655.6863   1423.26538     735.6744     655.6863
   1423.25012     737.1116     654.4195   1423.25012     737.1116     654.4195
   1423.23486     737.1187     654.2144   1423.23486     737.1187     654.2144
   1423.21960     735.1052     655.0201   1423.21960     735.1052     655.0201
   1423.20435     736.4698     653.7756   1423.20435     736.4698     653.7756
   1423.18909     736.1116     654.2487   1423.18909     736.1116     654.2487
   1423.17383     735.1578     654.5292   1423.17383     735.1578     654.5292
   1423.15857     735.4103     654.0455   1423.15857     735.4103     654.0455
   1423.14331     734.5276     654.0723   1423.14331     734.5276     654.0723
   1423.12805     734.8217     653.1143   1423.12805     734.8217     653.1143
   1423.11279     733.5992     653.3031   1423.11279     733.5992     653.3031
   1423.09753     732.4155     653.4255   1423.09753     732.4155     653.4255
   1423.08228     733.5639     652.0804   1423.08228     733.5639     652.0804
   1423.06702     732.0497     653.6536   1423.06702     732.0497     653.6536
   1423.05176     733.4098     652.6163   1423.05176     733.4098     652.6163
   1423.03650     732.5686     651.9948   1423.03650     732.5686     651.9948
   1423.02124     733.6281     651.4027   1423.02124     733.6281     651.4027
   1423.00598     731.5433     650.6100   1423.00598     731.5433     650.6100
   1422.99072     732.8542     651.5493   1422.99072     732.8542     651.5493
   1422.97546     731.8378     650.4297   1422.97546     731.8378     650.4297
   1422.96021     730.9499     649.8511   1422.96021     730.9499     649.8511
   1422.94495     731.9504     649.4958   1422.94495     731.9504     649.4958
   1422.92969     731.2065     648.6733   1422.92969     731.2065     648.6733
   1422.91443     730.9816     647.6755   1422.91443     730.9816     647.6755
   1422.89917     730.0948     646.2689   1422.89917     730.0948     646.2689
   1422.88391     731.1008     647.6365   1422.88391     731.1008     647.6365
   1422.86865     730.2627     646.9282   1422.86865     730.2627     646.9282
   1422.85339     729.8959     646.1694   1422.85339     729.8959     646.1694
   1422.83813     728.6387     645.6169   1422.83813     728.6387     645.6169
   1422.82288     730.0057     645.9344   1422.82288     730.0057     645.9344
   1422.80762     729.7660     644.0915   1422.80762     729.7660     644.0915
   1422.79236     729.1672     644.7214   1422.79236     729.1672     644.7214
   1422.77710     728.5680     643.4016   1422.77710     728.5680     643.4016
   1422.76184     728.9644     642.5811   1422.76184     728.9644     642.5811
   1422.74658     729.0079     642.6136   1422.74658     729.0079     642.6136
   1422.73132     729.0089     641.5366   1422.73132     729.0089     641.5366
   1422.71606     728.8558     640.9088   1422.71606     728.8558     640.9088
   1422.70081     728.6154     640.6345   1422.70081     728.6154     640.6345
   1422.68555     727.6783     639.3607   1422.68555     727.6783     639.3607
   1422.67029     727.3778     639.4373   1422.67029     727.3778     639.4373
   1422.65503     727.0416     638.1215   1422.65503     727.0416     638.1215
   1422.63977     726.7506     637.2909   1422.63977     726.7506     637.2909
   1422.62451     726.3786     635.6467   1422.62451     726.3786     635.6467
   1422.60925     726.3663     636.0604   1422.60925     726.3663     636.0604
   1422.59399     726.2449     634.3328   1422.59399     726.2449     634.3328
   1422.57874     726.9106     634.5999   1422.57874     726.9106     634.5999
   1422.56348     726.6224     633.7042   1422.56348     726.6224     633.7042
   1422.54822     725.9734     632.4424   1422.54822     725.9734     632.4424
   1422.53296     725.2535     631.9165   1422.53296     725.2535     631.9165
   1422.51770     725.2529     631.3734   1422.51770     725.2529     631.3734
   1422.50244     725.5546     630.4404   1422.50244     725.5546     630.4404
   1422.48718     724.8422     629.5903   1422.48718     724.8422     629.5903
   1422.47192     723.9179     628.2418   1422.47192     723.9179     628.2418
   1422.45667     724.6780     627.8023   1422.45667     724.6780     627.8023
   1422.44141     724.7394     625.0000   1422.44141     724.7394     625.0000
   1422.42615     724.7297     625.2128   1422.42615     724.7297     625.2128
   1422.41089     724.6754     624.0964   1422.41089     724.6754     624.0964
   1422.39563     723.3936     623.2991   1422.39563     723.3936     623.2991
   1422.38037     724.8539     621.5742   1422.38037     724.8539     621.5742
   1422.36511     723.0731     622.4861   1422.36511     723.0731     622.4861
   1422.34985     722.9293     620.4097   1422.34985     722.9293     620.4097
   1422.33459     724.3394     618.5630   1422.33459     724.3394     618.5630
   1422.31934     723.2679     618.1692   1422.31934     723.2679     618.1692
   1422.30408     723.2450     616.5833   1422.30408     723.2450     616.5833
   1422.28882     723.3302     615.4880   1422.28882     723.3302     615.4880
   1422.27356     721.7631     615.2778   1422.27356     721.7631     615.2778
   1422.25830     722.3087     613.1567   1422.25830     722.3087     613.1567
   1422.24304     721.7694     612.4938   1422.24304     721.7694     612.4938
   1422.22778     722.6302     611.7059   1422.22778     722.6302     611.7059
   1422.21252     723.0708     610.1462   1422.21252     723.0708     610.1462
   1422.19727     721.8484     609.9547   1422.19727     721.8484     609.9547
   1422.18201     721.3387     607.8409   1422.18201     721.3387     607.8409
   1422.16675     721.1909     606.9084   1422.16675     721.1909     606.9084
   1422.15149     721.4991     604.5813   1422.15149     721.4991     604.5813
   1422.13623     721.2056     604.7295   1422.13623     721.2056     604.7295
   1422.12097     719.8353     603.5960   1422.12097     719.8353     603.5960
   1422.10571     719.8910     602.1097   1422.10571     719.8910     602.1097
   1422.09045     720.2637     600.6443   1422.09045     720.2637     600.6443
   1422.07520     719.5689     599.9100   1422.07520     719.5689     599.9100
   1422.05994     720.3551     597.7158   1422.05994     720.3551     597.7158
   1422.04468     721.0345     596.8461   1422.04468     721.0345     596.8461
   1422.02942     719.1754     596.4749   1422.02942     719.1754     596.4749
   1422.01416     719.2534     594.9761   1422.01416     719.2534     594.9761
   1421.99890     719.5211     592.7418   1421.99890     719.5211     592.7418
   1421.98364     719.1201     591.0944   1421.98364     719.1201     591.0944
   1421.96838     718.3223     590.7824   1421.96838     718.3223     590.7824
   1421.95312     719.2640     588.6414   1421.95312     719.2640     588.6414
   1421.93787     719.4327     588.6223   1421.93787     719.4327     588.6223
   1421.92261     718.5891     587.1082   1421.92261     718.5891     587.1082
   1421.90735     717.6898     585.1210   1421.90735     717.6898     585.1210
   1421.89209     718.1205     583.9148   1421.89209     718.1205     583.9148
   1421.87683     717.2290     583.3405   1421.87683     717.2290     583.3405
   1421.86157     718.0856     581.6760   1421.86157     718.0856     581.6760
   1421.84631     716.7975     579.4568   1421.84631     716.7975     579.4568
   1421.83105     716.7750     579.2415   1421.83105     716.7750     579.2415
   1421.81580     717.2188     576.9771   1421.81580     717.2188     576.9771
   1421.80054     717.4804     576.0718   1421.80054     717.4804     576.0718
   1421.78528     718.0854     573.8301   1421.78528     718.0854     573.8301
   1421.77002     716.6225     572.8417   1421.77002     716.6225     572.8417
   1421.75476     716.3402     571.9279   1421.75476     716.3402     571.9279
   1421.73950     715.7868     570.8842   1421.73950     715.7868     570.8842
   1421.72424     714.4866     569.4363   1421.72424     714.4866     569.4363
   1421.70898     715.9473     567.8872   1421.70898     715.9473     567.8872
   1421.69373     715.8077     565.4352   1421.69373     715.8077     565.4352
   1421.67847     716.7562     565.1078   1421.67847     716.7562     565.1078
   1421.66321     715.1094     562.6300   1421.66321     715.1094     562.6300
   1421.64795     715.6249     561.0622   1421.64795     715.6249     561.0622
   1421.63269     715.3060     560.2783   1421.63269     715.3060     560.2783
   1421.61743     714.6616     559.1465   1421.61743     714.6616     559.1465
   1421.60217     713.5349     556.6159   1421.60217     713.5349     556.6159
   1421.58691     714.1118     555.5311   1421.58691     714.1118     555.5311
   1421.57166     714.7159     554.9095   1421.57166     714.7159     554.9095
   1421.55640     714.4185     552.4715   1421.55640     714.4185     552.4715
   1421.54114     714.1381     551.3868   1421.54114     714.1381     551.3868
   1421.52588     713.0807     550.0959   1421.52588     713.0807     550.0959
   1421.51062     713.1174     549.0059   1421.51062     713.1174     549.0059
   1421.49536     714.1713     547.4511   1421.49536     714.1713     547.4511
   1421.48010     713.6997     546.5287   1421.48010     713.6997     546.5287
   1421.46484     713.1371     543.8715   1421.46484     713.1371     543.8715
   1421.44958     712.7396     543.0953   1421.44958     712.7396     543.0953
   1421.43433     712.5461     541.7688   1421.43433     712.5461     541.7688
   1421.41907     712.1614     540.5645   1421.41907     712.1614     540.5645
   1421.40381     711.5349     539.3364   1421.40381     711.5349     539.3364
   1421.38855     711.7662     537.2039   1421.38855     711.7662     537.2039
   1421.37329     712.4817     536.0796   1421.37329     712.4817     536.0796
   1421.35803     712.6545     534.8802   1421.35803     712.6545     534.8802
   1421.34277     711.5544     533.5963   1421.34277     711.5544     533.5963
   1421.32751     712.4442     532.4200   1421.32751     712.4442     532.4200
   1421.31226     710.8745     531.2055   1421.31226     710.8745     531.2055
   1421.29700     711.5593     529.2272   1421.29700     711.5593     529.2272
   1421.28174     710.8118     528.3501   1421.28174     710.8118     528.3501
   1421.26648     712.3135     526.6393   1421.26648     712.3135     526.6393
   1421.25122     712.6282     525.7343   1421.25122     712.6282     525.7343
   1421.23596     712.6870     524.9440   1421.23596     712.6870     524.9440
   1421.22070     713.5571     523.5942   1421.22070     713.5571     523.5942
   1421.20544     713.4098     523.6215   1421.20544     713.4098     523.6215
   1421.19019     715.0168     522.9150   1421.19019     715.0168     522.9150
   1421.17493     717.7076     522.9620   1421.17493     717.7076     522.9620
   1421.15967     721.4888     524.8837   1421.15967     721.4888     524.8837
   1421.14441     727.0323     527.6591   1421.14441     727.0323     527.6591
   1421.12915     736.0692     532.1786   1421.12915     736.0692     532.1786
   1421.11389     749.6055     539.7223   1421.11389     749.6055     539.7223
   1421.09863     767.0353     550.6753   1421.09863     767.0353     550.6753
   1421.08337     788.1547     565.4944   1421.08337     788.1547     565.4944
   1421.06812     808.1930     579.1382   1421.06812     808.1930     579.1382
   1421.05286     830.5904     592.8640   1421.05286     830.5904     592.8640
   1421.03760     843.6907     601.2789   1421.03760     843.6907     601.2789
   1421.02234     850.2029     603.4075   1421.02234     850.2029     603.4075
   1421.00708     851.5018     603.4795   1421.00708     851.5018     603.4795
   1420.99182     846.7686     598.8336   1420.99182     846.7686     598.8336
   1420.97656     844.3908     596.3145   1420.97656     844.3908     596.3145
   1420.96130     853.3423     600.2880   1420.96130     853.3423     600.2880
   1420.94604     871.0226     611.2919   1420.94604     871.0226     611.2919
   1420.93079     929.3906     649.1531   1420.93079     929.3906     649.1531
   1420.91553    1021.1332     709.7316   1420.91553    1021.1332     709.7316
   1420.90027    1173.7844     810.9349   1420.90027    1173.7844     810.9349
   1420.88501    1371.7703     943.2823   1420.88501    1371.7703     943.2823
   1420.86975    1615.8726    1101.4585   1420.86975    1615.8726    1101.4585
   1420.85449    1859.8763    1266.0145   1420.85449    1859.8763    1266.0145
   1420.83923    1886.0331    1277.7225   1420.83923    1886.0331    1277.7225
   1420.82397    1802.8134    1218.9331   1420.82397    1802.8134    1218.9331
   1420.80872    1741.2493    1178.0668   1420.80872    1741.2493    1178.0668
   1420.79346    1927.7292    1299.6815   1420.79346    1927.7292    1299.6815
   1420.77820    2144.7505    1439.4231   1420.77820    2144.7505    1439.4231
   1420.76294    2318.1216    1547.5424   1420.76294    2318.1216    1547.5424
   1420.74768    2416.9692    1611.9388   1420.74768    2416.9692    1611.9388
   1420.73242    2334.5447    1552.3065   1420.73242    2334.5447    1552.3065
   1420.71716    2094.6104    1391.9175   1420.71716    2094.6104    1391.9175
   1420.70190    1814.2140    1203.7698   1420.70190    1814.2140    1203.7698
   1420.68665    1762.7345    1165.9824   1420.68665    1762.7345    1165.9824
   1420.67139    1432.5029     952.4880   1420.67139    1432.5029     952.4880
   1420.65613    1170.7411     777.1949   1420.65613    1170.7411     777.1949
   1420.64087    1148.2870     762.2667   1420.64087    1148.2870     762.2667
   1420.62561    1288.0226     854.3081   1420.62561    1288.0226     854.3081
   1420.61035    1567.3868    1031.5223   1420.61035    1567.3868    1031.5223
   1420.59509    1754.6722    1150.7717   1420.59509    1754.6722    1150.7717
   1420.57983    1851.3396    1212.4723   1420.57983    1851.3396    1212.4723
   1420.56458    2072.5559    1349.4480   1420.56458    2072.5559    1349.4480
   1420.54932    2125.2522    1378.9261   1420.54932    2125.2522    1378.9261
   1420.53406    1933.2944    1255.0891   1420.53406    1933.2944    1255.0891
   1420.51880    1970.0267    1269.8644   1420.51880    1970.0267    1269.8644
   1420.50354    1786.0887    1152.2140   1420.50354    1786.0887    1152.2140
   1420.48828    1257.0248     813.7696   1420.48828    1257.0248     813.7696
   1420.47302     921.5729     601.2787   1420.47302     921.5729     601.2787
   1420.45776     809.6998     529.1964   1420.45776     809.6998     529.1964
   1420.44250     763.4565     498.2762   1420.44250     763.4565     498.2762
   1420.42725     738.1446     482.2318   1420.42725     738.1446     482.2318
   1420.41199     724.0662     472.7047   1420.41199     724.0662     472.7047
   1420.39673     717.2674     467.7717   1420.39673     717.2674     467.7717
   1420.38147     713.5848     463.6572   1420.38147     713.5848     463.6572
   1420.36621     712.2109     461.8310   1420.36621     712.2109     461.8310
   1420.35095     710.5162     460.2661   1420.35095     710.5162     460.2661
   1420.33569     710.9221     459.2380   1420.33569     710.9221     459.2380
   1420.32043     708.5602     458.0214   1420.32043     708.5602     458.0214
   1420.30518     708.6466     456.3286   1420.30518     708.6466     456.3286
   1420.28992     708.1685     455.5627   1420.28992     708.1685     455.5627
   1420.27466     708.5875     454.4457   1420.27466     708.5875     454.4457
   1420.25940     706.7495     453.0526   1420.25940     706.7495     453.0526
   1420.24414     707.5516     452.1347   1420.24414     707.5516     452.1347
   1420.22888     706.0790     450.9887   1420.22888     706.0790     450.9887
   1420.21362     706.6740     449.5636   1420.21362     706.6740     449.5636
   1420.19836     704.9343     449.4165   1420.19836     704.9343     449.4165
   1420.18311     702.8522     447.6199   1420.18311     702.8522     447.6199
   1420.16785     703.0906     446.3058   1420.16785     703.0906     446.3058
   1420.15259     701.6861     444.5311   1420.15259     701.6861     444.5311
   1420.13733     700.9045     443.0242   1420.13733     700.9045     443.0242
   1420.12207     700.8700     442.1278   1420.12207     700.8700     442.1278
   1420.10681     699.8307     440.7864   1420.10681     699.8307     440.7864
   1420.09155     699.3126     440.6389   1420.09155     699.3126     440.6389
   1420.07629     700.7880     439.8147   1420.07629     700.7880     439.8147
   1420.06104     699.5925     438.3242   1420.06104     699.5925     438.3242
   1420.04578     699.8892     438.1223   1420.04578     699.8892     438.1223
   1420.03052     699.4844     437.5019   1420.03052     699.4844     437.5019
   1420.01526     699.7499     436.7750   1420.01526     699.7499     436.7750
   1420.00000     700.0010     437.6658   1420.00000     700.0010     437.6658
   1419.98474     700.2526     438.5566   1419.98474     700.2526     438.5566
   1419.96948     701.8219     435.2006   1419.96948     701.8219     435.2006
   1419.95422     699.2797     433.7979   1419.95422     699.2797     433.7979
   1419.93896     698.3869     433.0418   1419.93896     698.3869     433.0418
   1419.92371     698.3602     432.5347   1419.92371     698.3602     432.5347
   1419.90845     699.4069     431.6248   1419.90845     699.4069     431.6248
   1419.89319     699.5293     431.7092   1419.89319     699.5293     431.7092
   1419.87793     700.3809     431.4563   1419.87793     700.3809     431.4563
   1419.86267     699.7802     430.5804   1419.86267     699.7802     430.5804
   1419.84741     700.5324     430.4686   1419.84741     700.5324     430.4686
   1419.83215     700.2068     430.3798   1419.83215     700.2068     430.3798
   1419.81689     699.9168     429.6650   1419.81689     699.9168     429.6650
   1419.80164     701.5857     428.6700   1419.80164     701.5857     428.6700
   1419.78638     701.7081     428.8737   1419.78638     701.7081     428.8737
   1419.77112     700.9225     428.7256   1419.77112     700.9225     428.7256
   1419.75586     701.2044     427.7365   1419.75586     701.2044     427.7365
   1419.74060     702.1688     427.7120   1419.74060     702.1688     427.7120
   1419.72534     701.9363     427.6303   1419.72534     701.9363     427.6303
   1419.71008     702.3568     427.5761   1419.71008     702.3568     427.5761
   1419.69482     703.3946     426.4242   1419.69482     703.3946     426.4242
   1419.67957     703.4922     426.3413   1419.67957     703.4922     426.3413
   1419.66431     704.1547     426.4578   1419.66431     704.1547     426.4578
   1419.64905     703.4427     426.6643   1419.64905     703.4427     426.6643
   1419.63379     703.6061     426.7876   1419.63379     703.6061     426.7876
   1419.61853     703.5085     425.4396   1419.61853     703.5085     425.4396
   1419.60327     705.1476     425.8936   1419.60327     705.1476     425.8936
   1419.58801     705.1170     425.5166   1419.58801     705.1170     425.5166
   1419.57275     705.6223     425.1396   1419.57275     705.6223     425.1396
   1419.55750     706.2662     424.7474   1419.55750     706.2662     424.7474
   1419.54224     706.6491     424.7500   1419.54224     706.6491     424.7500
   1419.52698     705.7528     424.8941   1419.52698     705.7528     424.8941
   1419.51172     706.7916     424.0076   1419.51172     706.7916     424.0076
   1419.49646     707.3479     424.0826   1419.49646     707.3479     424.0826
   1419.48120     709.9268     424.2024   1419.48120     709.9268     424.2024
   1419.46594     708.0805     424.2426   1419.46594     708.0805     424.2426
   1419.45068     707.3126     424.4440   1419.45068     707.3126     424.4440
   1419.43542     708.6030     423.6630   1419.43542     708.6030     423.6630
   1419.42017     708.1392     424.2513   1419.42017     708.1392     424.2513
   1419.40491     710.0736     424.0840   1419.40491     710.0736     424.0840
   1419.38965     710.0060     423.7240   1419.38965     710.0060     423.7240
   1419.37439     710.4731     423.2752   1419.37439     710.4731     423.2752
   1419.35913     711.9483     424.0623   1419.35913     711.9483     424.0623
   1419.34387     712.1631     424.0454   1419.34387     712.1631     424.0454
   1419.32861     712.2122     424.4936   1419.32861     712.2122     424.4936
   1419.31335     712.9227     423.6924   1419.31335     712.9227     423.6924
   1419.29810     713.0007     424.1806   1419.29810     713.0007     424.1806
   1419.28284     713.4144     423.4242   1419.28284     713.4144     423.4242
   1419.26758     713.6685     423.8887   1419.26758     713.6685     423.8887
   1419.25232     714.2254     424.1225   1419.25232     714.2254     424.1225
   1419.23706     714.6113     424.3829   1419.23706     714.6113     424.3829
   1419.22180     715.0542     423.4679   1419.22180     715.0542     423.4679
   1419.20654     715.7963     424.4012   1419.20654     715.7963     424.4012
   1419.19128     716.5625     424.6883   1419.19128     716.5625     424.6883
   1419.17603     716.3671     424.7043   1419.17603     716.3671     424.7043
   1419.16077     717.5090     425.2991   1419.16077     717.5090     425.2991
   1419.14551     717.7415     425.2655   1419.14551     717.7415     425.2655
   1419.13025     718.8464     425.1439   1419.13025     718.8464     425.1439
   1419.11499     719.0234     425.3693   1419.11499     719.0234     425.3693
   1419.09973     719.6524     425.7855   1419.09973     719.6524     425.7855
   1419.08447     720.0313     426.1077   1419.08447     720.0313     426.1077
   1419.06921     720.7139     426.1427   1419.06921     720.7139     426.1427
   1419.05396     721.2485     426.0008   1419.05396     721.2485     426.0008
   1419.03870     721.5092     426.8054   1419.03870     721.5092     426.8054
   1419.02344     722.8188     426.3494   1419.02344     722.8188     426.3494
   1419.00818     721.9384     427.0305   1419.00818     721.9384     427.0305
   1418.99292     724.2994     427.4817   1418.99292     724.2994     427.4817
   1418.97766     724.4829     427.6666   1418.97766     724.4829     427.6666
   1418.96240     725.4449     428.1140   1418.96240     725.4449     428.1140
   1418.94714     725.9003     428.6206   1418.94714     725.9003     428.6206
   1418.93188     725.6618     428.4994   1418.93188     725.6618     428.4994
   1418.91663     727.9681     429.2781   1418.91663     727.9681     429.2781
   1418.90137     726.5812     429.3049   1418.90137     726.5812     429.3049
   1418.88611     728.0020     429.7566   1418.88611     728.0020     429.7566
   1418.87085     728.6592     430.6335   1418.87085     728.6592     430.6335
   1418.85559     727.9540     430.6344   1418.85559     727.9540     430.6344
   1418.84033     729.1026     431.4936   1418.84033     729.1026     431.4936
   1418.82507     730.3670     431.1426   1418.82507     730.3670     431.1426
   1418.80981     730.1783     432.0890   1418.80981     730.1783     432.0890
   1418.79456     732.2388     432.4601   1418.79456     732.2388     432.4601
   1418.77930     732.0621     432.8446   1418.77930     732.0621     432.8446
   1418.76404     733.5137     433.3583   1418.76404     733.5137     433.3583
   1418.74878     734.3785     433.9582   1418.74878     734.3785     433.9582
   1418.73352     734.4778     434.6983   1418.73352     734.4778     434.6983
   1418.71826     734.0732     434.3825   1418.71826     734.0732     434.3825
   1418.70300     737.2451     435.3611   1418.70300     737.2451     435.3611
   1418.68774     736.8063     435.6620   1418.68774     736.8063     435.6620
   1418.67249     737.6755     436.0475   1418.67249     737.6755     436.0475
   1418.65723     739.2780     436.8946   1418.65723     739.2780     436.8946
   1418.64197     739.0325     437.6719   1418.64197     739.0325     437.6719
   1418.62671     740.1804     437.8739   1418.62671     740.1804     437.8739
   1418.61145     739.6971     438.3711   1418.61145     739.6971     438.3711
   1418.59619     741.1393     438.6383   1418.59619     741.1393     438.6383
   1418.58093     742.0253     440.4047   1418.58093     742.0253     440.4047
   1418.56567     743.2229     440.5057   1418.56567     743.2229     440.5057
   1418.55042     744.1392     440.8009   1418.55042     744.1392     440.8009
   1418.53516     744.5138     441.5484   1418.53516     744.5138     441.5484
   1418.51990     745.5064     442.7610   1418.51990     745.5064     442.7610
   1418.50464     746.9119     442.1187   1418.50464     746.9119     442.1187
   1418.48938     747.5952     444.0486   1418.48938     747.5952     444.0486
   1418.47412     748.4174     444.6000   1418.47412     748.4174     444.6000
   1418.45886     748.2990     444.9288   1418.45886     748.2990     444.9288
   1418.44360     750.3111     445.7472   1418.44360     750.3111     445.7472
   1418.42834     749.9769     446.0211   1418.42834     749.9769     446.0211
   1418.41309     751.1374     447.4164   1418.41309     751.1374     447.4164
   1418.39783     751.2349     447.3219   1418.39783     751.2349     447.3219
   1418.38257     752.5228     448.9188   1418.38257     752.5228     448.9188
   1418.36731     754.3528     449.4200   1418.36731     754.3528     449.4200
   1418.35205     755.3276     449.9261   1418.35205     755.3276     449.9261
   1418.33679     755.4702     450.3498   1418.33679     755.4702     450.3498
   1418.32153     756.7316     451.3909   1418.32153     756.7316     451.3909
   1418.30627     757.9210     452.0156   1418.30627     757.9210     452.0156
   1418.29102     757.8406     452.7198   1418.29102     757.8406     452.7198
   1418.27576     759.1375     453.9323   1418.27576     759.1375     453.9323
   1418.26050     761.0640     454.1420   1418.26050     761.0640     454.1420
   1418.24524     762.5261     455.4211   1418.24524     762.5261     455.4211
   1418.22998     761.9620     455.4722   1418.22998     761.9620     455.4722
   1418.21472     761.8285     456.4085   1418.21472     761.8285     456.4085
   1418.19946     764.3775     457.2611   1418.19946     764.3775     457.2611
   1418.18420     764.8150     458.4963   1418.18420     764.8150     458.4963
   1418.16895     765.0818     459.0214   1418.16895     765.0818     459.0214
   1418.15369     765.5171     460.6477   1418.15369     765.5171     460.6477
   1418.13843     767.2905     461.8749   1418.13843     767.2905     461.8749
   1418.12317     768.5623     462.0104   1418.12317     768.5623     462.0104
   1418.10791     768.9160     462.7645   1418.10791     768.9160     462.7645
   1418.09265     769.7980     463.7087   1418.09265     769.7980     463.7087
   1418.07739     770.4645     463.3802   1418.07739     770.4645     463.3802
   1418.06213     771.9487     464.1905   1418.06213     771.9487     464.1905
   1418.04688     773.1951     466.1336   1418.04688     773.1951     466.1336
   1418.03162     773.4176     467.2807   1418.03162     773.4176     467.2807
   1418.01636     775.3317     468.1484   1418.01636     775.3317     468.1484
   1418.00110     776.3129     468.1275   1418.00110     776.3129     468.1275
   1417.98584     776.5127     469.4990   1417.98584     776.5127     469.4990
   1417.97058     777.2736     470.3571   1417.97058     777.2736     470.3571
   1417.95532     779.2306     471.6682   1417.95532     779.2306     471.6682
   1417.94006     780.1179     472.1208   1417.94006     780.1179     472.1208
   1417.92480     780.2033     473.1355   1417.92480     780.2033     473.1355
   1417.90955     781.9289     473.7263   1417.90955     781.9289     473.7263
   1417.89429     782.5152     474.2422   1417.89429     782.5152     474.2422
   1417.87903     783.9683     475.3990   1417.87903     783.9683     475.3990
   1417.86377     784.1087     476.5440   1417.86377     784.1087     476.5440
   1417.84851     786.3681     477.3362   1417.84851     786.3681     477.3362
   1417.83325     786.9874     478.7934   1417.83325     786.9874     478.7934
   1417.81799     787.6945     478.8018   1417.81799     787.6945     478.8018
   1417.80273     788.6715     480.6143   1417.80273     788.6715     480.6143
   1417.78748     789.3596     480.5606   1417.78748     789.3596     480.5606
   1417.77222     791.2258     481.9343   1417.77222     791.2258     481.9343
   1417.75696     792.8366     482.8329   1417.75696     792.8366     482.8329
   1417.74170     792.4915     483.9594   1417.74170     792.4915     483.9594
   1417.72644     793.5829     484.7973   1417.72644     793.5829     484.7973
   1417.71118     795.3997     485.8932   1417.71118     795.3997     485.8932
   1417.69592     794.2029     487.3643   1417.69592     794.2029     487.3643
   1417.68066     796.6151     486.7255   1417.68066     796.6151     486.7255
   1417.66541     796.7784     488.1890   1417.66541     796.7784     488.1890
   1417.65015     797.7527     488.9527   1417.65015     797.7527     488.9527
   1417.63489     798.3762     490.7494   1417.63489     798.3762     490.7494
   1417.61963     799.7696     490.9665   1417.61963     799.7696     490.9665
   1417.60437     799.5933     491.5886   1417.60437     799.5933     491.5886
   1417.58911     801.3622     492.9668   1417.58911     801.3622     492.9668
   1417.57385     802.0076     493.5724   1417.57385     802.0076     493.5724
   1417.55859     802.2698     494.8968   1417.55859     802.2698     494.8968
   1417.54333     803.3671     495.8848   1417.54333     803.3671     495.8848
   1417.52808     804.9340     495.7760   1417.52808     804.9340     495.7760
   1417.51282     806.5814     497.5749   1417.51282     806.5814     497.5749
   1417.49756     806.8613     498.4890   1417.49756     806.8613     498.4890
   1417.48230     808.8881     498.5195   1417.48230     808.8881     498.5195
   1417.46704     809.2164     499.1909   1417.46704     809.2164     499.1909
   1417.45178     808.8264     500.1711   1417.45178     808.8264     500.1711
   1417.43652     810.8099     501.1613   1417.43652     810.8099     501.1613
   1417.42126     810.6034     501.9282   1417.42126     810.6034     501.9282
   1417.40601     812.5555     503.2745   1417.40601     812.5555     503.2745
   1417.39075     811.9445     503.4804   1417.39075     811.9445     503.4804
   1417.37549     813.0257     505.6367   1417.37549     813.0257     505.6367
   1417.36023     814.8250     506.2076   1417.36023     814.8250     506.2076
   1417.34497     815.1655     505.7421   1417.34497     815.1655     505.7421
   1417.32971     816.1104     506.8285   1417.32971     816.1104     506.8285
   1417.31445     815.3651     507.7878   1417.31445     815.3651     507.7878
   1417.29919     816.0633     508.8814   1417.29919     816.0633     508.8814
   1417.28394     818.5192     509.0887   1417.28394     818.5192     509.0887
   1417.26868     820.2838     510.7957   1417.26868     820.2838     510.7957
   1417.25342     820.0237     510.7607   1417.25342     820.0237     510.7607
   1417.23816     820.2665     511.6378   1417.23816     820.2665     511.6378
   1417.22290     822.1664     512.2678   1417.22290     822.1664     512.2678
   1417.20764     821.8901     513.7457   1417.20764     821.8901     513.7457
   1417.19238     821.1238     513.6662   1417.19238     821.1238     513.6662
   1417.17712     823.1314     514.0018   1417.17712     823.1314     514.0018
   1417.16187     822.1241     514.8905   1417.16187     822.1241     514.8905
   1417.14661     823.9639     516.3206   1417.14661     823.9639     516.3206
   1417.13135     825.4825     515.9299   1417.13135     825.4825     515.9299
   1417.11609     826.0847     518.0774   1417.11609     826.0847     518.0774
   1417.10083     825.6851     518.0065   1417.10083     825.6851     518.0065
   1417.08557     826.0859     518.5614   1417.08557     826.0859     518.5614
   1417.07031     828.1021     518.8890   1417.07031     828.1021     518.8890
   1417.05505     829.4260     519.7186   1417.05505     829.4260     519.7186
   1417.03979     829.1434     520.1539   1417.03979     829.1434     520.1539
   1417.02454     828.1142     520.8817   1417.02454     828.1142     520.8817
   1417.00928     829.3142     522.1306   1417.00928     829.3142     522.1306
   1416.99402     830.0633     521.9320   1416.99402     830.0633     521.9320
   1416.97876     830.2493     522.7850   1416.97876     830.2493     522.7850
   1416.96350     832.3066     522.3235   1416.96350     832.3066     522.3235
   1416.94824     833.0908     523.9627   1416.94824     833.0908     523.9627
   1416.93298     833.1352     523.3588   1416.93298     833.1352     523.3588
   1416.91772     832.8896     524.1995   1416.91772     832.8896     524.1995
   1416.90247     834.5712     524.4854   1416.90247     834.5712     524.4854
   1416.88721     834.1958     524.7362   1416.88721     834.1958     524.7362
   1416.87195     835.1588     525.5395   1416.87195     835.1588     525.5395
   1416.85669     834.6689     525.7472   1416.85669     834.6689     525.7472
   1416.84143     834.6320     526.5710   1416.84143     834.6320     526.5710
   1416.82617     835.8041     527.0061   1416.82617     835.8041     527.0061
   1416.81091     834.9648     527.4860   1416.81091     834.9648     527.4860
   1416.79565     834.8574     527.1542   1416.79565     834.8574     527.1542
   1416.78040     835.6672     527.6708   1416.78040     835.6672     527.6708
   1416.76514     836.6243     528.6672   1416.76514     836.6243     528.6672
   1416.74988     837.0727     527.4516   1416.74988     837.0727     527.4516
   1416.73462     836.4153     528.2991   1416.73462     836.4153     528.2991
   1416.71936     837.4170     528.9366   1416.71936     837.4170     528.9366
   1416.70410     838.2391     527.8994   1416.70410     838.2391     527.8994
   1416.68884     837.4164     528.5484   1416.68884     837.4164     528.5484
   1416.67358     838.2909     529.2926   1416.67358     838.2909     529.2926
   1416.65833     837.1119     528.8233   1416.65833     837.1119     528.8233
   1416.64307     838.9183     529.1725   1416.64307     838.9183     529.1725
   1416.62781     838.4891     529.8704   1416.62781     838.4891     529.8704
   1416.61255     838.4128     529.0027   1416.61255     838.4128     529.0027
   1416.59729     838.6719     530.2187   1416.59729     838.6719     530.2187
   1416.58203     838.0823     529.1456   1416.58203     838.0823     529.1456
   1416.56677     838.9973     529.3062   1416.56677     838.9973     529.3062
   1416.55151     839.8503     530.1235   1416.55151     839.8503     530.1235
   1416.53625     838.7097     529.4506   1416.53625     838.7097     529.4506
   1416.52100     837.8660     529.3030   1416.52100     837.8660     529.3030
   1416.50574     838.8324     529.1410   1416.50574     838.8324     529.1410
   1416.49048     838.8527     529.8648   1416.49048     838.8527     529.8648
   1416.47522     837.7003     529.5854   1416.47522     837.7003     529.5854
   1416.45996     837.1806     528.5579   1416.45996     837.1806     528.5579
   1416.44470     838.1015     529.2722   1416.44470     838.1015     529.2722
   1416.42944     837.3552     529.2149   1416.42944     837.3552     529.2149
   1416.41418     839.0652     529.0566   1416.41418     839.0652     529.0566
   1416.39893     837.3171     527.8558   1416.39893     837.3171     527.8558
   1416.38367     836.8875     529.1556   1416.38367     836.8875     529.1556
   1416.36841     837.8677     528.2308   1416.36841     837.8677     528.2308
   1416.35315     838.2224     528.2223   1416.35315     838.2224     528.2223
   1416.33789     836.6976     527.9129   1416.33789     836.6976     527.9129
   1416.32263     837.5188     527.3032   1416.32263     837.5188     527.3032
   1416.30737     836.3811     527.0964   1416.30737     836.3811     527.0964
   1416.29211     838.0011     527.9027   1416.29211     838.0011     527.9027
   1416.27686     835.9214     526.8422   1416.27686     835.9214     526.8422
   1416.26160     835.6232     526.4753   1416.26160     835.6232     526.4753
   1416.24634     836.4199     526.4460   1416.24634     836.4199     526.4460
   1416.23108     834.8448     526.2558   1416.23108     834.8448     526.2558
   1416.21582     835.9603     526.2225   1416.21582     835.9603     526.2225
   1416.20056     834.1160     525.4788   1416.20056     834.1160     525.4788
   1416.18530     832.9623     525.4903   1416.18530     832.9623     525.4903
   1416.17004     832.8007     524.6105   1416.17004     832.8007     524.6105
   1416.15479     831.8972     524.2296   1416.15479     831.8972     524.2296
   1416.13953     833.4368     523.6326   1416.13953     833.4368     523.6326
   1416.12427     832.0946     524.6238   1416.12427     832.0946     524.6238
   1416.10901     830.7914     522.2867   1416.10901     830.7914     522.2867
   1416.09375     831.5538     522.4736   1416.09375     831.5538     522.4736
   1416.07849     831.1585     521.6232   1416.07849     831.1585     521.6232
   1416.06323     830.4390     522.4435   1416.06323     830.4390     522.4435
   1416.04797     829.6792     521.0402   1416.04797     829.6792     521.0402
   1416.03271     829.2880     520.8821   1416.03271     829.2880     520.8821
   1416.01746     830.6404     519.9704   1416.01746     830.6404     519.9704
   1416.00220     828.3018     520.2886   1416.00220     828.3018     520.2886
   1415.98694     827.2316     519.3124   1415.98694     827.2316     519.3124
   1415.97168     826.6180     519.3897   1415.97168     826.6180     519.3897
   1415.95642     826.9255     519.3178   1415.95642     826.9255     519.3178
   1415.94116     826.4696     517.9253   1415.94116     826.4696     517.9253
   1415.92590     826.2595     519.0788   1415.92590     826.2595     519.0788
   1415.91064     824.0952     517.1222   1415.91064     824.0952     517.1222
   1415.89539     824.1970     517.0414   1415.89539     824.1970     517.0414
   1415.88013     823.5153     516.1027   1415.88013     823.5153     516.1027
   1415.86487     822.5126     516.0222   1415.86487     822.5126     516.0222
   1415.84961     822.1003     515.0821   1415.84961     822.1003     515.0821
   1415.83435     821.0616     515.6029   1415.83435     821.0616     515.6029
   1415.81909     821.2530     514.0503   1415.81909     821.2530     514.0503
   1415.80383     820.2754     513.8126   1415.80383     820.2754     513.8126
   1415.78857     819.2883     512.6547   1415.78857     819.2883     512.6547
   1415.77332     818.5428     513.1349   1415.77332     818.5428     513.1349
   1415.75806     816.9445     511.7408   1415.75806     816.9445     511.7408
   1415.74280     815.1339     511.8702   1415.74280     815.1339     511.8702
   1415.72754     814.4882     511.2531   1415.72754     814.4882     511.2531
   1415.71228     815.8376     510.0966   1415.71228     815.8376     510.0966
   1415.69702     814.0169     509.3428   1415.69702     814.0169     509.3428
   1415.68176     811.9930     509.2179   1415.68176     811.9930     509.2179
   1415.66650     810.9724     507.9744   1415.66650     810.9724     507.9744
   1415.65125     812.1385     508.3456   1415.65125     812.1385     508.3456
   1415.63599     810.0507     507.1951   1415.63599     810.0507     507.1951
   1415.62073     809.1755     506.7421   1415.62073     809.1755     506.7421
   1415.60547     809.4027     507.2568   1415.60547     809.4027     507.2568
   1415.59021     807.5598     506.5294   1415.59021     807.5598     506.5294
   1415.57495     806.7150     505.3519   1415.57495     806.7150     505.3519
   1415.55969     805.5272     504.8824   1415.55969     805.5272     504.8824
   1415.54443     805.1874     504.7403   1415.54443     805.1874     504.7403
   1415.52917     803.8353     503.5878   1415.52917     803.8353     503.5878
   1415.51392     802.8567     503.0222   1415.51392     802.8567     503.0222
   1415.49866     802.3539     503.2213   1415.49866     802.3539     503.2213
   1415.48340     800.5074     501.5105   1415.48340     800.5074     501.5105
   1415.46814     799.8220     501.3461   1415.46814     799.8220     501.3461
   1415.45288     796.9808     500.2633   1415.45288     796.9808     500.2633
   1415.43762     797.4976     499.7698   1415.43762     797.4976     499.7698
   1415.42236     796.3483     499.3807   1415.42236     796.3483     499.3807
   1415.40710     794.7794     498.1566   1415.40710     794.7794     498.1566
   1415.39185     794.1666     497.8771   1415.39185     794.1666     497.8771
   1415.37659     793.1653     497.1566   1415.37659     793.1653     497.1566
   1415.36133     789.9593     496.3878   1415.36133     789.9593     496.3878
   1415.34607     789.7791     496.2127   1415.34607     789.7791     496.2127
   1415.33081     788.3906     495.2949   1415.33081     788.3906     495.2949
   1415.31555     786.8382     494.0804   1415.31555     786.8382     494.0804
   1415.30029     786.2803     493.8477   1415.30029     786.2803     493.8477
   1415.28503     783.5912     493.3271   1415.28503     783.5912     493.3271
   1415.26978     783.2593     492.1080   1415.26978     783.2593     492.1080
   1415.25452     781.7810     490.8366   1415.25452     781.7810     490.8366
   1415.23926     780.6285     491.3041   1415.23926     780.6285     491.3041
   1415.22400     779.9335     489.9775   1415.22400     779.9335     489.9775
   1415.20874     778.3687     488.7761   1415.20874     778.3687     488.7761
   1415.19348     776.4387     488.7888   1415.19348     776.4387     488.7888
   1415.17822     777.0773     487.6376   1415.17822     777.0773     487.6376
   1415.16296     773.9293     486.4827   1415.16296     773.9293     486.4827
   1415.14771     771.6735     487.1723   1415.14771     771.6735     487.1723
   1415.13245     770.9012     485.4120   1415.13245     770.9012     485.4120
   1415.11719     770.0435     485.5087   1415.11719     770.0435     485.5087
   1415.10193     767.5579     483.7498   1415.10193     767.5579     483.7498
   1415.08667     765.8058     482.4552   1415.08667     765.8058     482.4552
   1415.07141     765.3809     482.3082   1415.07141     765.3809     482.3082
   1415.05615     763.9688     481.2678   1415.05615     763.9688     481.2678
   1415.04089     762.7872     480.8276   1415.04089     762.7872     480.8276
   1415.02563     760.3795     479.3963   1415.02563     760.3795     479.3963
   1415.01038     759.1605     478.5758   1415.01038     759.1605     478.5758
   1414.99512     756.6362     478.2435   1414.99512     756.6362     478.2435
   1414.97986     754.6379     476.3868   1414.97986     754.6379     476.3868
   1414.96460     753.1161     476.1613   1414.96460     753.1161     476.1613
   1414.94934     751.6955     475.4168   1414.94934     751.6955     475.4168
   1414.93408     750.8355     475.0364   1414.93408     750.8355     475.0364
   1414.91882     747.6250     473.0952   1414.91882     747.6250     473.0952
   1414.90356     747.1554     472.8151   1414.90356     747.1554     472.8151
   1414.88831     743.3184     472.2089   1414.88831     743.3184     472.2089
   1414.87305     741.9814     470.2214   1414.87305     741.9814     470.2214
   1414.85779     740.0714     469.7126   1414.85779     740.0714     469.7126
   1414.84253     738.7783     468.9643   1414.84253     738.7783     468.9643
   1414.82727     737.6520     467.5218   1414.82727     737.6520     467.5218
   1414.81201     735.8607     466.3009   1414.81201     735.8607     466.3009
   1414.79675     731.6592     465.8932   1414.79675     731.6592     465.8932
   1414.78149     730.3138     464.2789   1414.78149     730.3138     464.2789
   1414.76624     728.5952     463.9488   1414.76624     728.5952     463.9488
   1414.75098     727.0051     462.8349   1414.75098     727.0051     462.8349
   1414.73572     724.9337     462.0685   1414.73572     724.9337     462.0685
   1414.72046     722.2524     461.2172   1414.72046     722.2524     461.2172
   1414.70520     720.2908     459.8786   1414.70520     720.2908     459.8786
   1414.68994     717.9453     458.2040   1414.68994     717.9453     458.2040
   1414.67468     715.8140     457.8642   1414.67468     715.8140     457.8642
   1414.65942     714.2224     456.0671   1414.65942     714.2224     456.0671
   1414.64417     711.5474     455.0294   1414.64417     711.5474     455.0294
   1414.62891     709.7866     453.8418   1414.62891     709.7866     453.8418
   1414.61365     708.4499     452.6879   1414.61365     708.4499     452.6879
   1414.59839     705.6705     451.2891   1414.59839     705.6705     451.2891
   1414.58313     703.5063     451.5227   1414.58313     703.5063     451.5227
   1414.56787     701.2617     449.2955   1414.56787     701.2617     449.2955
   1414.55261     699.2082     448.7712   1414.55261     699.2082     448.7712
   1414.53735     695.4690     447.8675   1414.53735     695.4690     447.8675
   1414.52209     693.5356     445.9541   1414.52209     693.5356     445.9541
   1414.50684     691.2579     445.3263   1414.50684     691.2579     445.3263
   1414.49158     688.3844     443.0497   1414.49158     688.3844     443.0497
   1414.47632     686.7597     443.6730   1414.47632     686.7597     443.6730
   1414.46106     684.6841     441.5123   1414.46106     684.6841     441.5123
   1414.44580     682.3754     439.6459   1414.44580     682.3754     439.6459
   1414.43054     678.6121     437.8331   1414.43054     678.6121     437.8331
   1414.41528     677.0030     437.1779   1414.41528     677.0030     437.1779
   1414.40002     673.6316     436.0707   1414.40002     673.6316     436.0707
   1414.38477     672.2346     435.8416   1414.38477     672.2346     435.8416
   1414.36951     668.6898     434.3927   1414.36951     668.6898     434.3927
   1414.35425     666.4132     432.5204   1414.35425     666.4132     432.5204
   1414.33899     664.4516     430.8858   1414.33899     664.4516     430.8858
   1414.32373     660.8398     429.5951   1414.32373     660.8398     429.5951
   1414.30847     658.3470     428.9437   1414.30847     658.3470     428.9437
   1414.29321     656.2216     427.1188   1414.29321     656.2216     427.1188
   1414.27795     654.5656     425.7803   1414.27795     654.5656     425.7803
   1414.26270     650.6120     424.3592   1414.26270     650.6120     424.3592
   1414.24744     648.1866     423.1150   1414.24744     648.1866     423.1150
   1414.23218     644.9564     422.0613   1414.23218     644.9564     422.0613
   1414.21692     642.6804     420.1263   1414.21692     642.6804     420.1263
   1414.20166     640.4408     419.1895   1414.20166     640.4408     419.1895
   1414.18640     637.2431     417.3805   1414.18640     637.2431     417.3805
   1414.17114     634.7867     415.8704   1414.17114     634.7867     415.8704
   1414.15588     633.3946     413.5394   1414.15588     633.3946     413.5394
   1414.14062     628.9253     413.4433   1414.14062     628.9253     413.4433
   1414.12537     626.3699     411.4767   1414.12537     626.3699     411.4767
   1414.11011     624.2819     410.1629   1414.11011     624.2819     410.1629
   1414.09485     619.5647     407.9776   1414.09485     619.5647     407.9776
   1414.07959     617.9113     407.8993   1414.07959     617.9113     407.8993
   1414.06433     613.9324     406.0318   1414.06433     613.9324     406.0318
   1414.04907     611.7761     404.6458   1414.04907     611.7761     404.6458
   1414.03381     608.4158     403.0059   1414.03381     608.4158     403.0059
   1414.01855     606.2842     402.5555   1414.01855     606.2842     402.5555
   1414.00330     627.9282     406.4522   1414.00330     627.9282     406.4522
   1413.98804     602.3211     399.7960   1413.98804     602.3211     399.7960
   1413.97278     597.4944     397.0588   1413.97278     597.4944     397.0588
   1413.95752     593.1508     395.4140   1413.95752     593.1508     395.4140
   1413.94226     590.4926     394.1938   1413.94226     590.4926     394.1938
   1413.92700     589.1216     392.5066   1413.92700     589.1216     392.5066
   1413.91174     585.1005     390.8460   1413.91174     585.1005     390.8460
   1413.89648     581.9395     390.0760   1413.89648     581.9395     390.0760
   1413.88123     579.4697     387.8166   1413.88123     579.4697     387.8166
   1413.86597     576.7434     386.8206   1413.86597     576.7434     386.8206
   1413.85071     573.8111     385.6888   1413.85071     573.8111     385.6888
   1413.83545     570.1116     383.3431   1413.83545     570.1116     383.3431
   1413.82019     566.3173     381.3315   1413.82019     566.3173     381.3315
   1413.80493     564.1987     380.4104   1413.80493     564.1987     380.4104
   1413.78967     560.8812     378.5092   1413.78967     560.8812     378.5092
   1413.77441     557.6832     376.8961   1413.77441     557.6832     376.8961
   1413.75916     555.5916     375.2519   1413.75916     555.5916     375.2519
   1413.74390     551.9813     373.0275   1413.74390     551.9813     373.0275
   1413.72864     549.2165     372.3380   1413.72864     549.2165     372.3380
   1413.71338     545.5154     370.4883   1413.71338     545.5154     370.4883
   1413.69812     542.2847     369.0225   1413.69812     542.2847     369.0225
   1413.68286     540.7000     367.5898   1413.68286     540.7000     367.5898
   1413.66760     535.8240     366.2117   1413.66760     535.8240     366.2117
   1413.65234     533.0503     364.5017   1413.65234     533.0503     364.5017
   1413.63708     530.3989     362.8236   1413.63708     530.3989     362.8236
   1413.62183     526.2200     361.4539   1413.62183     526.2200     361.4539
   1413.60657     524.5934     359.6659   1413.60657     524.5934     359.6659
   1413.59131     522.0417     358.2770   1413.59131     522.0417     358.2770
   1413.57605     517.3711     356.0947   1413.57605     517.3711     356.0947
   1413.56079     515.4177     354.5366   1413.56079     515.4177     354.5366
   1413.54553     512.1902     353.7855   1413.54553     512.1902     353.7855
   1413.53027     508.9174     352.0058   1413.53027     508.9174     352.0058
   1413.51501     506.2469     350.3247   1413.51501     506.2469     350.3247
   1413.49976     503.4092     348.9300   1413.49976     503.4092     348.9300
   1413.48450     499.7952     347.6702   1413.48450     499.7952     347.6702
   1413.46924     497.3304     345.6365   1413.46924     497.3304     345.6365
   1413.45398     495.2354     344.2327   1413.45398     495.2354     344.2327
   1413.43872     490.9421     342.8971   1413.43872     490.9421     342.8971
   1413.42346     488.9612     340.8621   1413.42346     488.9612     340.8621
   1413.40820     485.4949     339.3310   1413.40820     485.4949     339.3310
   1413.39294     482.2924     338.3885   1413.39294     482.2924     338.3885
   1413.37769     480.3510     337.3051   1413.37769     480.3510     337.3051
   1413.36243     476.8563     335.0713   1413.36243     476.8563     335.0713
   1413.34717     474.2552     333.9164   1413.34717     474.2552     333.9164
   1413.33191     471.3719     332.5387   1413.33191     471.3719     332.5387
   1413.31665     469.1594     331.0751   1413.31665     469.1594     331.0751
   1413.30139     466.1980     330.0050   1413.30139     466.1980     330.0050
   1413.28613     463.4134     328.1831   1413.28613     463.4134     328.1831
   1413.27087     460.6223     326.4855   1413.27087     460.6223     326.4855
   1413.25562     458.5370     325.0903   1413.25562     458.5370     325.0903
   1413.24036     455.2003     324.0973   1413.24036     455.2003     324.0973
   1413.22510     452.9286     323.0189   1413.22510     452.9286     323.0189
   1413.20984     450.0105     321.1868   1413.20984     450.0105     321.1868
   1413.19458     447.4135     320.2832   1413.19458     447.4135     320.2832
   1413.17932     444.7792     319.0636   1413.17932     444.7792     319.0636
   1413.16406     442.2135     317.5935   1413.16406     442.2135     317.5935
   1413.14880     440.0383     316.4294   1413.14880     440.0383     316.4294
   1413.13354     437.9459     314.8588   1413.13354     437.9459     314.8588
   1413.11829     434.8721     313.4799   1413.11829     434.8721     313.4799
   1413.10303     432.1425     312.1341   1413.10303     432.1425     312.1341
   1413.08777     430.2832     311.4324   1413.08777     430.2832     311.4324
   1413.07251     428.0472     310.1704   1413.07251     428.0472     310.1704
   1413.05725     425.4869     308.6733   1413.05725     425.4869     308.6733
   1413.04199     423.7496     307.2764   1413.04199     423.7496     307.2764
   1413.02673     421.3140     306.4243   1413.02673     421.3140     306.4243
   1413.01147     419.2074     305.5745   1413.01147     419.2074     305.5745
   1412.99622     416.6475     304.0334   1412.99622     416.6475     304.0334
   1412.98096     414.3857     303.5241   1412.98096     414.3857     303.5241
   1412.96570     412.8438     301.9856   1412.96570     412.8438     301.9856
   1412.95044     410.2750     300.8924   1412.95044     410.2750     300.8924
   1412.93518     408.2292     300.5595   1412.93518     408.2292     300.5595
   1412.91992     406.3620     299.4969   1412.91992     406.3620     299.4969
   1412.90466     404.6620     298.7172   1412.90466     404.6620     298.7172
   1412.88940     402.4603     297.2527   1412.88940     402.4603     297.2527
   1412.87415     400.5810     296.5493   1412.87415     400.5810     296.5493
   1412.85889     399.3483     295.7457   1412.85889     399.3483     295.7457
   1412.84363     397.4844     295.0473   1412.84363     397.4844     295.0473
   1412.82837     395.3594     294.2713   1412.82837     395.3594     294.2713
   1412.81311     393.2848     293.0510   1412.81311     393.2848     293.0510
   1412.79785     392.9916     293.4238   1412.79785     392.9916     293.4238
   1412.78259     391.3732     292.2642   1412.78259     391.3732     292.2642
   1412.76733     389.7203     291.5729   1412.76733     389.7203     291.5729
   1412.75208     388.0678     290.1111   1412.75208     388.0678     290.1111
   1412.73682     386.3990     289.9799   1412.73682     386.3990     289.9799
   1412.72156     385.4535     289.6568   1412.72156     385.4535     289.6568
   1412.70630     383.9053     289.3623   1412.70630     383.9053     289.3623
   1412.69104     383.3217     288.3123   1412.69104     383.3217     288.3123
   1412.67578     381.4012     288.7871   1412.67578     381.4012     288.7871
   1412.66052     380.4313     287.5977   1412.66052     380.4313     287.5977
   1412.64526     379.5999     287.1224   1412.64526     379.5999     287.1224
   1412.63000     378.0676     286.6981   1412.63000     378.0676     286.6981
   1412.61475     377.3676     286.0869   1412.61475     377.3676     286.0869
   1412.59949     376.8043     286.1376   1412.59949     376.8043     286.1376
   1412.58423     375.8029     285.9464   1412.58423     375.8029     285.9464
   1412.56897     375.0993     285.7229   1412.56897     375.0993     285.7229
   1412.55371     373.4115     285.0605   1412.55371     373.4115     285.0605
   1412.53845     372.7915     285.1679   1412.53845     372.7915     285.1679
   1412.52319     372.8487     284.8682   1412.52319     372.8487     284.8682
   1412.50793     372.2896     284.7146   1412.50793     372.2896     284.7146
   1412.49268     371.5225     284.5246   1412.49268     371.5225     284.5246
   1412.47742     371.3885     284.8173   1412.47742     371.3885     284.8173
   1412.46216     370.5223     284.5135   1412.46216     370.5223     284.5135
   1412.44690     370.4015     284.6272   1412.44690     370.4015     284.6272
   1412.43164     369.8666     284.7100   1412.43164     369.8666     284.7100
   1412.41638     369.1697     285.0146   1412.41638     369.1697     285.0146
   1412.40112     369.6918     285.8372   1412.40112     369.6918     285.8372
   1412.38586     369.4028     285.5131   1412.38586     369.4028     285.5131
   1412.37061     368.5936     285.8656   1412.37061     368.5936     285.8656
   1412.35535     369.3478     285.5752   1412.35535     369.3478     285.5752
   1412.34009     369.1783     286.2559   1412.34009     369.1783     286.2559
   1412.32483     369.5948     286.2685   1412.32483     369.5948     286.2685
   1412.30957     369.9670     287.0840   1412.30957     369.9670     287.0840
   1412.29431     370.0224     287.3738   1412.29431     370.0224     287.3738
   1412.27905     370.6010     287.3726   1412.27905     370.6010     287.3726
   1412.26379     370.3745     288.2586   1412.26379     370.3745     288.2586
   1412.24854     370.1041     289.0005   1412.24854     370.1041     289.0005
   1412.23328     371.0056     289.1352   1412.23328     371.0056     289.1352
   1412.21802     371.5192     290.4490   1412.21802     371.5192     290.4490
   1412.20276     372.1597     290.4013   1412.20276     372.1597     290.4013