#     FILENAME=!Skynet_57528_lach-cc-209_20616_21050.cyb.fits
#     BASENAME=Skynet_57528_lach-cc-209_20616_21050
#     SRC_NAME=lach-cc-209
#     OBSERVER=ccmadison16_9505
#     DATE_OBS=2016-05-20T20:16:51.250
#        OBSID=20616
#      SCANNUM=21050
#          MJD=57528.8461
#          UTC=73101
#     SCANTYPE=track
#     DATAMODE=HIRES
#     TUNEFREQ=1420.0000
# Actual_FREQ1=1420.0000
# Actual_FREQ2=1420.0000
#    LO1Tuning=6870.000
#     RFFILTER=1355_1435
#        OBSBW=-15.6250
#        NCHAN=1024 
#        FOCUS=37.0709
#           RA=06:44:14.01
#          DEC=03:29:55.45
#      RA(hrs)=6.737200
#     DEC(deg)=3.498700
#    AZIM(deg)=182.990
#    ELEV(deg)=54.859
#     IFattens=10.00, 9.00
#      WARNING=None
#    TCAL_XL1=7.9635
#    TCAL_YR1=9.1340
#    TCAL_XL2=7.9635
#    TCAL_YR2=9.1340
#     TRX_XL1=11.7060
#     TRX_YR1=11.7060
#     TRX_XL2=11.7060
#     TRX_YR2=11.7060
#        TAVE=1.0000
#Freq1(MHz)          XL1          YR1  Freq2(MHz)          XL2          YR2 

   1427.81250     355.9501     262.5360   1427.81250     355.9501     262.5360
   1427.79724     356.9983     263.1514   1427.79724     356.9983     263.1514
   1427.78198     357.1114     264.0628   1427.78198     357.1114     264.0628
   1427.76672     357.5142     264.3451   1427.76672     357.5142     264.3451
   1427.75146     358.7962     265.0904   1427.75146     358.7962     265.0904
   1427.73621     359.7042     266.1916   1427.73621     359.7042     266.1916
   1427.72095     360.5018     266.9066   1427.72095     360.5018     266.9066
   1427.70569     361.3447     267.6938   1427.70569     361.3447     267.6938
   1427.69043     362.2568     268.8950   1427.69043     362.2568     268.8950
   1427.67517     363.1089     269.9889   1427.67517     363.1089     269.9889
   1427.65991     364.5906     270.9431   1427.65991     364.5906     270.9431
   1427.64465     365.5516     272.4240   1427.64465     365.5516     272.4240
   1427.62939     366.5984     272.9978   1427.62939     366.5984     272.9978
   1427.61414     367.8412     273.9395   1427.61414     367.8412     273.9395
   1427.59888     368.8591     275.4098   1427.59888     368.8591     275.4098
   1427.58362     370.5099     276.7146   1427.58362     370.5099     276.7146
   1427.56836     371.6218     277.8345   1427.56836     371.6218     277.8345
   1427.55310     373.4312     279.0674   1427.55310     373.4312     279.0674
   1427.53784     374.6930     280.1801   1427.53784     374.6930     280.1801
   1427.52258     375.8378     281.6563   1427.52258     375.8378     281.6563
   1427.50732     377.4431     283.3547   1427.50732     377.4431     283.3547
   1427.49207     378.9214     284.6700   1427.49207     378.9214     284.6700
   1427.47681     380.9376     285.9371   1427.47681     380.9376     285.9371
   1427.46155     382.4448     288.2270   1427.46155     382.4448     288.2270
   1427.44629     384.1043     289.0464   1427.44629     384.1043     289.0464
   1427.43103     385.8685     290.4825   1427.43103     385.8685     290.4825
   1427.41577     387.7307     292.5304   1427.41577     387.7307     292.5304
   1427.40051     389.9135     293.9860   1427.40051     389.9135     293.9860
   1427.38525     391.0066     295.9834   1427.38525     391.0066     295.9834
   1427.37000     393.4781     297.2629   1427.37000     393.4781     297.2629
   1427.35474     395.0013     299.0338   1427.35474     395.0013     299.0338
   1427.33948     397.6428     301.0426   1427.33948     397.6428     301.0426
   1427.32422     399.7306     302.5970   1427.32422     399.7306     302.5970
   1427.30896     402.2748     304.3152   1427.30896     402.2748     304.3152
   1427.29370     403.5310     306.5749   1427.29370     403.5310     306.5749
   1427.27844     405.7866     308.2519   1427.27844     405.7866     308.2519
   1427.26318     407.5744     309.9787   1427.26318     407.5744     309.9787
   1427.24792     411.0754     312.1332   1427.24792     411.0754     312.1332
   1427.23267     412.6655     314.1164   1427.23267     412.6655     314.1164
   1427.21741     414.7381     316.2531   1427.21741     414.7381     316.2531
   1427.20215     416.8966     318.2314   1427.20215     416.8966     318.2314
   1427.18689     419.6240     320.2293   1427.18689     419.6240     320.2293
   1427.17163     421.7005     322.3205   1427.17163     421.7005     322.3205
   1427.15637     423.3985     324.2715   1427.15637     423.3985     324.2715
   1427.14111     427.4497     325.7969   1427.14111     427.4497     325.7969
   1427.12585     429.1743     328.4997   1427.12585     429.1743     328.4997
   1427.11060     431.4563     330.7610   1427.11060     431.4563     330.7610
   1427.09534     434.2892     332.9602   1427.09534     434.2892     332.9602
   1427.08008     436.6457     335.2970   1427.08008     436.6457     335.2970
   1427.06482     439.5333     337.1479   1427.06482     439.5333     337.1479
   1427.04956     441.9566     339.8664   1427.04956     441.9566     339.8664
   1427.03430     444.3755     342.2001   1427.03430     444.3755     342.2001
   1427.01904     447.0860     343.7715   1427.01904     447.0860     343.7715
   1427.00378     450.0092     346.4085   1427.00378     450.0092     346.4085
   1426.98853     452.5333     348.6637   1426.98853     452.5333     348.6637
   1426.97327     455.2932     350.7397   1426.97327     455.2932     350.7397
   1426.95801     457.9314     352.7193   1426.95801     457.9314     352.7193
   1426.94275     460.0875     355.2751   1426.94275     460.0875     355.2751
   1426.92749     464.0777     357.8554   1426.92749     464.0777     357.8554
   1426.91223     465.7715     360.8083   1426.91223     465.7715     360.8083
   1426.89697     468.8506     363.0308   1426.89697     468.8506     363.0308
   1426.88171     472.2412     365.2295   1426.88171     472.2412     365.2295
   1426.86646     474.4702     368.3810   1426.86646     474.4702     368.3810
   1426.85120     477.4556     370.1635   1426.85120     477.4556     370.1635
   1426.83594     480.7576     372.7523   1426.83594     480.7576     372.7523
   1426.82068     483.0631     375.1331   1426.82068     483.0631     375.1331
   1426.80542     486.3922     377.4552   1426.80542     486.3922     377.4552
   1426.79016     489.0678     380.4445   1426.79016     489.0678     380.4445
   1426.77490     491.6642     382.7589   1426.77490     491.6642     382.7589
   1426.75964     494.6047     384.5883   1426.75964     494.6047     384.5883
   1426.74438     497.8261     387.6140   1426.74438     497.8261     387.6140
   1426.72913     499.7612     389.9691   1426.72913     499.7612     389.9691
   1426.71387     503.8157     392.2348   1426.71387     503.8157     392.2348
   1426.69861     505.6903     395.2012   1426.69861     505.6903     395.2012
   1426.68335     508.3077     397.6443   1426.68335     508.3077     397.6443
   1426.66809     511.4400     399.9784   1426.66809     511.4400     399.9784
   1426.65283     514.8977     403.2129   1426.65283     514.8977     403.2129
   1426.63757     516.9252     404.3772   1426.63757     516.9252     404.3772
   1426.62231     520.9183     410.2215   1426.62231     520.9183     410.2215
   1426.60706     522.8026     410.4117   1426.60706     522.8026     410.4117
   1426.59180     524.9922     412.3941   1426.59180     524.9922     412.3941
   1426.57654     528.4290     415.4784   1426.57654     528.4290     415.4784
   1426.56128     531.5024     417.4008   1426.56128     531.5024     417.4008
   1426.54602     534.9855     420.3194   1426.54602     534.9855     420.3194
   1426.53076     536.1456     422.1158   1426.53076     536.1456     422.1158
   1426.51550     539.6296     425.3332   1426.51550     539.6296     425.3332
   1426.50024     542.5954     427.5883   1426.50024     542.5954     427.5883
   1426.48499     546.0820     430.1068   1426.48499     546.0820     430.1068
   1426.46973     548.5200     432.7003   1426.46973     548.5200     432.7003
   1426.45447     550.9147     435.2534   1426.45447     550.9147     435.2534
   1426.43921     554.7194     437.6831   1426.43921     554.7194     437.6831
   1426.42395     557.0464     440.5016   1426.42395     557.0464     440.5016
   1426.40869     560.1690     442.5618   1426.40869     560.1690     442.5618
   1426.39343     561.8909     445.3306   1426.39343     561.8909     445.3306
   1426.37817     565.2697     447.4210   1426.37817     565.2697     447.4210
   1426.36292     567.5961     450.3255   1426.36292     567.5961     450.3255
   1426.34766     570.9914     452.4465   1426.34766     570.9914     452.4465
   1426.33240     574.0601     455.2651   1426.33240     574.0601     455.2651
   1426.31714     575.9646     457.5955   1426.31714     575.9646     457.5955
   1426.30188     577.8293     459.5309   1426.30188     577.8293     459.5309
   1426.28662     581.6378     462.0699   1426.28662     581.6378     462.0699
   1426.27136     584.6009     464.1110   1426.27136     584.6009     464.1110
   1426.25610     586.3301     467.0653   1426.25610     586.3301     467.0653
   1426.24084     588.7078     469.9078   1426.24084     588.7078     469.9078
   1426.22559     592.0938     471.6103   1426.22559     592.0938     471.6103
   1426.21033     594.3640     474.7398   1426.21033     594.3640     474.7398
   1426.19507     596.6800     476.6389   1426.19507     596.6800     476.6389
   1426.17981     599.5369     478.4163   1426.17981     599.5369     478.4163
   1426.16455     601.9896     480.4625   1426.16455     601.9896     480.4625
   1426.14929     604.2893     483.2387   1426.14929     604.2893     483.2387
   1426.13403     606.3066     486.0621   1426.13403     606.3066     486.0621
   1426.11877     608.9484     488.5369   1426.11877     608.9484     488.5369
   1426.10352     610.9032     489.2721   1426.10352     610.9032     489.2721
   1426.08826     613.4038     492.2751   1426.08826     613.4038     492.2751
   1426.07300     616.3251     494.7297   1426.07300     616.3251     494.7297
   1426.05774     618.4287     496.5565   1426.05774     618.4287     496.5565
   1426.04248     620.5120     498.4730   1426.04248     620.5120     498.4730
   1426.02722     622.9075     500.5459   1426.02722     622.9075     500.5459
   1426.01196     625.4279     502.3630   1426.01196     625.4279     502.3630
   1425.99670     628.1847     505.5411   1425.99670     628.1847     505.5411
   1425.98145     628.6013     506.9451   1425.98145     628.6013     506.9451
   1425.96619     631.7913     508.9456   1425.96619     631.7913     508.9456
   1425.95093     634.1571     511.1293   1425.95093     634.1571     511.1293
   1425.93567     635.4810     512.5802   1425.93567     635.4810     512.5802
   1425.92041     637.2549     515.8462   1425.92041     637.2549     515.8462
   1425.90515     640.5327     517.8464   1425.90515     640.5327     517.8464
   1425.88989     641.3940     519.4600   1425.88989     641.3940     519.4600
   1425.87463     643.4588     522.0073   1425.87463     643.4588     522.0073
   1425.85938     645.7900     523.6521   1425.85938     645.7900     523.6521
   1425.84412     646.7022     525.8456   1425.84412     646.7022     525.8456
   1425.82886     650.5746     527.2231   1425.82886     650.5746     527.2231
   1425.81360     651.5323     529.4211   1425.81360     651.5323     529.4211
   1425.79834     653.4323     530.8249   1425.79834     653.4323     530.8249
   1425.78308     655.3245     533.1628   1425.78308     655.3245     533.1628
   1425.76782     656.9984     534.3185   1425.76782     656.9984     534.3185
   1425.75256     658.3117     536.5907   1425.75256     658.3117     536.5907
   1425.73730     660.2380     537.7292   1425.73730     660.2380     537.7292
   1425.72205     661.6244     540.1879   1425.72205     661.6244     540.1879
   1425.70679     663.4344     541.9482   1425.70679     663.4344     541.9482
   1425.69153     665.5536     543.7631   1425.69153     665.5536     543.7631
   1425.67627     667.3487     544.8201   1425.67627     667.3487     544.8201
   1425.66101     669.1352     546.8589   1425.66101     669.1352     546.8589
   1425.64575     670.8384     548.8654   1425.64575     670.8384     548.8654
   1425.63049     670.9637     550.1479   1425.63049     670.9637     550.1479
   1425.61523     673.1879     551.4045   1425.61523     673.1879     551.4045
   1425.59998     673.7271     554.0455   1425.59998     673.7271     554.0455
   1425.58472     677.9260     555.6633   1425.58472     677.9260     555.6633
   1425.56946     677.2827     556.7184   1425.56946     677.2827     556.7184
   1425.55420     679.4086     558.6019   1425.55420     679.4086     558.6019
   1425.53894     679.7707     559.9814   1425.53894     679.7707     559.9814
   1425.52368     681.2479     562.5021   1425.52368     681.2479     562.5021
   1425.50842     682.6302     563.4244   1425.50842     682.6302     563.4244
   1425.49316     684.0037     564.4506   1425.49316     684.0037     564.4506
   1425.47791     684.3950     565.6553   1425.47791     684.3950     565.6553
   1425.46265     686.0613     568.0338   1425.46265     686.0613     568.0338
   1425.44739     688.1559     568.1479   1425.44739     688.1559     568.1479
   1425.43213     688.8716     570.6796   1425.43213     688.8716     570.6796
   1425.41687     689.9763     574.6106   1425.41687     689.9763     574.6106
   1425.40161     691.2162     572.7107   1425.40161     691.2162     572.7107
   1425.38635     691.4231     574.9346   1425.38635     691.4231     574.9346
   1425.37109     694.0349     575.3499   1425.37109     694.0349     575.3499
   1425.35583     694.4808     576.4973   1425.35583     694.4808     576.4973
   1425.34058     694.8206     577.7274   1425.34058     694.8206     577.7274
   1425.32532     694.8436     580.7436   1425.32532     694.8436     580.7436
   1425.31006     696.6325     581.3380   1425.31006     696.6325     581.3380
   1425.29480     698.0377     582.6913   1425.29480     698.0377     582.6913
   1425.27954     698.5975     582.8174   1425.27954     698.5975     582.8174
   1425.26428     697.3386     585.1246   1425.26428     697.3386     585.1246
   1425.24902     699.9363     586.2032   1425.24902     699.9363     586.2032
   1425.23376     699.2325     587.1559   1425.23376     699.2325     587.1559
   1425.21851     701.5483     588.9291   1425.21851     701.5483     588.9291
   1425.20325     702.6760     588.9743   1425.20325     702.6760     588.9743
   1425.18799     703.4171     590.9954   1425.18799     703.4171     590.9954
   1425.17273     703.9499     591.5726   1425.17273     703.9499     591.5726
   1425.15747     705.2186     593.2614   1425.15747     705.2186     593.2614
   1425.14221     704.7096     593.1483   1425.14221     704.7096     593.1483
   1425.12695     705.8551     593.6247   1425.12695     705.8551     593.6247
   1425.11169     707.1328     595.5552   1425.11169     707.1328     595.5552
   1425.09644     707.5673     597.0477   1425.09644     707.5673     597.0477
   1425.08118     707.5493     598.6474   1425.08118     707.5493     598.6474
   1425.06592     707.6597     598.3095   1425.06592     707.6597     598.3095
   1425.05066     709.3604     599.2690   1425.05066     709.3604     599.2690
   1425.03540     709.0545     601.0241   1425.03540     709.0545     601.0241
   1425.02014     709.6273     602.1540   1425.02014     709.6273     602.1540
   1425.00488     709.4121     601.7485   1425.00488     709.4121     601.7485
   1424.98962     709.4663     602.8950   1424.98962     709.4663     602.8950
   1424.97437     711.7908     604.0177   1424.97437     711.7908     604.0177
   1424.95911     710.5881     604.3367   1424.95911     710.5881     604.3367
   1424.94385     711.2894     605.8395   1424.94385     711.2894     605.8395
   1424.92859     712.3691     606.9622   1424.92859     712.3691     606.9622
   1424.91333     712.9836     606.9098   1424.91333     712.9836     606.9098
   1424.89807     713.5638     608.5367   1424.89807     713.5638     608.5367
   1424.88281     713.8677     608.1506   1424.88281     713.8677     608.1506
   1424.86755     713.6212     609.2041   1424.86755     713.6212     609.2041
   1424.85229     713.7954     610.4890   1424.85229     713.7954     610.4890
   1424.83704     714.2935     610.5264   1424.83704     714.2935     610.5264
   1424.82178     714.1722     611.2565   1424.82178     714.1722     611.2565
   1424.80652     714.0134     612.5286   1424.80652     714.0134     612.5286
   1424.79126     714.5967     612.9431   1424.79126     714.5967     612.9431
   1424.77600     714.1070     613.7812   1424.77600     714.1070     613.7812
   1424.76074     715.0303     614.1598   1424.76074     715.0303     614.1598
   1424.74548     714.5783     614.4481   1424.74548     714.5783     614.4481
   1424.73022     715.0361     615.5142   1424.73022     715.0361     615.5142
   1424.71497     714.9042     616.3309   1424.71497     714.9042     616.3309
   1424.69971     715.8301     616.6223   1424.69971     715.8301     616.6223
   1424.68445     716.5659     615.6014   1424.68445     716.5659     615.6014
   1424.66919     714.4285     617.7532   1424.66919     714.4285     617.7532
   1424.65393     715.1547     617.9828   1424.65393     715.1547     617.9828
   1424.63867     715.6005     617.9024   1424.63867     715.6005     617.9024
   1424.62341     715.2421     618.1813   1424.62341     715.2421     618.1813
   1424.60815     714.2794     618.2848   1424.60815     714.2794     618.2848
   1424.59290     713.6763     619.0193   1424.59290     713.6763     619.0193
   1424.57764     715.6066     620.6188   1424.57764     715.6066     620.6188
   1424.56238     714.7894     619.4859   1424.56238     714.7894     619.4859
   1424.54712     714.8270     621.2383   1424.54712     714.8270     621.2383
   1424.53186     714.6948     621.3871   1424.53186     714.6948     621.3871
   1424.51660     715.6753     621.4142   1424.51660     715.6753     621.4142
   1424.50134     715.0536     619.9932   1424.50134     715.0536     619.9932
   1424.48608     714.3460     621.2236   1424.48608     714.3460     621.2236
   1424.47083     714.3770     622.5200   1424.47083     714.3770     622.5200
   1424.45557     714.9578     621.2991   1424.45557     714.9578     621.2991
   1424.44031     715.4112     621.5054   1424.44031     715.4112     621.5054
   1424.42505     714.1531     623.3776   1424.42505     714.1531     623.3776
   1424.40979     713.3961     623.0620   1424.40979     713.3961     623.0620
   1424.39453     715.2021     624.3306   1424.39453     715.2021     624.3306
   1424.37927     714.2764     623.5411   1424.37927     714.2764     623.5411
   1424.36401     714.9759     624.4794   1424.36401     714.9759     624.4794
   1424.34875     713.3760     624.6906   1424.34875     713.3760     624.6906
   1424.33350     714.6096     624.4067   1424.33350     714.6096     624.4067
   1424.31824     713.4149     625.5137   1424.31824     713.4149     625.5137
   1424.30298     713.6901     624.4996   1424.30298     713.6901     624.4996
   1424.28772     713.3205     624.8602   1424.28772     713.3205     624.8602
   1424.27246     712.4142     624.6808   1424.27246     712.4142     624.6808
   1424.25720     713.5424     624.3539   1424.25720     713.5424     624.3539
   1424.24194     712.3630     624.4572   1424.24194     712.3630     624.4572
   1424.22668     711.6816     624.2660   1424.22668     711.6816     624.2660
   1424.21143     712.0736     625.1039   1424.21143     712.0736     625.1039
   1424.19617     711.8826     624.6346   1424.19617     711.8826     624.6346
   1424.18091     711.3998     624.7946   1424.18091     711.3998     624.7946
   1424.16565     710.8922     624.6048   1424.16565     710.8922     624.6048
   1424.15039     710.5776     624.3962   1424.15039     710.5776     624.3962
   1424.13513     710.6255     625.3142   1424.13513     710.6255     625.3142
   1424.11987     710.5438     624.6786   1424.11987     710.5438     624.6786
   1424.10461     709.8656     625.0948   1424.10461     709.8656     625.0948
   1424.08936     709.7335     624.7600   1424.08936     709.7335     624.7600
   1424.07410     710.1633     625.5581   1424.07410     710.1633     625.5581
   1424.05884     709.8671     624.7485   1424.05884     709.8671     624.7485
   1424.04358     707.6866     623.2476   1424.04358     707.6866     623.2476
   1424.02832     710.2546     624.9725   1424.02832     710.2546     624.9725
   1424.01306     708.5038     625.1658   1424.01306     708.5038     625.1658
   1423.99780     709.4046     624.0501   1423.99780     709.4046     624.0501
   1423.98254     708.3499     624.9437   1423.98254     708.3499     624.9437
   1423.96729     707.8736     623.0046   1423.96729     707.8736     623.0046
   1423.95203     707.1923     623.7753   1423.95203     707.1923     623.7753
   1423.93677     707.1848     623.5734   1423.93677     707.1848     623.5734
   1423.92151     706.9888     622.8021   1423.92151     706.9888     622.8021
   1423.90625     706.0020     622.7411   1423.90625     706.0020     622.7411
   1423.89099     705.2714     622.2058   1423.89099     705.2714     622.2058
   1423.87573     705.3305     622.7797   1423.87573     705.3305     622.7797
   1423.86047     705.6388     622.9624   1423.86047     705.6388     622.9624
   1423.84521     705.1561     621.7156   1423.84521     705.1561     621.7156
   1423.82996     705.6597     621.6209   1423.82996     705.6597     621.6209
   1423.81470     704.6456     621.9499   1423.81470     704.6456     621.9499
   1423.79944     703.3425     620.8539   1423.79944     703.3425     620.8539
   1423.78418     704.9318     621.0739   1423.78418     704.9318     621.0739
   1423.76892     703.8185     621.1780   1423.76892     703.8185     621.1780
   1423.75366     703.8597     620.8589   1423.75366     703.8597     620.8589
   1423.73840     703.2755     619.7700   1423.73840     703.2755     619.7700
   1423.72314     701.9564     619.9843   1423.72314     701.9564     619.9843
   1423.70789     702.6605     619.0329   1423.70789     702.6605     619.0329
   1423.69263     702.7899     618.3116   1423.69263     702.7899     618.3116
   1423.67737     703.0634     618.8073   1423.67737     703.0634     618.8073
   1423.66211     700.8137     617.6665   1423.66211     700.8137     617.6665
   1423.64685     701.3943     617.7798   1423.64685     701.3943     617.7798
   1423.63159     701.8495     616.9333   1423.63159     701.8495     616.9333
   1423.61633     701.1387     616.0768   1423.61633     701.1387     616.0768
   1423.60107     701.0291     617.0403   1423.60107     701.0291     617.0403
   1423.58582     700.0884     615.6673   1423.58582     700.0884     615.6673
   1423.57056     700.5416     615.4691   1423.57056     700.5416     615.4691
   1423.55530     699.6611     615.1921   1423.55530     699.6611     615.1921
   1423.54004     698.4551     614.5414   1423.54004     698.4551     614.5414
   1423.52478     698.8703     614.1406   1423.52478     698.8703     614.1406
   1423.50952     698.5214     614.2463   1423.50952     698.5214     614.2463
   1423.49426     697.8418     612.6621   1423.49426     697.8418     612.6621
   1423.47900     697.9220     611.6161   1423.47900     697.9220     611.6161
   1423.46375     697.7750     612.0902   1423.46375     697.7750     612.0902
   1423.44849     697.6364     611.6256   1423.44849     697.6364     611.6256
   1423.43323     695.9790     610.3045   1423.43323     695.9790     610.3045
   1423.41797     696.3324     610.0914   1423.41797     696.3324     610.0914
   1423.40271     695.7886     610.2715   1423.40271     695.7886     610.2715
   1423.38745     695.6913     609.5899   1423.38745     695.6913     609.5899
   1423.37219     696.9847     609.5316   1423.37219     696.9847     609.5316
   1423.35693     694.6465     607.9016   1423.35693     694.6465     607.9016
   1423.34167     695.1012     607.5024   1423.34167     695.1012     607.5024
   1423.32642     694.1136     606.2288   1423.32642     694.1136     606.2288
   1423.31116     694.9157     605.9683   1423.31116     694.9157     605.9683
   1423.29590     694.0475     605.6527   1423.29590     694.0475     605.6527
   1423.28064     693.5859     603.7923   1423.28064     693.5859     603.7923
   1423.26538     694.0989     603.7754   1423.26538     694.0989     603.7754
   1423.25012     692.9659     603.5342   1423.25012     692.9659     603.5342
   1423.23486     692.4308     603.0531   1423.23486     692.4308     603.0531
   1423.21960     692.3301     602.5679   1423.21960     692.3301     602.5679
   1423.20435     692.2040     601.8959   1423.20435     692.2040     601.8959
   1423.18909     691.6805     600.3231   1423.18909     691.6805     600.3231
   1423.17383     691.1663     599.6833   1423.17383     691.1663     599.6833
   1423.15857     689.4755     599.3863   1423.15857     689.4755     599.3863
   1423.14331     690.7000     599.0150   1423.14331     690.7000     599.0150
   1423.12805     691.4119     598.0079   1423.12805     691.4119     598.0079
   1423.11279     690.2341     596.3307   1423.11279     690.2341     596.3307
   1423.09753     689.9147     596.3738   1423.09753     689.9147     596.3738
   1423.08228     691.0278     595.0809   1423.08228     691.0278     595.0809
   1423.06702     689.4267     594.3281   1423.06702     689.4267     594.3281
   1423.05176     689.5937     593.1148   1423.05176     689.5937     593.1148
   1423.03650     689.4947     592.5986   1423.03650     689.4947     592.5986
   1423.02124     688.8657     592.3853   1423.02124     688.8657     592.3853
   1423.00598     688.5668     592.2057   1423.00598     688.5668     592.2057
   1422.99072     687.6353     590.6796   1422.99072     687.6353     590.6796
   1422.97546     688.0468     589.7754   1422.97546     688.0468     589.7754
   1422.96021     687.6893     589.3146   1422.96021     687.6893     589.3146
   1422.94495     687.0775     589.1981   1422.94495     687.0775     589.1981
   1422.92969     687.1400     587.4737   1422.92969     687.1400     587.4737
   1422.91443     688.1379     586.4089   1422.91443     688.1379     586.4089
   1422.89917     686.5148     585.6494   1422.89917     686.5148     585.6494
   1422.88391     686.3981     584.5369   1422.88391     686.3981     584.5369
   1422.86865     685.8004     583.9149   1422.86865     685.8004     583.9149
   1422.85339     685.1552     583.4022   1422.85339     685.1552     583.4022
   1422.83813     685.4555     581.9116   1422.83813     685.4555     581.9116
   1422.82288     685.9468     581.4585   1422.82288     685.9468     581.4585
   1422.80762     685.1290     579.8452   1422.80762     685.1290     579.8452
   1422.79236     685.4023     578.4929   1422.79236     685.4023     578.4929
   1422.77710     684.8304     578.8462   1422.77710     684.8304     578.8462
   1422.76184     685.3785     577.8133   1422.76184     685.3785     577.8133
   1422.74658     683.6447     576.9092   1422.74658     683.6447     576.9092
   1422.73132     683.9395     576.2089   1422.73132     683.9395     576.2089
   1422.71606     684.3807     574.6967   1422.71606     684.3807     574.6967
   1422.70081     683.1498     574.7402   1422.70081     683.1498     574.7402
   1422.68555     681.7748     574.2125   1422.68555     681.7748     574.2125
   1422.67029     683.1277     572.5032   1422.67029     683.1277     572.5032
   1422.65503     683.8013     571.2491   1422.65503     683.8013     571.2491
   1422.63977     682.1083     570.1086   1422.63977     682.1083     570.1086
   1422.62451     681.9579     569.8139   1422.62451     681.9579     569.8139
   1422.60925     681.6699     569.0773   1422.60925     681.6699     569.0773
   1422.59399     682.6797     566.7835   1422.59399     682.6797     566.7835
   1422.57874     681.3123     567.0671   1422.57874     681.3123     567.0671
   1422.56348     681.1992     565.9451   1422.56348     681.1992     565.9451
   1422.54822     680.4513     565.1298   1422.54822     680.4513     565.1298
   1422.53296     681.0045     563.1119   1422.53296     681.0045     563.1119
   1422.51770     680.2512     562.3506   1422.51770     680.2512     562.3506
   1422.50244     679.9811     561.8345   1422.50244     679.9811     561.8345
   1422.48718     679.7116     560.8118   1422.48718     679.7116     560.8118
   1422.47192     680.1006     558.9973   1422.47192     680.1006     558.9973
   1422.45667     680.5408     558.5103   1422.45667     680.5408     558.5103
   1422.44141     680.0880     558.0745   1422.44141     680.0880     558.0745
   1422.42615     679.5494     556.6769   1422.42615     679.5494     556.6769
   1422.41089     679.6252     555.1687   1422.41089     679.6252     555.1687
   1422.39563     679.5693     555.7416   1422.39563     679.5693     555.7416
   1422.38037     678.2202     554.1700   1422.38037     678.2202     554.1700
   1422.36511     678.5630     553.0670   1422.36511     678.5630     553.0670
   1422.34985     678.7229     552.0830   1422.34985     678.7229     552.0830
   1422.33459     678.8784     551.0900   1422.33459     678.8784     551.0900
   1422.31934     678.2606     550.6418   1422.31934     678.2606     550.6418
   1422.30408     676.6862     549.5547   1422.30408     676.6862     549.5547
   1422.28882     677.7817     547.9311   1422.28882     677.7817     547.9311
   1422.27356     677.5444     547.0643   1422.27356     677.5444     547.0643
   1422.25830     677.7703     547.1859   1422.25830     677.7703     547.1859
   1422.24304     677.6486     545.1118   1422.24304     677.6486     545.1118
   1422.22778     677.2954     544.0920   1422.22778     677.2954     544.0920
   1422.21252     677.7618     542.7413   1422.21252     677.7618     542.7413
   1422.19727     676.9280     541.8734   1422.19727     676.9280     541.8734
   1422.18201     676.2461     541.5847   1422.18201     676.2461     541.5847
   1422.16675     676.1689     539.4043   1422.16675     676.1689     539.4043
   1422.15149     675.4839     538.0539   1422.15149     675.4839     538.0539
   1422.13623     675.7745     537.4196   1422.13623     675.7745     537.4196
   1422.12097     675.4335     536.6804   1422.12097     675.4335     536.6804
   1422.10571     674.8897     536.6634   1422.10571     674.8897     536.6634
   1422.09045     675.6213     535.4257   1422.09045     675.6213     535.4257
   1422.07520     674.5839     533.8468   1422.07520     674.5839     533.8468
   1422.05994     675.0063     532.3612   1422.05994     675.0063     532.3612
   1422.04468     674.0898     531.1655   1422.04468     674.0898     531.1655
   1422.02942     673.5226     530.4152   1422.02942     673.5226     530.4152
   1422.01416     674.2059     528.8494   1422.01416     674.2059     528.8494
   1421.99890     673.7427     527.5325   1421.99890     673.7427     527.5325
   1421.98364     673.7769     527.7877   1421.98364     673.7769     527.7877
   1421.96838     673.6026     526.0405   1421.96838     673.6026     526.0405
   1421.95312     673.4466     525.4859   1421.95312     673.4466     525.4859
   1421.93787     673.0187     524.0101   1421.93787     673.0187     524.0101
   1421.92261     672.5836     523.9832   1421.92261     672.5836     523.9832
   1421.90735     672.8464     521.3850   1421.90735     672.8464     521.3850
   1421.89209     672.3556     521.1613   1421.89209     672.3556     521.1613
   1421.87683     672.7366     520.6527   1421.87683     672.7366     520.6527
   1421.86157     671.9995     520.0421   1421.86157     671.9995     520.0421
   1421.84631     672.4445     518.8556   1421.84631     672.4445     518.8556
   1421.83105     671.5878     517.6907   1421.83105     671.5878     517.6907
   1421.81580     670.9345     515.6052   1421.81580     670.9345     515.6052
   1421.80054     670.7859     514.7394   1421.80054     670.7859     514.7394
   1421.78528     669.9696     514.6049   1421.78528     669.9696     514.6049
   1421.77002     670.6677     512.7332   1421.77002     670.6677     512.7332
   1421.75476     671.4765     511.8550   1421.75476     671.4765     511.8550
   1421.73950     669.7394     511.3900   1421.73950     669.7394     511.3900
   1421.72424     670.3140     510.7593   1421.72424     670.3140     510.7593
   1421.70898     670.1070     508.4428   1421.70898     670.1070     508.4428
   1421.69373     668.8944     507.8142   1421.69373     668.8944     507.8142
   1421.67847     669.0481     506.1881   1421.67847     669.0481     506.1881
   1421.66321     668.7164     505.7158   1421.66321     668.7164     505.7158
   1421.64795     669.0436     504.5610   1421.64795     669.0436     504.5610
   1421.63269     669.0934     503.8024   1421.63269     669.0934     503.8024
   1421.61743     667.5861     502.5905   1421.61743     667.5861     502.5905
   1421.60217     669.2534     501.3612   1421.60217     669.2534     501.3612
   1421.58691     668.0034     500.0659   1421.58691     668.0034     500.0659
   1421.57166     668.1358     499.4868   1421.57166     668.1358     499.4868
   1421.55640     667.2936     498.4680   1421.55640     667.2936     498.4680
   1421.54114     666.3745     497.2671   1421.54114     666.3745     497.2671
   1421.52588     667.2019     496.2919   1421.52588     667.2019     496.2919
   1421.51062     666.6669     495.3334   1421.51062     666.6669     495.3334
   1421.49536     664.6863     494.3496   1421.49536     664.6863     494.3496
   1421.48010     665.9329     493.3769   1421.48010     665.9329     493.3769
   1421.46484     666.8598     492.6085   1421.46484     666.8598     492.6085
   1421.44958     665.3976     490.8392   1421.44958     665.3976     490.8392
   1421.43433     665.7405     489.8582   1421.43433     665.7405     489.8582
   1421.41907     665.1104     488.3585   1421.41907     665.1104     488.3585
   1421.40381     664.8351     487.6428   1421.40381     664.8351     487.6428
   1421.38855     664.9122     487.1621   1421.38855     664.9122     487.1621
   1421.37329     663.4981     486.0779   1421.37329     663.4981     486.0779
   1421.35803     664.5482     485.5881   1421.35803     664.5482     485.5881
   1421.34277     663.9120     483.8931   1421.34277     663.9120     483.8931
   1421.32751     664.6408     483.1179   1421.32751     664.6408     483.1179
   1421.31226     664.6035     482.0247   1421.31226     664.6035     482.0247
   1421.29700     662.7069     480.7783   1421.29700     662.7069     480.7783
   1421.28174     663.2083     480.4173   1421.28174     663.2083     480.4173
   1421.26648     661.8557     479.5164   1421.26648     661.8557     479.5164
   1421.25122     660.9771     477.8157   1421.25122     660.9771     477.8157
   1421.23596     661.6636     477.7792   1421.23596     661.6636     477.7792
   1421.22070     661.3289     475.7445   1421.22070     661.3289     475.7445
   1421.20544     661.0815     475.1879   1421.20544     661.0815     475.1879
   1421.19019     660.4598     473.6021   1421.19019     660.4598     473.6021
   1421.17493     660.6977     472.5674   1421.17493     660.6977     472.5674
   1421.15967     659.8359     471.4981   1421.15967     659.8359     471.4981
   1421.14441     660.3462     471.1951   1421.14441     660.3462     471.1951
   1421.12915     659.9246     470.4062   1421.12915     659.9246     470.4062
   1421.11389     658.6669     470.0707   1421.11389     658.6669     470.0707
   1421.09863     659.5260     468.2251   1421.09863     659.5260     468.2251
   1421.08337     659.4977     467.0132   1421.08337     659.4977     467.0132
   1421.06812     658.6048     466.2433   1421.06812     658.6048     466.2433
   1421.05286     659.0782     464.7576   1421.05286     659.0782     464.7576
   1421.03760     658.9559     464.7068   1421.03760     658.9559     464.7068
   1421.02234     658.6223     463.3859   1421.02234     658.6223     463.3859
   1421.00708     658.2579     462.4930   1421.00708     658.2579     462.4930
   1420.99182     658.5657     461.3592   1420.99182     658.5657     461.3592
   1420.97656     657.3740     461.2918   1420.97656     657.3740     461.2918
   1420.96130     658.0231     460.2062   1420.96130     658.0231     460.2062
   1420.94604     658.0842     459.4065   1420.94604     658.0842     459.4065
   1420.93079     658.2252     458.4801   1420.93079     658.2252     458.4801
   1420.91553     656.8564     457.4268   1420.91553     656.8564     457.4268
   1420.90027     656.7233     456.8266   1420.90027     656.7233     456.8266
   1420.88501     658.2945     455.7350   1420.88501     658.2945     455.7350
   1420.86975     656.3950     454.6772   1420.86975     656.3950     454.6772
   1420.85449     656.9246     454.3894   1420.85449     656.9246     454.3894
   1420.83923     656.9742     453.0985   1420.83923     656.9742     453.0985
   1420.82397     655.1672     453.1900   1420.82397     655.1672     453.1900
   1420.80872     656.0068     451.9374   1420.80872     656.0068     451.9374
   1420.79346     657.0966     450.5758   1420.79346     657.0966     450.5758
   1420.77820     655.4723     450.2097   1420.77820     655.4723     450.2097
   1420.76294     656.0242     449.4792   1420.76294     656.0242     449.4792
   1420.74768     656.1300     449.0861   1420.74768     656.1300     449.0861
   1420.73242     655.6716     448.1982   1420.73242     655.6716     448.1982
   1420.71716     655.0812     446.8792   1420.71716     655.0812     446.8792
   1420.70190     655.5156     446.0379   1420.70190     655.5156     446.0379
   1420.68665     654.5886     445.2472   1420.68665     654.5886     445.2472
   1420.67139     655.8635     445.1685   1420.67139     655.8635     445.1685
   1420.65613     654.3443     443.5284   1420.65613     654.3443     443.5284
   1420.64087     655.1133     443.1248   1420.64087     655.1133     443.1248
   1420.62561     655.7556     442.8289   1420.62561     655.7556     442.8289
   1420.61035     655.2869     441.7805   1420.61035     655.2869     441.7805
   1420.59509     655.7052     441.6122   1420.59509     655.7052     441.6122
   1420.57983     655.5677     441.8363   1420.57983     655.5677     441.8363
   1420.56458     655.6475     440.9850   1420.56458     655.6475     440.9850
   1420.54932     657.6879     441.2174   1420.54932     657.6879     441.2174
   1420.53406     657.0021     441.5151   1420.53406     657.0021     441.5151
   1420.51880     658.5155     440.9033   1420.51880     658.5155     440.9033
   1420.50354     658.9691     440.7585   1420.50354     658.9691     440.7585
   1420.48828     657.4349     438.9548   1420.48828     657.4349     438.9548
   1420.47302     656.9811     437.9492   1420.47302     656.9811     437.9492
   1420.45776     657.0067     437.4358   1420.45776     657.0067     437.4358
   1420.44250     656.0885     437.3948   1420.44250     656.0885     437.3948
   1420.42725     655.4067     436.3303   1420.42725     655.4067     436.3303
   1420.41199     656.9998     435.5674   1420.41199     656.9998     435.5674
   1420.39673     657.7873     435.8149   1420.39673     657.7873     435.8149
   1420.38147     657.9357     435.7465   1420.38147     657.9357     435.7465
   1420.36621     659.2855     435.6406   1420.36621     659.2855     435.6406
   1420.35095     661.1147     436.9710   1420.35095     661.1147     436.9710
   1420.33569     664.9030     438.4875   1420.33569     664.9030     438.4875
   1420.32043     671.9372     441.9624   1420.32043     671.9372     441.9624
   1420.30518     682.8814     448.0127   1420.30518     682.8814     448.0127
   1420.28992     700.8760     457.6783   1420.28992     700.8760     457.6783
   1420.27466     734.3392     479.9389   1420.27466     734.3392     479.9389
   1420.25940     808.2116     524.7680   1420.25940     808.2116     524.7680
   1420.24414     933.8998     604.7834   1420.24414     933.8998     604.7834
   1420.22888    1182.8677     761.8617   1420.22888    1182.8677     761.8617
   1420.21362    1413.9874     907.6052   1420.21362    1413.9874     907.6052
   1420.19836    1747.0542    1115.9026   1420.19836    1747.0542    1115.9026
   1420.18311    1882.3226    1200.4302   1420.18311    1882.3226    1200.4302
   1420.16785    1623.3345    1033.0632   1420.16785    1623.3345    1033.0632
   1420.15259    1506.4467     962.8628   1420.15259    1506.4467     962.8628
   1420.13733    1665.5498    1059.9901   1420.13733    1665.5498    1059.9901
   1420.12207    1870.5854    1188.1368   1420.12207    1870.5854    1188.1368
   1420.10681    1921.2394    1221.1327   1420.10681    1921.2394    1221.1327
   1420.09155    1837.5491    1164.5283   1420.09155    1837.5491    1164.5283
   1420.07629    1825.6729    1156.3452   1420.07629    1825.6729    1156.3452
   1420.06104    1984.7179    1252.2538   1420.06104    1984.7179    1252.2538
   1420.04578    2163.4146    1360.7264   1420.04578    2163.4146    1360.7264
   1420.03052    2098.5808    1320.3369   1420.03052    2098.5808    1320.3369
   1420.01526    1735.2407    1095.3022   1420.01526    1735.2407    1095.3022
   1420.00000    1334.5848     846.1881   1420.00000    1334.5848     846.1881
   1419.98474     933.9288     597.0740   1419.98474     933.9288     597.0740
   1419.96948     813.1692     520.3068   1419.96948     813.1692     520.3068
   1419.95422     751.8370     481.2357   1419.95422     751.8370     481.2357
   1419.93896     718.2549     458.1952   1419.93896     718.2549     458.1952
   1419.92371     698.2924     445.6129   1419.92371     698.2924     445.6129
   1419.90845     681.0922     435.5257   1419.90845     681.0922     435.5257
   1419.89319     666.3329     425.2410   1419.89319     666.3329     425.2410
   1419.87793     659.6568     420.6517   1419.87793     659.6568     420.6517
   1419.86267     655.9216     417.1583   1419.86267     655.9216     417.1583
   1419.84741     652.6511     416.1816   1419.84741     652.6511     416.1816
   1419.83215     651.8818     414.5451   1419.83215     651.8818     414.5451
   1419.81689     650.0183     414.4179   1419.81689     650.0183     414.4179
   1419.80164     650.2474     412.7733   1419.80164     650.2474     412.7733
   1419.78638     648.0496     412.4273   1419.78638     648.0496     412.4273
   1419.77112     647.3986     411.1439   1419.77112     647.3986     411.1439
   1419.75586     648.0833     411.0197   1419.75586     648.0833     411.0197
   1419.74060     648.1048     411.1817   1419.74060     648.1048     411.1817
   1419.72534     647.4437     409.5575   1419.72534     647.4437     409.5575
   1419.71008     647.7221     408.9947   1419.71008     647.7221     408.9947
   1419.69482     647.5782     408.8509   1419.69482     647.5782     408.8509
   1419.67957     646.3801     408.4339   1419.67957     646.3801     408.4339
   1419.66431     645.9388     407.7825   1419.66431     645.9388     407.7825
   1419.64905     646.5731     408.1893   1419.64905     646.5731     408.1893
   1419.63379     647.1565     408.2548   1419.63379     647.1565     408.2548
   1419.61853     647.2924     407.4678   1419.61853     647.2924     407.4678
   1419.60327     646.6240     407.7653   1419.60327     646.6240     407.7653
   1419.58801     647.2846     406.6284   1419.58801     647.2846     406.6284
   1419.57275     646.7341     406.8013   1419.57275     646.7341     406.8013
   1419.55750     647.7849     406.5916   1419.55750     647.7849     406.5916
   1419.54224     647.9510     406.9292   1419.54224     647.9510     406.9292
   1419.52698     647.8826     406.5993   1419.52698     647.8826     406.5993
   1419.51172     648.0605     406.4589   1419.51172     648.0605     406.4589
   1419.49646     648.9043     406.6382   1419.49646     648.9043     406.6382
   1419.48120     649.4288     405.8544   1419.48120     649.4288     405.8544
   1419.46594     648.5889     406.0793   1419.46594     648.5889     406.0793
   1419.45068     648.1166     406.2866   1419.45068     648.1166     406.2866
   1419.43542     648.8256     406.1354   1419.43542     648.8256     406.1354
   1419.42017     649.6679     406.1552   1419.42017     649.6679     406.1552
   1419.40491     649.3286     406.2459   1419.40491     649.3286     406.2459
   1419.38965     649.6683     406.1063   1419.38965     649.6683     406.1063
   1419.37439     650.3576     405.9751   1419.37439     650.3576     405.9751
   1419.35913     650.5403     406.6932   1419.35913     650.5403     406.6932
   1419.34387     649.9513     406.3503   1419.34387     649.9513     406.3503
   1419.32861     651.2670     406.5427   1419.32861     651.2670     406.5427
   1419.31335     652.1079     406.3490   1419.31335     652.1079     406.3490
   1419.29810     653.2018     405.9881   1419.29810     653.2018     405.9881
   1419.28284     652.2462     405.8138   1419.28284     652.2462     405.8138
   1419.26758     653.8845     406.2690   1419.26758     653.8845     406.2690
   1419.25232     653.1855     406.7958   1419.25232     653.1855     406.7958
   1419.23706     653.0501     406.7084   1419.23706     653.0501     406.7084
   1419.22180     654.0368     406.9669   1419.22180     654.0368     406.9669
   1419.20654     653.3521     406.8097   1419.20654     653.3521     406.8097
   1419.19128     654.2672     407.2782   1419.19128     654.2672     407.2782
   1419.17603     655.1847     407.3175   1419.17603     655.1847     407.3175
   1419.16077     655.1989     407.9538   1419.16077     655.1989     407.9538
   1419.14551     655.4547     407.2937   1419.14551     655.4547     407.2937
   1419.13025     656.5103     407.2994   1419.13025     656.5103     407.2994
   1419.11499     656.4305     407.8892   1419.11499     656.4305     407.8892
   1419.09973     656.8187     408.2186   1419.09973     656.8187     408.2186
   1419.08447     657.3146     408.9625   1419.08447     657.3146     408.9625
   1419.06921     657.8055     408.3301   1419.06921     657.8055     408.3301
   1419.05396     658.8696     408.9967   1419.05396     658.8696     408.9967
   1419.03870     658.5891     409.6694   1419.03870     658.5891     409.6694
   1419.02344     660.8386     409.4576   1419.02344     660.8386     409.4576
   1419.00818     659.3456     409.1508   1419.00818     659.3456     409.1508
   1418.99292     660.0023     409.3915   1418.99292     660.0023     409.3915
   1418.97766     660.3710     410.0408   1418.97766     660.3710     410.0408
   1418.96240     661.4863     410.6575   1418.96240     661.4863     410.6575
   1418.94714     662.2734     410.6014   1418.94714     662.2734     410.6014
   1418.93188     662.4251     411.5389   1418.93188     662.4251     411.5389
   1418.91663     662.7449     411.6701   1418.91663     662.7449     411.6701
   1418.90137     663.2017     411.8651   1418.90137     663.2017     411.8651
   1418.88611     665.4190     411.5498   1418.88611     665.4190     411.5498
   1418.87085     665.7115     412.1476   1418.87085     665.7115     412.1476
   1418.85559     665.3608     412.3527   1418.85559     665.3608     412.3527
   1418.84033     664.6990     413.4459   1418.84033     664.6990     413.4459
   1418.82507     666.4434     413.2460   1418.82507     666.4434     413.2460
   1418.80981     667.7167     413.7461   1418.80981     667.7167     413.7461
   1418.79456     667.5066     413.9727   1418.79456     667.5066     413.9727
   1418.77930     668.5279     414.6414   1418.77930     668.5279     414.6414
   1418.76404     669.8051     414.8116   1418.76404     669.8051     414.8116
   1418.74878     670.1074     415.0948   1418.74878     670.1074     415.0948
   1418.73352     670.3095     416.1914   1418.73352     670.3095     416.1914
   1418.71826     670.6719     416.5804   1418.71826     670.6719     416.5804
   1418.70300     670.6900     417.1566   1418.70300     670.6900     417.1566
   1418.68774     672.4974     417.9392   1418.68774     672.4974     417.9392
   1418.67249     673.3159     417.8352   1418.67249     673.3159     417.8352
   1418.65723     673.3308     418.6483   1418.65723     673.3308     418.6483
   1418.64197     674.4173     418.8497   1418.64197     674.4173     418.8497
   1418.62671     674.3338     419.4548   1418.62671     674.3338     419.4548
   1418.61145     676.3502     419.2959   1418.61145     676.3502     419.2959
   1418.59619     675.3406     419.9342   1418.59619     675.3406     419.9342
   1418.58093     676.8970     421.2104   1418.58093     676.8970     421.2104
   1418.56567     676.7371     421.8710   1418.56567     676.7371     421.8710
   1418.55042     677.7311     421.9995   1418.55042     677.7311     421.9995
   1418.53516     678.5623     422.4231   1418.53516     678.5623     422.4231
   1418.51990     680.3479     423.5527   1418.51990     680.3479     423.5527
   1418.50464     680.4595     423.9861   1418.50464     680.4595     423.9861
   1418.48938     682.0522     424.5453   1418.48938     682.0522     424.5453
   1418.47412     682.1682     424.7438   1418.47412     682.1682     424.7438
   1418.45886     683.1747     425.9376   1418.45886     683.1747     425.9376
   1418.44360     683.9362     425.8484   1418.44360     683.9362     425.8484
   1418.42834     685.8849     426.6438   1418.42834     685.8849     426.6438
   1418.41309     684.8344     427.0208   1418.41309     684.8344     427.0208
   1418.39783     686.6891     428.1119   1418.39783     686.6891     428.1119
   1418.38257     686.6874     429.1472   1418.38257     686.6874     429.1472
   1418.36731     687.1590     429.5063   1418.36731     687.1590     429.5063
   1418.35205     689.1466     430.5126   1418.35205     689.1466     430.5126
   1418.33679     690.0933     430.9616   1418.33679     690.0933     430.9616
   1418.32153     690.3610     431.5771   1418.32153     690.3610     431.5771
   1418.30627     690.4879     432.0371   1418.30627     690.4879     432.0371
   1418.29102     691.3437     433.1610   1418.29102     691.3437     433.1610
   1418.27576     691.7694     433.4901   1418.27576     691.7694     433.4901
   1418.26050     694.3427     434.6945   1418.26050     694.3427     434.6945
   1418.24524     694.8843     434.4306   1418.24524     694.8843     434.4306
   1418.22998     695.4177     435.8418   1418.22998     695.4177     435.8418
   1418.21472     695.7686     436.4324   1418.21472     695.7686     436.4324
   1418.19946     697.4390     437.0298   1418.19946     697.4390     437.0298
   1418.18420     697.0588     438.1670   1418.18420     697.0588     438.1670
   1418.16895     697.9744     439.2274   1418.16895     697.9744     439.2274
   1418.15369     700.5645     440.1303   1418.15369     700.5645     440.1303
   1418.13843     699.9398     439.9541   1418.13843     699.9398     439.9541
   1418.12317     701.2816     441.2717   1418.12317     701.2816     441.2717
   1418.10791     703.0378     442.4532   1418.10791     703.0378     442.4532
   1418.09265     703.1395     442.5076   1418.09265     703.1395     442.5076
   1418.07739     704.1852     443.4984   1418.07739     704.1852     443.4984
   1418.06213     705.0141     443.8325   1418.06213     705.0141     443.8325
   1418.04688     706.7054     444.7888   1418.04688     706.7054     444.7888
   1418.03162     707.0730     445.5472   1418.03162     707.0730     445.5472
   1418.01636     707.8496     446.4656   1418.01636     707.8496     446.4656
   1418.00110     709.7079     446.8317   1418.00110     709.7079     446.8317
   1417.98584     709.9944     448.5388   1417.98584     709.9944     448.5388
   1417.97058     710.8851     449.2440   1417.97058     710.8851     449.2440
   1417.95532     711.2765     450.6493   1417.95532     711.2765     450.6493
   1417.94006     712.3927     450.8557   1417.94006     712.3927     450.8557
   1417.92480     713.1617     451.5985   1417.92480     713.1617     451.5985
   1417.90955     714.0305     452.7428   1417.90955     714.0305     452.7428
   1417.89429     715.4642     453.5252   1417.89429     715.4642     453.5252
   1417.87903     717.2999     454.1108   1417.87903     717.2999     454.1108
   1417.86377     717.4900     455.3294   1417.86377     717.4900     455.3294
   1417.84851     718.8627     455.8148   1417.84851     718.8627     455.8148
   1417.83325     720.1881     456.8489   1417.83325     720.1881     456.8489
   1417.81799     720.0623     457.5327   1417.81799     720.0623     457.5327
   1417.80273     721.0908     458.4769   1417.80273     721.0908     458.4769
   1417.78748     721.3482     458.9489   1417.78748     721.3482     458.9489
   1417.77222     723.3603     461.0589   1417.77222     723.3603     461.0589
   1417.75696     724.6426     460.9213   1417.75696     724.6426     460.9213
   1417.74170     724.8373     462.2641   1417.74170     724.8373     462.2641
   1417.72644     725.7032     462.5551   1417.72644     725.7032     462.5551
   1417.71118     726.7909     463.4492   1417.71118     726.7909     463.4492
   1417.69592     728.1206     464.4764   1417.69592     728.1206     464.4764
   1417.68066     728.4225     465.5625   1417.68066     728.4225     465.5625
   1417.66541     728.8777     466.5919   1417.66541     728.8777     466.5919
   1417.65015     730.0716     466.9627   1417.65015     730.0716     466.9627
   1417.63489     730.8681     468.0786   1417.63489     730.8681     468.0786
   1417.61963     732.0293     469.2334   1417.61963     732.0293     469.2334
   1417.60437     733.5317     470.0494   1417.60437     733.5317     470.0494
   1417.58911     733.3690     471.1070   1417.58911     733.3690     471.1070
   1417.57385     735.4324     472.1588   1417.57385     735.4324     472.1588
   1417.55859     737.1034     472.1326   1417.55859     737.1034     472.1326
   1417.54333     738.2688     473.7123   1417.54333     738.2688     473.7123
   1417.52808     738.4171     474.6797   1417.52808     738.4171     474.6797
   1417.51282     738.8176     475.1156   1417.51282     738.8176     475.1156
   1417.49756     740.6620     476.3166   1417.49756     740.6620     476.3166
   1417.48230     739.7318     476.8588   1417.48230     739.7318     476.8588
   1417.46704     740.7753     478.1908   1417.46704     740.7753     478.1908
   1417.45178     742.8962     478.8621   1417.45178     742.8962     478.8621
   1417.43652     743.2494     479.7715   1417.43652     743.2494     479.7715
   1417.42126     743.3013     480.7141   1417.42126     743.3013     480.7141
   1417.40601     745.2509     481.7820   1417.40601     745.2509     481.7820
   1417.39075     746.7716     482.0445   1417.39075     746.7716     482.0445
   1417.37549     746.6550     483.2330   1417.37549     746.6550     483.2330
   1417.36023     748.4677     483.8056   1417.36023     748.4677     483.8056
   1417.34497     746.8931     484.7003   1417.34497     746.8931     484.7003
   1417.32971     749.8069     486.0479   1417.32971     749.8069     486.0479
   1417.31445     750.1700     487.0627   1417.31445     750.1700     487.0627
   1417.29919     750.5340     487.3705   1417.29919     750.5340     487.3705
   1417.28394     750.7094     488.3102   1417.28394     750.7094     488.3102
   1417.26868     752.4545     489.4276   1417.26868     752.4545     489.4276
   1417.25342     752.7978     489.7420   1417.25342     752.7978     489.7420
   1417.23816     754.0530     490.6494   1417.23816     754.0530     490.6494
   1417.22290     755.0538     491.6844   1417.22290     755.0538     491.6844
   1417.20764     754.7405     491.7999   1417.20764     754.7405     491.7999
   1417.19238     755.6643     493.7435   1417.19238     755.6643     493.7435
   1417.17712     756.3868     494.6164   1417.17712     756.3868     494.6164
   1417.16187     756.7037     494.5582   1417.16187     756.7037     494.5582
   1417.14661     758.1822     495.3495   1417.14661     758.1822     495.3495
   1417.13135     759.7562     496.6861   1417.13135     759.7562     496.6861
   1417.11609     758.6347     496.5754   1417.11609     758.6347     496.5754
   1417.10083     760.2523     497.6120   1417.10083     760.2523     497.6120
   1417.08557     761.1696     499.3040   1417.08557     761.1696     499.3040
   1417.07031     762.7077     498.4311   1417.07031     762.7077     498.4311
   1417.05505     762.5110     499.9840   1417.05505     762.5110     499.9840
   1417.03979     762.3170     500.5748   1417.03979     762.3170     500.5748
   1417.02454     763.4696     501.0899   1417.02454     763.4696     501.0899
   1417.00928     764.2973     501.6836   1417.00928     764.2973     501.6836
   1416.99402     765.0371     502.2890   1416.99402     765.0371     502.2890
   1416.97876     764.8619     502.7742   1416.97876     764.8619     502.7742
   1416.96350     765.2717     503.3820   1416.96350     765.2717     503.3820
   1416.94824     766.6769     504.1907   1416.94824     766.6769     504.1907
   1416.93298     767.2718     505.3593   1416.93298     767.2718     505.3593
   1416.91772     768.5878     505.2372   1416.91772     768.5878     505.2372
   1416.90247     767.9821     506.0023   1416.90247     767.9821     506.0023
   1416.88721     768.6949     505.9795   1416.88721     768.6949     505.9795
   1416.87195     768.9554     507.1023   1416.87195     768.9554     507.1023
   1416.85669     769.3658     507.0360   1416.85669     769.3658     507.0360
   1416.84143     769.9785     507.8136   1416.84143     769.9785     507.8136
   1416.82617     769.6637     508.6327   1416.82617     769.6637     508.6327
   1416.81091     770.5222     508.4061   1416.81091     770.5222     508.4061
   1416.79565     772.0439     508.3745   1416.79565     772.0439     508.3745
   1416.78040     771.0726     509.5616   1416.78040     771.0726     509.5616
   1416.76514     771.8134     510.4740   1416.76514     771.8134     510.4740
   1416.74988     771.9609     510.5914   1416.74988     771.9609     510.5914
   1416.73462     771.9415     510.4552   1416.73462     771.9415     510.4552
   1416.71936     771.7651     511.0470   1416.71936     771.7651     511.0470
   1416.70410     772.0030     510.7927   1416.70410     772.0030     510.7927
   1416.68884     773.1337     511.0627   1416.68884     773.1337     511.0627
   1416.67358     774.7211     511.9770   1416.67358     774.7211     511.9770
   1416.65833     774.0112     511.5121   1416.65833     774.0112     511.5121
   1416.64307     772.8209     512.6985   1416.64307     772.8209     512.6985
   1416.62781     774.0044     511.6247   1416.62781     774.0044     511.6247
   1416.61255     773.0132     512.6283   1416.61255     773.0132     512.6283
   1416.59729     774.0190     512.9017   1416.59729     774.0190     512.9017
   1416.58203     773.2026     513.2391   1416.58203     773.2026     513.2391
   1416.56677     774.0365     513.4494   1416.56677     774.0365     513.4494
   1416.55151     774.0868     513.5031   1416.55151     774.0868     513.5031
   1416.53625     774.5369     512.7047   1416.53625     774.5369     512.7047
   1416.52100     774.7175     513.0516   1416.52100     774.7175     513.0516
   1416.50574     775.8824     513.3652   1416.50574     775.8824     513.3652
   1416.49048     775.2481     513.7418   1416.49048     775.2481     513.7418
   1416.47522     775.2578     513.1815   1416.47522     775.2578     513.1815
   1416.45996     775.2891     514.3798   1416.45996     775.2891     514.3798
   1416.44470     775.6440     513.4681   1416.44470     775.6440     513.4681
   1416.42944     774.5172     513.9752   1416.42944     774.5172     513.9752
   1416.41418     774.3704     513.3541   1416.41418     774.3704     513.3541
   1416.39893     774.2737     512.8382   1416.39893     774.2737     512.8382
   1416.38367     773.8980     513.2686   1416.38367     773.8980     513.2686
   1416.36841     774.3430     512.7206   1416.36841     774.3430     512.7206
   1416.35315     774.5762     513.3699   1416.35315     774.5762     513.3699
   1416.33789     774.2758     512.9777   1416.33789     774.2758     512.9777
   1416.32263     774.0969     511.6779   1416.32263     774.0969     511.6779
   1416.30737     772.9283     511.7278   1416.30737     772.9283     511.7278
   1416.29211     774.2239     512.8700   1416.29211     774.2239     512.8700
   1416.27686     774.1659     512.2319   1416.27686     774.1659     512.2319
   1416.26160     773.0225     511.8766   1416.26160     773.0225     511.8766
   1416.24634     772.9113     511.7599   1416.24634     772.9113     511.7599
   1416.23108     773.4915     511.3391   1416.23108     773.4915     511.3391
   1416.21582     773.3038     511.0701   1416.21582     773.3038     511.0701
   1416.20056     772.6780     511.1186   1416.20056     772.6780     511.1186
   1416.18530     771.8898     510.4863   1416.18530     771.8898     510.4863
   1416.17004     771.9814     510.1022   1416.17004     771.9814     510.1022
   1416.15479     771.8001     510.1378   1416.15479     771.8001     510.1378
   1416.13953     770.7210     509.2869   1416.13953     770.7210     509.2869
   1416.12427     770.9037     510.2000   1416.12427     770.9037     510.2000
   1416.10901     769.2395     508.7710   1416.10901     769.2395     508.7710
   1416.09375     770.8691     508.4792   1416.09375     770.8691     508.4792
   1416.07849     768.9813     509.3412   1416.07849     768.9813     509.3412
   1416.06323     768.9453     507.6851   1416.06323     768.9453     507.6851
   1416.04797     769.8458     507.5448   1416.04797     769.8458     507.5448
   1416.03271     769.1879     507.1368   1416.03271     769.1879     507.1368
   1416.01746     768.5813     506.7241   1416.01746     768.5813     506.7241
   1416.00220     768.2871     506.0138   1416.00220     768.2871     506.0138
   1415.98694     766.6397     506.3108   1415.98694     766.6397     506.3108
   1415.97168     766.1584     505.6427   1415.97168     766.1584     505.6427
   1415.95642     765.5587     504.8174   1415.95642     765.5587     504.8174
   1415.94116     766.2542     505.0484   1415.94116     766.2542     505.0484
   1415.92590     764.2684     505.0247   1415.92590     764.2684     505.0247
   1415.91064     764.4778     504.5450   1415.91064     764.4778     504.5450
   1415.89539     764.9224     503.7967   1415.89539     764.9224     503.7967
   1415.88013     763.1057     503.2234   1415.88013     763.1057     503.2234
   1415.86487     763.3741     502.6080   1415.86487     763.3741     502.6080
   1415.84961     762.0828     502.0674   1415.84961     762.0828     502.0674
   1415.83435     762.1403     502.0863   1415.83435     762.1403     502.0863
   1415.81909     761.6412     501.0771   1415.81909     761.6412     501.0771
   1415.80383     760.5414     501.0710   1415.80383     760.5414     501.0710
   1415.78857     760.6686     500.1987   1415.78857     760.6686     500.1987
   1415.77332     758.7327     500.0503   1415.77332     758.7327     500.0503
   1415.75806     760.0371     499.1421   1415.75806     760.0371     499.1421
   1415.74280     758.2437     498.9312   1415.74280     758.2437     498.9312
   1415.72754     756.7538     498.5433   1415.72754     756.7538     498.5433
   1415.71228     757.0933     498.1645   1415.71228     757.0933     498.1645
   1415.69702     755.4099     497.1952   1415.69702     755.4099     497.1952
   1415.68176     755.0801     496.2516   1415.68176     755.0801     496.2516
   1415.66650     755.9366     495.9667   1415.66650     755.9366     495.9667
   1415.65125     753.0619     495.8477   1415.65125     753.0619     495.8477
   1415.63599     753.5045     495.4913   1415.63599     753.5045     495.4913
   1415.62073     752.5273     494.5834   1415.62073     752.5273     494.5834
   1415.60547     750.9927     494.2352   1415.60547     750.9927     494.2352
   1415.59021     750.8672     493.7314   1415.59021     750.8672     493.7314
   1415.57495     749.7578     493.5445   1415.57495     749.7578     493.5445
   1415.55969     749.3715     492.2506   1415.55969     749.3715     492.2506
   1415.54443     747.1421     491.8886   1415.54443     747.1421     491.8886
   1415.52917     747.1926     490.9053   1415.52917     747.1926     490.9053
   1415.51392     746.3106     491.2250   1415.51392     746.3106     491.2250
   1415.49866     746.0016     488.8336   1415.49866     746.0016     488.8336
   1415.48340     744.8381     489.9437   1415.48340     744.8381     489.9437
   1415.46814     743.4026     488.6280   1415.46814     743.4026     488.6280
   1415.45288     742.8876     488.7329   1415.45288     742.8876     488.7329
   1415.43762     742.2942     487.4182   1415.43762     742.2942     487.4182
   1415.42236     740.1595     486.7647   1415.42236     740.1595     486.7647
   1415.40710     739.8984     485.9365   1415.40710     739.8984     485.9365
   1415.39185     738.7542     486.2923   1415.39185     738.7542     486.2923
   1415.37659     738.1375     484.6441   1415.37659     738.1375     484.6441
   1415.36133     737.5595     484.6403   1415.36133     737.5595     484.6403
   1415.34607     735.7285     484.1127   1415.34607     735.7285     484.1127
   1415.33081     734.2754     483.5051   1415.33081     734.2754     483.5051
   1415.31555     734.1434     482.9597   1415.31555     734.1434     482.9597
   1415.30029     732.1360     481.7628   1415.30029     732.1360     481.7628
   1415.28503     731.4052     481.2844   1415.28503     731.4052     481.2844
   1415.26978     730.3464     480.3138   1415.26978     730.3464     480.3138
   1415.25452     729.5205     478.6538   1415.25452     729.5205     478.6538
   1415.23926     728.6178     478.9555   1415.23926     728.6178     478.9555
   1415.22400     727.3148     478.1632   1415.22400     727.3148     478.1632
   1415.20874     725.2856     477.4537   1415.20874     725.2856     477.4537
   1415.19348     724.2728     475.8633   1415.19348     724.2728     475.8633
   1415.17822     724.2129     476.6603   1415.17822     724.2129     476.6603
   1415.16296     721.0639     474.7633   1415.16296     721.0639     474.7633
   1415.14771     720.0579     474.9731   1415.14771     720.0579     474.9731
   1415.13245     719.5643     473.5644   1415.13245     719.5643     473.5644
   1415.11719     718.2443     472.6658   1415.11719     718.2443     472.6658
   1415.10193     715.6997     471.8274   1415.10193     715.6997     471.8274
   1415.08667     715.2128     470.3617   1415.08667     715.2128     470.3617
   1415.07141     713.6750     469.8718   1415.07141     713.6750     469.8718
   1415.05615     712.8824     468.4149   1415.05615     712.8824     468.4149
   1415.04089     711.9505     468.1602   1415.04089     711.9505     468.1602
   1415.02563     709.7572     467.4108   1415.02563     709.7572     467.4108
   1415.01038     707.8674     466.4240   1415.01038     707.8674     466.4240
   1414.99512     707.2018     465.8748   1414.99512     707.2018     465.8748
   1414.97986     705.4323     465.1957   1414.97986     705.4323     465.1957
   1414.96460     703.1127     463.6309   1414.96460     703.1127     463.6309
   1414.94934     703.1216     463.3289   1414.94934     703.1216     463.3289
   1414.93408     700.9016     461.2313   1414.93408     700.9016     461.2313
   1414.91882     699.8109     461.2143   1414.91882     699.8109     461.2143
   1414.90356     696.1044     460.0187   1414.90356     696.1044     460.0187
   1414.88831     697.1413     459.6158   1414.88831     697.1413     459.6158
   1414.87305     693.9366     458.1877   1414.87305     693.9366     458.1877
   1414.85779     692.9310     457.3651   1414.85779     692.9310     457.3651
   1414.84253     690.8359     455.9625   1414.84253     690.8359     455.9625
   1414.82727     688.8172     454.7938   1414.82727     688.8172     454.7938
   1414.81201     687.8065     454.2938   1414.81201     687.8065     454.2938
   1414.79675     685.8082     452.7953   1414.79675     685.8082     452.7953
   1414.78149     684.3300     451.8740   1414.78149     684.3300     451.8740
   1414.76624     681.7588     450.6141   1414.76624     681.7588     450.6141
   1414.75098     679.6312     449.7494   1414.75098     679.6312     449.7494
   1414.73572     678.8334     448.2744   1414.73572     678.8334     448.2744
   1414.72046     677.2314     447.7090   1414.72046     677.2314     447.7090
   1414.70520     675.3710     447.4244   1414.70520     675.3710     447.4244
   1414.68994     672.6485     444.8904   1414.68994     672.6485     444.8904
   1414.67468     669.6597     443.9609   1414.67468     669.6597     443.9609
   1414.65942     668.4609     442.8517   1414.65942     668.4609     442.8517
   1414.64417     665.9617     441.7275   1414.64417     665.9617     441.7275
   1414.62891     664.1824     440.4198   1414.62891     664.1824     440.4198
   1414.61365     663.0416     439.1504   1414.61365     663.0416     439.1504
   1414.59839     660.4212     438.0631   1414.59839     660.4212     438.0631
   1414.58313     657.9893     436.7155   1414.58313     657.9893     436.7155
   1414.56787     655.6542     435.6945   1414.56787     655.6542     435.6945
   1414.55261     655.4678     433.3865   1414.55261     655.4678     433.3865
   1414.53735     653.0559     432.2913   1414.53735     653.0559     432.2913
   1414.52209     650.8403     431.4492   1414.52209     650.8403     431.4492
   1414.50684     648.6852     430.8247   1414.50684     648.6852     430.8247
   1414.49158     645.6895     429.4866   1414.49158     645.6895     429.4866
   1414.47632     644.5483     427.6537   1414.47632     644.5483     427.6537
   1414.46106     640.9179     426.6115   1414.46106     640.9179     426.6115
   1414.44580     639.1282     424.9805   1414.44580     639.1282     424.9805
   1414.43054     636.7195     423.6056   1414.43054     636.7195     423.6056
   1414.41528     635.4913     422.4067   1414.41528     635.4913     422.4067
   1414.40002     633.1212     421.7260   1414.40002     633.1212     421.7260
   1414.38477     631.0144     420.0397   1414.38477     631.0144     420.0397
   1414.36951     628.0609     417.6310   1414.36951     628.0609     417.6310
   1414.35425     625.4056     417.4011   1414.35425     625.4056     417.4011
   1414.33899     623.7153     415.5154   1414.33899     623.7153     415.5154
   1414.32373     621.0510     413.8052   1414.32373     621.0510     413.8052
   1414.30847     618.0961     412.6403   1414.30847     618.0961     412.6403
   1414.29321     615.3621     410.8198   1414.29321     615.3621     410.8198
   1414.27795     613.3775     409.7072   1414.27795     613.3775     409.7072
   1414.26270     611.0693     407.7560   1414.26270     611.0693     407.7560
   1414.24744     609.3771     407.1178   1414.24744     609.3771     407.1178
   1414.23218     606.7220     405.6918   1414.23218     606.7220     405.6918
   1414.21692     603.9712     404.0362   1414.21692     603.9712     404.0362
   1414.20166     601.4530     402.3579   1414.20166     601.4530     402.3579
   1414.18640     599.1124     401.1279   1414.18640     599.1124     401.1279
   1414.17114     595.7233     399.5860   1414.17114     595.7233     399.5860
   1414.15588     593.5715     398.0014   1414.15588     593.5715     398.0014
   1414.14062     591.0496     396.0501   1414.14062     591.0496     396.0501
   1414.12537     588.5817     394.8290   1414.12537     588.5817     394.8290
   1414.11011     586.2485     393.4388   1414.11011     586.2485     393.4388
   1414.09485     582.5240     391.1418   1414.09485     582.5240     391.1418
   1414.07959     580.6879     390.1271   1414.07959     580.6879     390.1271
   1414.06433     578.4999     388.2933   1414.06433     578.4999     388.2933
   1414.04907     575.4381     386.4281   1414.04907     575.4381     386.4281
   1414.03381     572.9219     384.9160   1414.03381     572.9219     384.9160
   1414.01855     571.4376     384.1742   1414.01855     571.4376     384.1742
   1414.00330     584.4116     389.4364   1414.00330     584.4116     389.4364
   1413.98804     565.6118     380.9625   1413.98804     565.6118     380.9625
   1413.97278     561.8745     378.5085   1413.97278     561.8745     378.5085
   1413.95752     559.0750     377.5085   1413.95752     559.0750     377.5085
   1413.94226     556.5942     375.2575   1413.94226     556.5942     375.2575
   1413.92700     553.8439     373.9796   1413.92700     553.8439     373.9796
   1413.91174     551.0182     372.0956   1413.91174     551.0182     372.0956
   1413.89648     549.3985     370.5507   1413.89648     549.3985     370.5507
   1413.88123     545.2068     369.0139   1413.88123     545.2068     369.0139
   1413.86597     543.4140     367.1221   1413.86597     543.4140     367.1221
   1413.85071     539.7030     364.9156   1413.85071     539.7030     364.9156
   1413.83545     536.7166     363.5550   1413.83545     536.7166     363.5550
   1413.82019     535.2456     362.0735   1413.82019     535.2456     362.0735
   1413.80493     531.8853     360.5934   1413.80493     531.8853     360.5934
   1413.78967     528.8628     358.6328   1413.78967     528.8628     358.6328
   1413.77441     526.1600     357.5562   1413.77441     526.1600     357.5562
   1413.75916     522.7905     355.7057   1413.75916     522.7905     355.7057
   1413.74390     520.2054     353.0619   1413.74390     520.2054     353.0619
   1413.72864     517.2559     351.9259   1413.72864     517.2559     351.9259
   1413.71338     514.9343     350.7005   1413.71338     514.9343     350.7005
   1413.69812     511.8585     348.1849   1413.69812     511.8585     348.1849
   1413.68286     508.4189     346.8413   1413.68286     508.4189     346.8413
   1413.66760     506.3749     345.2105   1413.66760     506.3749     345.2105
   1413.65234     503.5070     344.0043   1413.65234     503.5070     344.0043
   1413.63708     501.0319     342.1558   1413.63708     501.0319     342.1558
   1413.62183     498.1131     340.2090   1413.62183     498.1131     340.2090
   1413.60657     494.8416     339.0023   1413.60657     494.8416     339.0023
   1413.59131     492.5149     336.6055   1413.59131     492.5149     336.6055
   1413.57605     489.8646     335.3388   1413.57605     489.8646     335.3388
   1413.56079     486.5972     333.7270   1413.56079     486.5972     333.7270
   1413.54553     483.8488     332.0956   1413.54553     483.8488     332.0956
   1413.53027     481.0284     330.9680   1413.53027     481.0284     330.9680
   1413.51501     478.8888     328.6807   1413.51501     478.8888     328.6807
   1413.49976     476.0049     326.7988   1413.49976     476.0049     326.7988
   1413.48450     473.4934     325.3617   1413.48450     473.4934     325.3617
   1413.46924     470.4435     323.4136   1413.46924     470.4435     323.4136
   1413.45398     468.1302     322.1901   1413.45398     468.1302     322.1901
   1413.43872     464.9996     320.8878   1413.43872     464.9996     320.8878
   1413.42346     461.5193     318.7407   1413.42346     461.5193     318.7407
   1413.40820     459.6393     317.3068   1413.40820     459.6393     317.3068
   1413.39294     457.7334     315.8569   1413.39294     457.7334     315.8569
   1413.37769     455.7219     314.8353   1413.37769     455.7219     314.8353
   1413.36243     451.6149     313.2224   1413.36243     451.6149     313.2224
   1413.34717     449.3911     311.3699   1413.34717     449.3911     311.3699
   1413.33191     446.9460     309.3990   1413.33191     446.9460     309.3990
   1413.31665     444.2681     308.1570   1413.31665     444.2681     308.1570
   1413.30139     440.9935     306.3109   1413.30139     440.9935     306.3109
   1413.28613     438.6078     305.3453   1413.28613     438.6078     305.3453
   1413.27087     436.5356     303.4018   1413.27087     436.5356     303.4018
   1413.25562     434.1740     302.3702   1413.25562     434.1740     302.3702
   1413.24036     432.3247     301.0632   1413.24036     432.3247     301.0632
   1413.22510     429.7375     298.8053   1413.22510     429.7375     298.8053
   1413.20984     427.9323     297.8999   1413.20984     427.9323     297.8999
   1413.19458     424.3799     296.4444   1413.19458     424.3799     296.4444
   1413.17932     421.7962     295.0462   1413.17932     421.7962     295.0462
   1413.16406     419.3419     293.3481   1413.16406     419.3419     293.3481
   1413.14880     418.1870     291.9812   1413.14880     418.1870     291.9812
   1413.13354     415.3018     291.3767   1413.13354     415.3018     291.3767
   1413.11829     413.5877     290.0307   1413.11829     413.5877     290.0307
   1413.10303     410.4812     288.4078   1413.10303     410.4812     288.4078
   1413.08777     408.3058     287.0481   1413.08777     408.3058     287.0481
   1413.07251     406.3452     285.3483   1413.07251     406.3452     285.3483
   1413.05725     404.3745     284.9976   1413.05725     404.3745     284.9976
   1413.04199     402.5691     283.3201   1413.04199     402.5691     283.3201
   1413.02673     399.6862     282.0641   1413.02673     399.6862     282.0641
   1413.01147     398.3273     280.5220   1413.01147     398.3273     280.5220
   1412.99622     396.2031     279.4635   1412.99622     396.2031     279.4635
   1412.98096     393.8387     279.2328   1412.98096     393.8387     279.2328
   1412.96570     392.9752     277.8377   1412.96570     392.9752     277.8377
   1412.95044     390.7803     276.3042   1412.95044     390.7803     276.3042
   1412.93518     388.7530     275.2025   1412.93518     388.7530     275.2025
   1412.91992     386.9977     274.4516   1412.91992     386.9977     274.4516
   1412.90466     385.9453     273.0589   1412.90466     385.9453     273.0589
   1412.88940     383.9655     272.1418   1412.88940     383.9655     272.1418
   1412.87415     382.4973     271.3435   1412.87415     382.4973     271.3435
   1412.85889     380.6833     270.4545   1412.85889     380.6833     270.4545
   1412.84363     379.2266     269.6089   1412.84363     379.2266     269.6089
   1412.82837     376.0833     268.4742   1412.82837     376.0833     268.4742
   1412.81311     375.5340     267.7062   1412.81311     375.5340     267.7062
   1412.79785     373.7662     266.9286   1412.79785     373.7662     266.9286
   1412.78259     373.2729     266.0958   1412.78259     373.2729     266.0958
   1412.76733     371.3113     265.3661   1412.76733     371.3113     265.3661
   1412.75208     369.5418     264.6713   1412.75208     369.5418     264.6713
   1412.73682     368.7213     263.9500   1412.73682     368.7213     263.9500
   1412.72156     366.7319     263.3728   1412.72156     366.7319     263.3728
   1412.70630     366.2769     262.4247   1412.70630     366.2769     262.4247
   1412.69104     365.4358     261.8047   1412.69104     365.4358     261.8047
   1412.67578     364.1439     261.4318   1412.67578     364.1439     261.4318
   1412.66052     362.9220     260.9074   1412.66052     362.9220     260.9074
   1412.64526     362.1041     260.9559   1412.64526     362.1041     260.9559
   1412.63000     361.2943     259.8967   1412.63000     361.2943     259.8967
   1412.61475     360.0919     259.8882   1412.61475     360.0919     259.8882
   1412.59949     359.7688     259.0285   1412.59949     359.7688     259.0285
   1412.58423     358.1830     258.9454   1412.58423     358.1830     258.9454
   1412.56897     357.8756     258.5256   1412.56897     357.8756     258.5256
   1412.55371     357.1246     258.0386   1412.55371     357.1246     258.0386
   1412.53845     356.2763     257.7664   1412.53845     356.2763     257.7664
   1412.52319     355.7804     257.7138   1412.52319     355.7804     257.7138
   1412.50793     355.2149     257.6238   1412.50793     355.2149     257.6238
   1412.49268     354.9124     257.5233   1412.49268     354.9124     257.5233
   1412.47742     354.4124     257.1442   1412.47742     354.4124     257.1442
   1412.46216     353.8130     257.3975   1412.46216     353.8130     257.3975
   1412.44690     354.0645     256.7316   1412.44690     354.0645     256.7316
   1412.43164     353.5467     257.0569   1412.43164     353.5467     257.0569
   1412.41638     353.2937     257.2882   1412.41638     353.2937     257.2882
   1412.40112     352.7151     257.3711   1412.40112     352.7151     257.3711
   1412.38586     352.9798     257.1016   1412.38586     352.9798     257.1016
   1412.37061     353.0019     257.1081   1412.37061     353.0019     257.1081
   1412.35535     352.9621     257.5990   1412.35535     352.9621     257.5990
   1412.34009     352.5173     258.1215   1412.34009     352.5173     258.1215
   1412.32483     353.0252     258.2968   1412.32483     353.0252     258.2968
   1412.30957     352.6744     258.7452   1412.30957     352.6744     258.7452
   1412.29431     353.0392     258.7976   1412.29431     353.0392     258.7976
   1412.27905     353.4512     259.4123   1412.27905     353.4512     259.4123
   1412.26379     353.1490     259.6628   1412.26379     353.1490     259.6628
   1412.24854     353.9944     260.1744   1412.24854     353.9944     260.1744
   1412.23328     354.5568     260.9243   1412.23328     354.5568     260.9243
   1412.21802     354.5837     261.2658   1412.21802     354.5837     261.2658
   1412.20276     355.3467     261.6114   1412.20276     355.3467     261.6114