#     FILENAME=!Skynet_57528_lach-cc-206_20611_21053.cyb.fits
#     BASENAME=Skynet_57528_lach-cc-206_20611_21053
#     SRC_NAME=lach-cc-206
#     OBSERVER=ccmadison16_9505
#     DATE_OBS=2016-05-20T20:22:52.620
#        OBSID=20611
#      SCANNUM=21053
#          MJD=57528.8503
#          UTC=73462
#     SCANTYPE=track
#     DATAMODE=HIRES
#     TUNEFREQ=1420.0000
# Actual_FREQ1=1420.0000
# Actual_FREQ2=1420.0000
#    LO1Tuning=6870.000
#     RFFILTER=1355_1435
#        OBSBW=-15.6250
#        NCHAN=1024 
#        FOCUS=37.0709
#           RA=06:38:42.22
#          DEC=06:09:57.80
#      RA(hrs)=6.645100
#     DEC(deg)=6.166100
#    AZIM(deg)=188.559
#    ELEV(deg)=57.277
#     IFattens=10.00, 9.00
#      WARNING=None
#    TCAL_XL1=7.9635
#    TCAL_YR1=9.1340
#    TCAL_XL2=7.9635
#    TCAL_YR2=9.1340
#     TRX_XL1=11.7060
#     TRX_YR1=11.7060
#     TRX_XL2=11.7060
#     TRX_YR2=11.7060
#        TAVE=1.0000
#Freq1(MHz)          XL1          YR1  Freq2(MHz)          XL2          YR2 

   1427.81250     362.6613     267.3594   1427.81250     362.6613     267.3594
   1427.79724     362.5355     267.9962   1427.79724     362.5355     267.9962
   1427.78198     363.5517     269.0157   1427.78198     363.5517     269.0157
   1427.76672     364.7502     269.8418   1427.76672     364.7502     269.8418
   1427.75146     365.0510     270.7299   1427.75146     365.0510     270.7299
   1427.73621     365.8195     270.9150   1427.73621     365.8195     270.9150
   1427.72095     366.5459     272.6398   1427.72095     366.5459     272.6398
   1427.70569     367.5900     273.0070   1427.70569     367.5900     273.0070
   1427.69043     369.2128     274.2392   1427.69043     369.2128     274.2392
   1427.67517     369.5924     274.8143   1427.67517     369.5924     274.8143
   1427.65991     370.8759     275.7899   1427.65991     370.8759     275.7899
   1427.64465     371.4615     277.1433   1427.64465     371.4615     277.1433
   1427.62939     373.2348     278.8530   1427.62939     373.2348     278.8530
   1427.61414     373.9652     279.4273   1427.61414     373.9652     279.4273
   1427.59888     375.2938     280.8497   1427.59888     375.2938     280.8497
   1427.58362     376.7569     282.0267   1427.58362     376.7569     282.0267
   1427.56836     378.2586     283.2890   1427.56836     378.2586     283.2890
   1427.55310     379.2969     284.9250   1427.55310     379.2969     284.9250
   1427.53784     381.0903     285.9108   1427.53784     381.0903     285.9108
   1427.52258     382.5750     287.2542   1427.52258     382.5750     287.2542
   1427.50732     383.2372     288.6358   1427.50732     383.2372     288.6358
   1427.49207     384.9752     290.4173   1427.49207     384.9752     290.4173
   1427.47681     386.7943     291.5903   1427.47681     386.7943     291.5903
   1427.46155     389.5145     293.8672   1427.46155     389.5145     293.8672
   1427.44629     390.4881     294.8057   1427.44629     390.4881     294.8057
   1427.43103     392.1746     296.4699   1427.43103     392.1746     296.4699
   1427.41577     394.0257     298.3817   1427.41577     394.0257     298.3817
   1427.40051     395.9962     300.1472   1427.40051     395.9962     300.1472
   1427.38525     397.7346     301.6647   1427.38525     397.7346     301.6647
   1427.37000     399.4902     303.2000   1427.37000     399.4902     303.2000
   1427.35474     401.9884     304.9655   1427.35474     401.9884     304.9655
   1427.33948     403.9117     306.4698   1427.33948     403.9117     306.4698
   1427.32422     405.5125     308.8609   1427.32422     405.5125     308.8609
   1427.30896     407.8623     311.2683   1427.30896     407.8623     311.2683
   1427.29370     410.0445     312.2490   1427.29370     410.0445     312.2490
   1427.27844     412.7854     314.9318   1427.27844     412.7854     314.9318
   1427.26318     414.3986     316.5930   1427.26318     414.3986     316.5930
   1427.24792     417.0801     318.3585   1427.24792     417.0801     318.3585
   1427.23267     419.2468     320.7054   1427.23267     419.2468     320.7054
   1427.21741     421.2145     322.3848   1427.21741     421.2145     322.3848
   1427.20215     424.3115     324.4295   1427.20215     424.3115     324.4295
   1427.18689     426.1324     326.1834   1427.18689     426.1324     326.1834
   1427.17163     428.7876     329.1161   1427.17163     428.7876     329.1161
   1427.15637     431.5050     330.8980   1427.15637     431.5050     330.8980
   1427.14111     433.3267     332.9281   1427.14111     433.3267     332.9281
   1427.12585     436.2347     335.7466   1427.12585     436.2347     335.7466
   1427.11060     438.3274     337.5518   1427.11060     438.3274     337.5518
   1427.09534     441.2900     339.9271   1427.09534     441.2900     339.9271
   1427.08008     443.4258     342.0796   1427.08008     443.4258     342.0796
   1427.06482     446.3448     344.5605   1427.06482     446.3448     344.5605
   1427.04956     448.8010     346.9256   1427.04956     448.8010     346.9256
   1427.03430     451.2151     348.9310   1427.03430     451.2151     348.9310
   1427.01904     454.8996     351.8365   1427.01904     454.8996     351.8365
   1427.00378     457.9446     353.4675   1427.00378     457.9446     353.4675
   1426.98853     459.7137     356.4714   1426.98853     459.7137     356.4714
   1426.97327     462.9490     358.5953   1426.97327     462.9490     358.5953
   1426.95801     465.6216     361.0587   1426.95801     465.6216     361.0587
   1426.94275     468.0308     364.0449   1426.94275     468.0308     364.0449
   1426.92749     470.5133     365.6331   1426.92749     470.5133     365.6331
   1426.91223     473.0301     368.3190   1426.91223     473.0301     368.3190
   1426.89697     476.2613     370.9444   1426.89697     476.2613     370.9444
   1426.88171     479.7665     372.9049   1426.88171     479.7665     372.9049
   1426.86646     482.4017     375.3021   1426.86646     482.4017     375.3021
   1426.85120     484.8476     378.1856   1426.85120     484.8476     378.1856
   1426.83594     488.8720     380.4718   1426.83594     488.8720     380.4718
   1426.82068     490.0119     382.8517   1426.82068     490.0119     382.8517
   1426.80542     493.7461     385.1223   1426.80542     493.7461     385.1223
   1426.79016     497.0651     388.5710   1426.79016     497.0651     388.5710
   1426.77490     499.3151     390.5680   1426.77490     499.3151     390.5680
   1426.75964     502.8069     393.5850   1426.75964     502.8069     393.5850
   1426.74438     505.5862     395.9316   1426.74438     505.5862     395.9316
   1426.72913     508.4156     398.1223   1426.72913     508.4156     398.1223
   1426.71387     512.1509     401.1254   1426.71387     512.1509     401.1254
   1426.69861     514.6500     403.6432   1426.69861     514.6500     403.6432
   1426.68335     517.4109     405.9432   1426.68335     517.4109     405.9432
   1426.66809     520.4436     408.6847   1426.66809     520.4436     408.6847
   1426.65283     524.3374     411.2479   1426.65283     524.3374     411.2479
   1426.63757     526.7567     413.2321   1426.63757     526.7567     413.2321
   1426.62231     529.9406     419.0104   1426.62231     529.9406     419.0104
   1426.60706     532.3533     419.2635   1426.60706     532.3533     419.2635
   1426.59180     535.3521     421.7689   1426.59180     535.3521     421.7689
   1426.57654     538.8833     424.1530   1426.57654     538.8833     424.1530
   1426.56128     541.0134     426.9651   1426.56128     541.0134     426.9651
   1426.54602     544.6876     429.6136   1426.54602     544.6876     429.6136
   1426.53076     547.2747     432.0573   1426.53076     547.2747     432.0573
   1426.51550     550.6965     434.8358   1426.51550     550.6965     434.8358
   1426.50024     553.1863     437.0589   1426.50024     553.1863     437.0589
   1426.48499     555.9249     439.5886   1426.48499     555.9249     439.5886
   1426.46973     558.9887     442.0050   1426.46973     558.9887     442.0050
   1426.45447     561.6982     444.6593   1426.45447     561.6982     444.6593
   1426.43921     564.3640     448.0382   1426.43921     564.3640     448.0382
   1426.42395     567.7238     450.7083   1426.42395     567.7238     450.7083
   1426.40869     569.6937     452.5840   1426.40869     569.6937     452.5840
   1426.39343     573.0373     454.9202   1426.39343     573.0373     454.9202
   1426.37817     576.6948     457.5571   1426.37817     576.6948     457.5571
   1426.36292     578.9614     459.7899   1426.36292     578.9614     459.7899
   1426.34766     581.9869     462.5205   1426.34766     581.9869     462.5205
   1426.33240     583.7413     465.1069   1426.33240     583.7413     465.1069
   1426.31714     586.7802     467.1580   1426.31714     586.7802     467.1580
   1426.30188     588.9775     470.2166   1426.30188     588.9775     470.2166
   1426.28662     592.6326     472.3617   1426.28662     592.6326     472.3617
   1426.27136     595.0957     474.9468   1426.27136     595.0957     474.9468
   1426.25610     598.4211     478.0129   1426.25610     598.4211     478.0129
   1426.24084     599.4752     479.8032   1426.24084     599.4752     479.8032
   1426.22559     603.8361     481.4366   1426.22559     603.8361     481.4366
   1426.21033     606.6162     484.4932   1426.21033     606.6162     484.4932
   1426.19507     608.1559     486.3187   1426.19507     608.1559     486.3187
   1426.17981     611.2778     488.4643   1426.17981     611.2778     488.4643
   1426.16455     613.4363     491.5175   1426.16455     613.4363     491.5175
   1426.14929     616.6147     493.7581   1426.14929     616.6147     493.7581
   1426.13403     618.2994     496.2560   1426.13403     618.2994     496.2560
   1426.11877     621.0140     498.4385   1426.11877     621.0140     498.4385
   1426.10352     623.9531     501.0518   1426.10352     623.9531     501.0518
   1426.08826     626.0983     502.9680   1426.08826     626.0983     502.9680
   1426.07300     629.0283     504.6870   1426.07300     629.0283     504.6870
   1426.05774     630.9235     507.1335   1426.05774     630.9235     507.1335
   1426.04248     633.6619     509.7475   1426.04248     633.6619     509.7475
   1426.02722     635.5878     511.4203   1426.02722     635.5878     511.4203
   1426.01196     638.9164     513.6835   1426.01196     638.9164     513.6835
   1425.99670     639.5333     516.2236   1425.99670     639.5333     516.2236
   1425.98145     643.1754     518.0478   1425.98145     643.1754     518.0478
   1425.96619     645.6675     520.4309   1425.96619     645.6675     520.4309
   1425.95093     647.4120     523.1243   1425.95093     647.4120     523.1243
   1425.93567     649.8011     524.8859   1425.93567     649.8011     524.8859
   1425.92041     651.8581     526.0916   1425.92041     651.8581     526.0916
   1425.90515     653.7155     528.9828   1425.90515     653.7155     528.9828
   1425.88989     655.7606     530.0251   1425.88989     655.7606     530.0251
   1425.87463     656.8732     533.1700   1425.87463     656.8732     533.1700
   1425.85938     659.9982     535.0027   1425.85938     659.9982     535.0027
   1425.84412     662.2601     536.4770   1425.84412     662.2601     536.4770
   1425.82886     664.1630     538.3812   1425.82886     664.1630     538.3812
   1425.81360     665.7448     539.8218   1425.81360     665.7448     539.8218
   1425.79834     668.1027     543.2756   1425.79834     668.1027     543.2756
   1425.78308     669.5469     543.9449   1425.78308     669.5469     543.9449
   1425.76782     672.2289     546.0543   1425.76782     672.2289     546.0543
   1425.75256     673.0294     546.5516   1425.75256     673.0294     546.5516
   1425.73730     675.1189     549.3701   1425.73730     675.1189     549.3701
   1425.72205     676.4559     550.8706   1425.72205     676.4559     550.8706
   1425.70679     679.3163     554.3064   1425.70679     679.3163     554.3064
   1425.69153     681.0219     554.2323   1425.69153     681.0219     554.2323
   1425.67627     682.1782     556.1406   1425.67627     682.1782     556.1406
   1425.66101     682.3193     558.1744   1425.66101     682.3193     558.1744
   1425.64575     685.5203     559.3195   1425.64575     685.5203     559.3195
   1425.63049     686.6776     561.4670   1425.63049     686.6776     561.4670
   1425.61523     689.0219     563.0003   1425.61523     689.0219     563.0003
   1425.59998     690.1968     564.0940   1425.59998     690.1968     564.0940
   1425.58472     689.9733     566.0253   1425.58472     689.9733     566.0253
   1425.56946     693.5760     566.8007   1425.56946     693.5760     566.8007
   1425.55420     694.0339     568.9511   1425.55420     694.0339     568.9511
   1425.53894     695.3213     570.1013   1425.53894     695.3213     570.1013
   1425.52368     697.2576     571.8255   1425.52368     697.2576     571.8255
   1425.50842     698.2446     573.2815   1425.50842     698.2446     573.2815
   1425.49316     699.7670     574.4354   1425.49316     699.7670     574.4354
   1425.47791     701.0167     576.5023   1425.47791     701.0167     576.5023
   1425.46265     701.7690     578.3109   1425.46265     701.7690     578.3109
   1425.44739     703.6646     580.3586   1425.44739     703.6646     580.3586
   1425.43213     703.9022     580.9727   1425.43213     703.9022     580.9727
   1425.41687     707.0212     584.9203   1425.41687     707.0212     584.9203
   1425.40161     708.5530     583.6346   1425.40161     708.5530     583.6346
   1425.38635     707.9042     584.0963   1425.38635     707.9042     584.0963
   1425.37109     709.1608     585.8082   1425.37109     709.1608     585.8082
   1425.35583     710.9944     587.4484   1425.35583     710.9944     587.4484
   1425.34058     711.5443     588.7661   1425.34058     711.5443     588.7661
   1425.32532     712.4419     590.6023   1425.32532     712.4419     590.6023
   1425.31006     714.0284     591.4081   1425.31006     714.0284     591.4081
   1425.29480     714.0958     592.0460   1425.29480     714.0958     592.0460
   1425.27954     715.4120     593.9072   1425.27954     715.4120     593.9072
   1425.26428     716.1407     594.2346   1425.26428     716.1407     594.2346
   1425.24902     717.1746     594.9800   1425.24902     717.1746     594.9800
   1425.23376     717.3274     596.1069   1425.23376     717.3274     596.1069
   1425.21851     718.9345     598.1204   1425.21851     718.9345     598.1204
   1425.20325     718.8290     597.7716   1425.20325     718.8290     597.7716
   1425.18799     719.2043     599.4746   1425.18799     719.2043     599.4746
   1425.17273     720.5027     600.3697   1425.17273     720.5027     600.3697
   1425.15747     721.4731     602.4327   1425.15747     721.4731     602.4327
   1425.14221     721.6733     602.2243   1425.14221     721.6733     602.2243
   1425.12695     722.2642     603.7186   1425.12695     722.2642     603.7186
   1425.11169     723.6640     604.6770   1425.11169     723.6640     604.6770
   1425.09644     724.8552     605.6903   1425.09644     724.8552     605.6903
   1425.08118     723.8853     606.5886   1425.08118     723.8853     606.5886
   1425.06592     725.0946     607.8282   1425.06592     725.0946     607.8282
   1425.05066     726.7882     608.1365   1425.05066     726.7882     608.1365
   1425.03540     726.3367     607.7360   1425.03540     726.3367     607.7360
   1425.02014     727.6995     609.6641   1425.02014     727.6995     609.6641
   1425.00488     727.6169     611.2601   1425.00488     727.6169     611.2601
   1424.98962     727.8104     611.7508   1424.98962     727.8104     611.7508
   1424.97437     727.7878     612.5530   1424.97437     727.7878     612.5530
   1424.95911     727.8807     613.0895   1424.95911     727.8807     613.0895
   1424.94385     728.6418     613.7894   1424.94385     728.6418     613.7894
   1424.92859     728.3765     614.5165   1424.92859     728.3765     614.5165
   1424.91333     729.3855     613.8375   1424.91333     729.3855     613.8375
   1424.89807     730.2637     614.7863   1424.89807     730.2637     614.7863
   1424.88281     729.2822     615.7285   1424.88281     729.2822     615.7285
   1424.86755     729.9690     615.9120   1424.86755     729.9690     615.9120
   1424.85229     729.7495     616.6010   1424.85229     729.7495     616.6010
   1424.83704     730.1575     618.3071   1424.83704     730.1575     618.3071
   1424.82178     730.4411     617.8775   1424.82178     730.4411     617.8775
   1424.80652     730.8788     619.4399   1424.80652     730.8788     619.4399
   1424.79126     731.3323     618.6442   1424.79126     731.3323     618.6442
   1424.77600     731.5002     619.8655   1424.77600     731.5002     619.8655
   1424.76074     731.8113     620.1534   1424.76074     731.8113     620.1534
   1424.74548     732.4453     620.2543   1424.74548     732.4453     620.2543
   1424.73022     731.2874     621.4689   1424.73022     731.2874     621.4689
   1424.71497     731.0107     622.0281   1424.71497     731.0107     622.0281
   1424.69971     732.5669     621.9060   1424.69971     732.5669     621.9060
   1424.68445     731.5641     622.1545   1424.68445     731.5641     622.1545
   1424.66919     733.1411     622.9956   1424.66919     733.1411     622.9956
   1424.65393     731.8344     623.0821   1424.65393     731.8344     623.0821
   1424.63867     733.0349     623.8516   1424.63867     733.0349     623.8516
   1424.62341     732.5573     624.2602   1424.62341     732.5573     624.2602
   1424.60815     731.4605     624.2866   1424.60815     731.4605     624.2866
   1424.59290     733.4099     624.5105   1424.59290     733.4099     624.5105
   1424.57764     732.7774     625.5860   1424.57764     732.7774     625.5860
   1424.56238     733.0570     625.1904   1424.56238     733.0570     625.1904
   1424.54712     731.9338     625.6743   1424.54712     731.9338     625.6743
   1424.53186     732.2778     624.9980   1424.53186     732.2778     624.9980
   1424.51660     730.9854     625.9940   1424.51660     730.9854     625.9940
   1424.50134     731.2363     626.2350   1424.50134     731.2363     626.2350
   1424.48608     732.3298     625.3905   1424.48608     732.3298     625.3905
   1424.47083     732.1259     625.8923   1424.47083     732.1259     625.8923
   1424.45557     730.7800     627.2111   1424.45557     730.7800     627.2111
   1424.44031     730.7198     627.3463   1424.44031     730.7198     627.3463
   1424.42505     730.8856     625.6627   1424.42505     730.8856     625.6627
   1424.40979     731.2168     626.8889   1424.40979     731.2168     626.8889
   1424.39453     731.3668     627.1375   1424.39453     731.3668     627.1375
   1424.37927     731.4689     627.2172   1424.37927     731.4689     627.2172
   1424.36401     731.1936     626.4030   1424.36401     731.1936     626.4030
   1424.34875     730.6106     627.6450   1424.34875     730.6106     627.6450
   1424.33350     729.9225     627.1286   1424.33350     729.9225     627.1286
   1424.31824     728.9935     627.8062   1424.31824     728.9935     627.8062
   1424.30298     729.9569     627.9106   1424.30298     729.9569     627.9106
   1424.28772     729.1290     627.5534   1424.28772     729.1290     627.5534
   1424.27246     728.9694     627.7084   1424.27246     728.9694     627.7084
   1424.25720     728.8416     628.1968   1424.25720     728.8416     628.1968
   1424.24194     728.4113     628.0460   1424.24194     728.4113     628.0460
   1424.22668     727.6153     626.5438   1424.22668     727.6153     626.5438
   1424.21143     729.1520     626.9557   1424.21143     729.1520     626.9557
   1424.19617     728.2445     627.9337   1424.19617     728.2445     627.9337
   1424.18091     727.6910     627.4201   1424.18091     727.6910     627.4201
   1424.16565     727.2187     627.2944   1424.16565     727.2187     627.2944
   1424.15039     726.8671     626.5225   1424.15039     726.8671     626.5225
   1424.13513     728.4569     627.0345   1424.13513     728.4569     627.0345
   1424.11987     727.3082     627.2914   1424.11987     727.3082     627.2914
   1424.10461     725.9683     626.9329   1424.10461     725.9683     626.9329
   1424.08936     726.4311     626.8456   1424.08936     726.4311     626.8456
   1424.07410     725.1934     626.1817   1424.07410     725.1934     626.1817
   1424.05884     724.6584     626.1219   1424.05884     724.6584     626.1219
   1424.04358     725.5699     626.9380   1424.04358     725.5699     626.9380
   1424.02832     724.0386     626.5653   1424.02832     724.0386     626.5653
   1424.01306     724.2361     625.6821   1424.01306     724.2361     625.6821
   1423.99780     723.5002     625.8950   1423.99780     723.5002     625.8950
   1423.98254     724.4332     625.3462   1423.98254     724.4332     625.3462
   1423.96729     723.6008     625.6202   1423.96729     723.6008     625.6202
   1423.95203     723.5515     625.3948   1423.95203     723.5515     625.3948
   1423.93677     722.6282     625.3773   1423.93677     722.6282     625.3773
   1423.92151     722.6235     624.1579   1423.92151     722.6235     624.1579
   1423.90625     723.3185     624.2635   1423.90625     723.3185     624.2635
   1423.89099     720.3507     624.0143   1423.89099     720.3507     624.0143
   1423.87573     721.3016     623.3383   1423.87573     721.3016     623.3383
   1423.86047     720.3785     622.9247   1423.86047     720.3785     622.9247
   1423.84521     721.1687     623.0426   1423.84521     721.1687     623.0426
   1423.82996     720.7905     623.9971   1423.82996     720.7905     623.9971
   1423.81470     719.4810     623.1547   1423.81470     719.4810     623.1547
   1423.79944     719.2511     621.9438   1423.79944     719.2511     621.9438
   1423.78418     718.4498     621.5770   1423.78418     718.4498     621.5770
   1423.76892     718.9694     621.6420   1423.76892     718.9694     621.6420
   1423.75366     718.3774     621.0775   1423.75366     718.3774     621.0775
   1423.73840     718.3544     620.5711   1423.73840     718.3544     620.5711
   1423.72314     716.4782     619.5175   1423.72314     716.4782     619.5175
   1423.70789     717.6889     619.8298   1423.70789     717.6889     619.8298
   1423.69263     716.5702     619.5643   1423.69263     716.5702     619.5643
   1423.67737     717.7021     619.6950   1423.67737     717.7021     619.6950
   1423.66211     715.9941     619.3712   1423.66211     715.9941     619.3712
   1423.64685     715.7701     618.8887   1423.64685     715.7701     618.8887
   1423.63159     715.6049     618.7071   1423.63159     715.6049     618.7071
   1423.61633     715.1523     616.8024   1423.61633     715.1523     616.8024
   1423.60107     715.3226     617.2845   1423.60107     715.3226     617.2845
   1423.58582     714.6574     616.8382   1423.58582     714.6574     616.8382
   1423.57056     714.2213     616.0707   1423.57056     714.2213     616.0707
   1423.55530     713.4135     615.3797   1423.55530     713.4135     615.3797
   1423.54004     713.7350     614.9838   1423.54004     713.7350     614.9838
   1423.52478     713.1744     615.5568   1423.52478     713.1744     615.5568
   1423.50952     713.2104     614.5176   1423.50952     713.2104     614.5176
   1423.49426     712.1761     613.4998   1423.49426     712.1761     613.4998
   1423.47900     712.5902     613.4669   1423.47900     712.5902     613.4669
   1423.46375     712.1011     613.3128   1423.46375     712.1011     613.3128
   1423.44849     711.7188     612.7065   1423.44849     711.7188     612.7065
   1423.43323     711.1895     611.9263   1423.43323     711.1895     611.9263
   1423.41797     711.0516     612.0692   1423.41797     711.0516     612.0692
   1423.40271     711.4614     611.7123   1423.40271     711.4614     611.7123
   1423.38745     710.4536     611.1761   1423.38745     710.4536     611.1761
   1423.37219     709.8015     610.2120   1423.37219     709.8015     610.2120
   1423.35693     708.8745     609.7542   1423.35693     708.8745     609.7542
   1423.34167     708.6437     608.2919   1423.34167     708.6437     608.2919
   1423.32642     708.0042     608.8293   1423.32642     708.0042     608.8293
   1423.31116     708.9691     607.2536   1423.31116     708.9691     607.2536
   1423.29590     707.9208     607.5767   1423.29590     707.9208     607.5767
   1423.28064     707.7335     606.5904   1423.28064     707.7335     606.5904
   1423.26538     706.8075     605.8191   1423.26538     706.8075     605.8191
   1423.25012     707.5004     605.3294   1423.25012     707.5004     605.3294
   1423.23486     706.2802     605.2087   1423.23486     706.2802     605.2087
   1423.21960     706.9329     604.0560   1423.21960     706.9329     604.0560
   1423.20435     706.7965     602.9814   1423.20435     706.7965     602.9814
   1423.18909     705.7930     602.9465   1423.18909     705.7930     602.9465
   1423.17383     705.4604     601.8973   1423.17383     705.4604     601.8973
   1423.15857     706.1073     600.7572   1423.15857     706.1073     600.7572
   1423.14331     703.8618     600.2234   1423.14331     703.8618     600.2234
   1423.12805     704.1063     601.2226   1423.12805     704.1063     601.2226
   1423.11279     704.8013     599.8258   1423.11279     704.8013     599.8258
   1423.09753     704.9462     598.4607   1423.09753     704.9462     598.4607
   1423.08228     704.0566     599.6808   1423.08228     704.0566     599.6808
   1423.06702     703.0587     597.1509   1423.06702     703.0587     597.1509
   1423.05176     703.7073     596.7486   1423.05176     703.7073     596.7486
   1423.03650     703.0517     596.3051   1423.03650     703.0517     596.3051
   1423.02124     702.1992     594.9959   1423.02124     702.1992     594.9959
   1423.00598     702.7358     594.4303   1423.00598     702.7358     594.4303
   1422.99072     702.0355     593.7050   1422.99072     702.0355     593.7050
   1422.97546     700.9655     593.2614   1422.97546     700.9655     593.2614
   1422.96021     700.7071     592.3630   1422.96021     700.7071     592.3630
   1422.94495     700.9719     591.5429   1422.94495     700.9719     591.5429
   1422.92969     701.0284     591.3278   1422.92969     701.0284     591.3278
   1422.91443     700.9678     590.7380   1422.91443     700.9678     590.7380
   1422.89917     700.3128     590.2332   1422.89917     700.3128     590.2332
   1422.88391     700.6548     588.6971   1422.88391     700.6548     588.6971
   1422.86865     699.6631     587.9370   1422.86865     699.6631     587.9370
   1422.85339     699.6618     587.4240   1422.85339     699.6618     587.4240
   1422.83813     699.8970     586.6497   1422.83813     699.8970     586.6497
   1422.82288     698.6476     586.2156   1422.82288     698.6476     586.2156
   1422.80762     700.0173     585.4947   1422.80762     700.0173     585.4947
   1422.79236     698.5916     584.8470   1422.79236     698.5916     584.8470
   1422.77710     698.1187     584.0551   1422.77710     698.1187     584.0551
   1422.76184     698.1495     582.4264   1422.76184     698.1495     582.4264
   1422.74658     698.4311     581.6920   1422.74658     698.4311     581.6920
   1422.73132     697.0123     581.7615   1422.73132     697.0123     581.7615
   1422.71606     697.2511     580.5731   1422.71606     697.2511     580.5731
   1422.70081     696.8641     580.0323   1422.70081     696.8641     580.0323
   1422.68555     696.4545     579.1817   1422.68555     696.4545     579.1817
   1422.67029     696.7764     578.7560   1422.67029     696.7764     578.7560
   1422.65503     696.9424     577.4753   1422.65503     696.9424     577.4753
   1422.63977     697.1555     577.6569   1422.63977     697.1555     577.6569
   1422.62451     695.8839     575.3655   1422.62451     695.8839     575.3655
   1422.60925     695.8448     574.0872   1422.60925     695.8448     574.0872
   1422.59399     695.2200     574.4499   1422.59399     695.2200     574.4499
   1422.57874     695.3099     572.5929   1422.57874     695.3099     572.5929
   1422.56348     693.6484     571.5658   1422.56348     693.6484     571.5658
   1422.54822     694.1921     570.6606   1422.54822     694.1921     570.6606
   1422.53296     694.7686     570.8660   1422.53296     694.7686     570.8660
   1422.51770     694.8513     569.8651   1422.51770     694.8513     569.8651
   1422.50244     692.8500     568.6826   1422.50244     692.8500     568.6826
   1422.48718     693.5105     568.1227   1422.48718     693.5105     568.1227
   1422.47192     692.2856     566.7950   1422.47192     692.2856     566.7950
   1422.45667     692.9164     566.0205   1422.45667     692.9164     566.0205
   1422.44141     693.4612     564.9351   1422.44141     693.4612     564.9351
   1422.42615     692.8766     563.5918   1422.42615     692.8766     563.5918
   1422.41089     692.6968     564.5483   1422.41089     692.6968     564.5483
   1422.39563     692.1998     562.6413   1422.39563     692.1998     562.6413
   1422.38037     691.7025     561.8084   1422.38037     691.7025     561.8084
   1422.36511     691.2009     561.2505   1422.36511     691.2009     561.2505
   1422.34985     692.2958     560.3116   1422.34985     692.2958     560.3116
   1422.33459     691.9528     559.2748   1422.33459     691.9528     559.2748
   1422.31934     691.5979     558.3643   1422.31934     691.5979     558.3643
   1422.30408     691.0035     557.5366   1422.30408     691.0035     557.5366
   1422.28882     691.1857     556.2375   1422.28882     691.1857     556.2375
   1422.27356     690.0546     555.1161   1422.27356     690.0546     555.1161
   1422.25830     690.3383     554.5414   1422.25830     690.3383     554.5414
   1422.24304     690.6998     553.8221   1422.24304     690.6998     553.8221
   1422.22778     691.1030     552.2579   1422.22778     691.1030     552.2579
   1422.21252     690.4432     552.3716   1422.21252     690.4432     552.3716
   1422.19727     689.5274     550.4560   1422.19727     689.5274     550.4560
   1422.18201     690.1306     550.0731   1422.18201     690.1306     550.0731
   1422.16675     689.9634     548.5764   1422.16675     689.9634     548.5764
   1422.15149     689.6612     547.9520   1422.15149     689.6612     547.9520
   1422.13623     688.2084     547.6890   1422.13623     688.2084     547.6890
   1422.12097     689.0696     546.3688   1422.12097     689.0696     546.3688
   1422.10571     689.0565     545.6080   1422.10571     689.0565     545.6080
   1422.09045     688.8161     544.3452   1422.09045     688.8161     544.3452
   1422.07520     687.9758     543.1633   1422.07520     687.9758     543.1633
   1422.05994     688.7747     542.3164   1422.05994     688.7747     542.3164
   1422.04468     687.7376     540.9549   1422.04468     687.7376     540.9549
   1422.02942     687.6609     540.0331   1422.02942     687.6609     540.0331
   1422.01416     687.3946     539.2394   1422.01416     687.3946     539.2394
   1421.99890     684.9656     538.3348   1421.99890     684.9656     538.3348
   1421.98364     686.6740     537.8534   1421.98364     686.6740     537.8534
   1421.96838     686.9043     536.6127   1421.96838     686.9043     536.6127
   1421.95312     686.1852     535.6647   1421.95312     686.1852     535.6647
   1421.93787     686.2073     535.3912   1421.93787     686.2073     535.3912
   1421.92261     685.4844     534.4980   1421.92261     685.4844     534.4980
   1421.90735     685.5882     532.4917   1421.90735     685.5882     532.4917
   1421.89209     685.7230     531.9180   1421.89209     685.7230     531.9180
   1421.87683     685.6641     531.3578   1421.87683     685.6641     531.3578
   1421.86157     686.0247     529.1922   1421.86157     686.0247     529.1922
   1421.84631     684.2206     528.9662   1421.84631     684.2206     528.9662
   1421.83105     685.4233     527.8086   1421.83105     685.4233     527.8086
   1421.81580     685.0389     526.0007   1421.81580     685.0389     526.0007
   1421.80054     683.4998     526.5095   1421.80054     683.4998     526.5095
   1421.78528     684.1595     525.3204   1421.78528     684.1595     525.3204
   1421.77002     684.0789     523.5155   1421.77002     684.0789     523.5155
   1421.75476     683.9139     522.5728   1421.75476     683.9139     522.5728
   1421.73950     683.4127     521.4643   1421.73950     683.4127     521.4643
   1421.72424     683.6928     521.4125   1421.72424     683.6928     521.4125
   1421.70898     683.3904     519.6089   1421.70898     683.3904     519.6089
   1421.69373     684.1161     518.4739   1421.69373     684.1161     518.4739
   1421.67847     683.0020     517.0590   1421.67847     683.0020     517.0590
   1421.66321     681.9085     516.3699   1421.66321     681.9085     516.3699
   1421.64795     681.3243     516.1953   1421.64795     681.3243     516.1953
   1421.63269     681.6761     514.7512   1421.63269     681.6761     514.7512
   1421.61743     682.1863     513.5150   1421.61743     682.1863     513.5150
   1421.60217     681.5298     513.7019   1421.60217     681.5298     513.7019
   1421.58691     681.3962     511.5166   1421.58691     681.3962     511.5166
   1421.57166     681.4764     511.0262   1421.57166     681.4764     511.0262
   1421.55640     679.8966     509.9261   1421.55640     679.8966     509.9261
   1421.54114     679.9651     508.2509   1421.54114     679.9651     508.2509
   1421.52588     680.2111     507.8498   1421.52588     680.2111     507.8498
   1421.51062     680.2676     506.8062   1421.51062     680.2676     506.8062
   1421.49536     679.4566     505.9572   1421.49536     679.4566     505.9572
   1421.48010     678.9869     505.1737   1421.48010     678.9869     505.1737
   1421.46484     678.3992     503.5534   1421.46484     678.3992     503.5534
   1421.44958     678.1231     502.5360   1421.44958     678.1231     502.5360
   1421.43433     678.9763     501.8518   1421.43433     678.9763     501.8518
   1421.41907     678.9688     501.3699   1421.41907     678.9688     501.3699
   1421.40381     678.8925     498.8005   1421.40381     678.8925     498.8005
   1421.38855     679.0366     498.5869   1421.38855     679.0366     498.5869
   1421.37329     677.4422     497.5844   1421.37329     677.4422     497.5844
   1421.35803     678.4636     497.3969   1421.35803     678.4636     497.3969
   1421.34277     678.0254     495.5974   1421.34277     678.0254     495.5974
   1421.32751     677.9243     494.6342   1421.32751     677.9243     494.6342
   1421.31226     677.3155     493.3551   1421.31226     677.3155     493.3551
   1421.29700     676.8758     492.6020   1421.29700     676.8758     492.6020
   1421.28174     676.0129     492.1958   1421.28174     676.0129     492.1958
   1421.26648     676.2057     490.9448   1421.26648     676.2057     490.9448
   1421.25122     676.0461     488.7039   1421.25122     676.0461     488.7039
   1421.23596     676.1794     488.9621   1421.23596     676.1794     488.9621
   1421.22070     676.0615     487.2411   1421.22070     676.0615     487.2411
   1421.20544     675.2573     487.0571   1421.20544     675.2573     487.0571
   1421.19019     674.3179     485.0313   1421.19019     674.3179     485.0313
   1421.17493     674.4993     484.9717   1421.17493     674.4993     484.9717
   1421.15967     673.8629     482.8476   1421.15967     673.8629     482.8476
   1421.14441     673.4705     482.2002   1421.14441     673.4705     482.2002
   1421.12915     673.2048     481.7424   1421.12915     673.2048     481.7424
   1421.11389     673.6847     480.1919   1421.11389     673.6847     480.1919
   1421.09863     673.4559     479.3848   1421.09863     673.4559     479.3848
   1421.08337     672.1156     478.3700   1421.08337     672.1156     478.3700
   1421.06812     672.3854     477.1149   1421.06812     672.3854     477.1149
   1421.05286     672.1064     476.3370   1421.05286     672.1064     476.3370
   1421.03760     673.4094     475.9122   1421.03760     673.4094     475.9122
   1421.02234     671.4282     475.0126   1421.02234     671.4282     475.0126
   1421.00708     672.3499     474.0394   1421.00708     672.3499     474.0394
   1420.99182     672.9360     472.8118   1420.99182     672.9360     472.8118
   1420.97656     671.3450     472.5735   1420.97656     671.3450     472.5735
   1420.96130     670.3994     470.3891   1420.96130     670.3994     470.3891
   1420.94604     671.5581     470.0332   1420.94604     671.5581     470.0332
   1420.93079     669.8000     468.6829   1420.93079     669.8000     468.6829
   1420.91553     671.1115     467.4511   1420.91553     671.1115     467.4511
   1420.90027     669.6212     467.9594   1420.90027     669.6212     467.9594
   1420.88501     670.0759     466.7247   1420.88501     670.0759     466.7247
   1420.86975     669.7192     465.0035   1420.86975     669.7192     465.0035
   1420.85449     670.6077     464.7490   1420.85449     670.6077     464.7490
   1420.83923     669.8865     463.4919   1420.83923     669.8865     463.4919
   1420.82397     669.8293     463.0923   1420.82397     669.8293     463.0923
   1420.80872     669.4428     461.4889   1420.80872     669.4428     461.4889
   1420.79346     669.2984     461.0130   1420.79346     669.2984     461.0130
   1420.77820     669.2708     460.2403   1420.77820     669.2708     460.2403
   1420.76294     668.4221     460.0456   1420.76294     668.4221     460.0456
   1420.74768     669.6229     458.5869   1420.74768     669.6229     458.5869
   1420.73242     669.4030     458.1359   1420.73242     669.4030     458.1359
   1420.71716     667.8245     457.5331   1420.71716     667.8245     457.5331
   1420.70190     669.8348     456.7023   1420.70190     669.8348     456.7023
   1420.68665     668.1286     456.2928   1420.68665     668.1286     456.2928
   1420.67139     668.4086     455.2790   1420.67139     668.4086     455.2790
   1420.65613     668.6816     454.2916   1420.65613     668.6816     454.2916
   1420.64087     668.2859     452.8303   1420.64087     668.2859     452.8303
   1420.62561     668.3093     453.4091   1420.62561     668.3093     453.4091
   1420.61035     669.4315     451.7729   1420.61035     669.4315     451.7729
   1420.59509     669.6805     451.3586   1420.59509     669.6805     451.3586
   1420.57983     669.7007     451.0820   1420.57983     669.7007     451.0820
   1420.56458     669.2996     450.7973   1420.56458     669.2996     450.7973
   1420.54932     670.2859     449.9359   1420.54932     670.2859     449.9359
   1420.53406     672.4778     449.7543   1420.53406     672.4778     449.7543
   1420.51880     672.3915     450.4901   1420.51880     672.3915     450.4901
   1420.50354     672.1355     449.1157   1420.50354     672.1355     449.1157
   1420.48828     671.2476     448.0620   1420.48828     671.2476     448.0620
   1420.47302     670.2380     446.4376   1420.47302     670.2380     446.4376
   1420.45776     670.1071     446.5659   1420.45776     670.1071     446.5659
   1420.44250     671.3269     445.9497   1420.44250     671.3269     445.9497
   1420.42725     670.4377     445.5230   1420.42725     670.4377     445.5230
   1420.41199     670.7566     445.1986   1420.41199     670.7566     445.1986
   1420.39673     672.7084     444.8056   1420.39673     672.7084     444.8056
   1420.38147     673.6351     445.4702   1420.38147     673.6351     445.4702
   1420.36621     675.8981     446.2027   1420.36621     675.8981     446.2027
   1420.35095     680.6030     448.3102   1420.35095     680.6030     448.3102
   1420.33569     687.3221     452.0308   1420.33569     687.3221     452.0308
   1420.32043     700.2067     460.1454   1420.32043     700.2067     460.1454
   1420.30518     727.1630     475.1768   1420.30518     727.1630     475.1768
   1420.28992     767.1592     500.7166   1420.28992     767.1592     500.7166
   1420.27466     826.8163     536.2309   1420.27466     826.8163     536.2309
   1420.25940     910.8901     588.2476   1420.25940     910.8901     588.2476
   1420.24414    1097.6285     705.9118   1420.24414    1097.6285     705.9118
   1420.22888    1328.0820     851.3492   1420.22888    1328.0820     851.3492
   1420.21362    1534.4697     977.8965   1420.21362    1534.4697     977.8965
   1420.19836    1624.7703    1033.1542   1420.19836    1624.7703    1033.1542
   1420.18311    1595.6862    1013.7145   1420.18311    1595.6862    1013.7145
   1420.16785    1619.3156    1030.4594   1420.16785    1619.3156    1030.4594
   1420.15259    1937.1714    1227.5034   1420.15259    1937.1714    1227.5034
   1420.13733    1881.2189    1187.8074   1420.13733    1881.2189    1187.8074
   1420.12207    1866.2053    1177.1393   1420.12207    1866.2053    1177.1393
   1420.10681    1901.0853    1199.5664   1420.10681    1901.0853    1199.5664
   1420.09155    2061.4338    1298.3567   1420.09155    2061.4338    1298.3567
   1420.07629    2235.9248    1402.0167   1420.07629    2235.9248    1402.0167
   1420.06104    2158.7087    1356.1350   1420.06104    2158.7087    1356.1350
   1420.04578    1901.0103    1192.8774   1420.04578    1901.0103    1192.8774
   1420.03052    1539.4420     969.3597   1420.03052    1539.4420     969.3597
   1420.01526    1161.3229     734.3090   1420.01526    1161.3229     734.3090
   1420.00000     990.9117     628.6575   1420.00000     990.9117     628.6575
   1419.98474     820.5009     523.0058   1419.98474     820.5009     523.0058
   1419.96948     749.6716     478.1896   1419.96948     749.6716     478.1896
   1419.95422     712.7776     453.7852   1419.95422     712.7776     453.7852
   1419.93896     694.0193     442.0562   1419.93896     694.0193     442.0562
   1419.92371     682.0381     433.7685   1419.92371     682.0381     433.7685
   1419.90845     674.9891     429.3673   1419.90845     674.9891     429.3673
   1419.89319     670.8694     426.6782   1419.89319     670.8694     426.6782
   1419.87793     667.8031     423.9665   1419.87793     667.8031     423.9665
   1419.86267     665.2055     422.5855   1419.86267     665.2055     422.5855
   1419.84741     664.2810     420.6963   1419.84741     664.2810     420.6963
   1419.83215     663.1206     419.2213   1419.83215     663.1206     419.2213
   1419.81689     662.0192     418.1632   1419.81689     662.0192     418.1632
   1419.80164     661.7797     417.8977   1419.80164     661.7797     417.8977
   1419.78638     661.9529     417.2216   1419.78638     661.9529     417.2216
   1419.77112     661.1618     417.2532   1419.77112     661.1618     417.2532
   1419.75586     660.3257     417.0330   1419.75586     660.3257     417.0330
   1419.74060     660.7925     415.6964   1419.74060     660.7925     415.6964
   1419.72534     660.1201     415.5017   1419.72534     660.1201     415.5017
   1419.71008     660.3507     415.2096   1419.71008     660.3507     415.2096
   1419.69482     660.9636     414.5509   1419.69482     660.9636     414.5509
   1419.67957     660.0952     414.6200   1419.67957     660.0952     414.6200
   1419.66431     660.7064     413.7053   1419.66431     660.7064     413.7053
   1419.64905     660.7790     413.6890   1419.64905     660.7790     413.6890
   1419.63379     661.2285     413.3318   1419.63379     661.2285     413.3318
   1419.61853     660.9095     413.1750   1419.61853     660.9095     413.1750
   1419.60327     660.6091     412.7497   1419.60327     660.6091     412.7497
   1419.58801     661.2455     412.6094   1419.58801     661.2455     412.6094
   1419.57275     661.2917     412.4530   1419.57275     661.2917     412.4530
   1419.55750     661.7684     412.4789   1419.55750     661.7684     412.4789
   1419.54224     662.0398     412.1061   1419.54224     662.0398     412.1061
   1419.52698     662.2052     412.7015   1419.52698     662.2052     412.7015
   1419.51172     661.6895     412.1602   1419.51172     661.6895     412.1602
   1419.49646     662.2625     411.8031   1419.49646     662.2625     411.8031
   1419.48120     662.8590     411.8235   1419.48120     662.8590     411.8235
   1419.46594     663.0253     411.9359   1419.46594     663.0253     411.9359
   1419.45068     662.5378     411.5713   1419.45068     662.5378     411.5713
   1419.43542     663.6872     411.8284   1419.43542     663.6872     411.8284
   1419.42017     662.8100     412.1949   1419.42017     662.8100     412.1949
   1419.40491     663.4342     411.8575   1419.40491     663.4342     411.8575
   1419.38965     664.0671     411.2137   1419.38965     664.0671     411.2137
   1419.37439     663.7164     411.8590   1419.37439     663.7164     411.8590
   1419.35913     664.8926     411.1480   1419.35913     664.8926     411.1480
   1419.34387     665.6144     410.8975   1419.34387     665.6144     410.8975
   1419.32861     665.3054     411.2812   1419.32861     665.3054     411.2812
   1419.31335     666.0457     411.0335   1419.31335     666.0457     411.0335
   1419.29810     665.3127     411.4001   1419.29810     665.3127     411.4001
   1419.28284     666.6365     411.3805   1419.28284     666.6365     411.3805
   1419.26758     666.1544     411.4444   1419.26758     666.1544     411.4444
   1419.25232     667.0882     411.2166   1419.25232     667.0882     411.2166
   1419.23706     668.1841     411.6305   1419.23706     668.1841     411.6305
   1419.22180     668.9354     411.8032   1419.22180     668.9354     411.8032
   1419.20654     668.3872     411.7170   1419.20654     668.3872     411.7170
   1419.19128     668.7768     411.5762   1419.19128     668.7768     411.5762
   1419.17603     669.4811     412.3197   1419.17603     669.4811     412.3197
   1419.16077     671.0215     412.3768   1419.16077     671.0215     412.3768
   1419.14551     669.3551     412.3221   1419.14551     669.3551     412.3221
   1419.13025     670.9376     412.0771   1419.13025     670.9376     412.0771
   1419.11499     670.0833     412.4069   1419.11499     670.0833     412.4069
   1419.09973     671.6015     413.7386   1419.09973     671.6015     413.7386
   1419.08447     671.3014     413.8019   1419.08447     671.3014     413.8019
   1419.06921     672.5072     413.2296   1419.06921     672.5072     413.2296
   1419.05396     672.5574     413.1840   1419.05396     672.5574     413.1840
   1419.03870     672.6750     413.7537   1419.03870     672.6750     413.7537
   1419.02344     673.6793     414.3965   1419.02344     673.6793     414.3965
   1419.00818     674.5651     414.5526   1419.00818     674.5651     414.5526
   1418.99292     673.9973     415.4429   1418.99292     673.9973     415.4429
   1418.97766     675.4717     414.9833   1418.97766     675.4717     414.9833
   1418.96240     675.7891     415.3740   1418.96240     675.7891     415.3740
   1418.94714     676.0393     415.7063   1418.94714     676.0393     415.7063
   1418.93188     676.9653     416.2748   1418.93188     676.9653     416.2748
   1418.91663     677.5711     416.9857   1418.91663     677.5711     416.9857
   1418.90137     677.4026     416.7821   1418.90137     677.4026     416.7821
   1418.88611     678.3414     416.5255   1418.88611     678.3414     416.5255
   1418.87085     679.7524     417.6332   1418.87085     679.7524     417.6332
   1418.85559     679.3134     417.5672   1418.85559     679.3134     417.5672
   1418.84033     680.2498     418.0916   1418.84033     680.2498     418.0916
   1418.82507     679.9534     418.3746   1418.82507     679.9534     418.3746
   1418.80981     680.7401     418.3658   1418.80981     680.7401     418.3658
   1418.79456     681.8061     418.8609   1418.79456     681.8061     418.8609
   1418.77930     682.5576     419.9014   1418.77930     682.5576     419.9014
   1418.76404     681.8740     419.4720   1418.76404     681.8740     419.4720
   1418.74878     683.1044     420.6271   1418.74878     683.1044     420.6271
   1418.73352     684.4481     420.9472   1418.73352     684.4481     420.9472
   1418.71826     685.5747     421.1627   1418.71826     685.5747     421.1627
   1418.70300     684.9584     422.1724   1418.70300     684.9584     422.1724
   1418.68774     685.6006     422.7644   1418.68774     685.6006     422.7644
   1418.67249     686.5256     423.4389   1418.67249     686.5256     423.4389
   1418.65723     686.5225     423.0026   1418.65723     686.5225     423.0026
   1418.64197     687.4756     423.9912   1418.64197     687.4756     423.9912
   1418.62671     688.5973     424.7012   1418.62671     688.5973     424.7012
   1418.61145     688.4115     425.6304   1418.61145     688.4115     425.6304
   1418.59619     689.6250     425.6794   1418.59619     689.6250     425.6794
   1418.58093     689.1514     426.4714   1418.58093     689.1514     426.4714
   1418.56567     691.5687     427.7538   1418.56567     691.5687     427.7538
   1418.55042     692.1307     428.1081   1418.55042     692.1307     428.1081
   1418.53516     691.8633     428.4531   1418.53516     691.8633     428.4531
   1418.51990     693.2723     428.9087   1418.51990     693.2723     428.9087
   1418.50464     694.2318     429.2207   1418.50464     694.2318     429.2207
   1418.48938     695.0225     430.4118   1418.48938     695.0225     430.4118
   1418.47412     696.0889     430.3303   1418.47412     696.0889     430.3303
   1418.45886     696.4115     431.3805   1418.45886     696.4115     431.3805
   1418.44360     695.9996     432.0302   1418.44360     695.9996     432.0302
   1418.42834     696.2668     432.8729   1418.42834     696.2668     432.8729
   1418.41309     697.9312     433.7574   1418.41309     697.9312     433.7574
   1418.39783     698.9914     434.4662   1418.39783     698.9914     434.4662
   1418.38257     701.2294     435.2099   1418.38257     701.2294     435.2099
   1418.36731     700.8073     435.9478   1418.36731     700.8073     435.9478
   1418.35205     700.8078     436.9539   1418.35205     700.8078     436.9539
   1418.33679     701.9269     436.7621   1418.33679     701.9269     436.7621
   1418.32153     703.6797     437.6477   1418.32153     703.6797     437.6477
   1418.30627     703.8107     438.5915   1418.30627     703.8107     438.5915
   1418.29102     704.3336     439.7426   1418.29102     704.3336     439.7426
   1418.27576     704.7106     440.2809   1418.27576     704.7106     440.2809
   1418.26050     706.3317     441.2810   1418.26050     706.3317     441.2810
   1418.24524     706.8875     441.6609   1418.24524     706.8875     441.6609
   1418.22998     708.3954     442.5436   1418.22998     708.3954     442.5436
   1418.21472     708.6066     443.7533   1418.21472     708.6066     443.7533
   1418.19946     709.5549     444.5376   1418.19946     709.5549     444.5376
   1418.18420     710.9395     445.2203   1418.18420     710.9395     445.2203
   1418.16895     712.0620     445.9734   1418.16895     712.0620     445.9734
   1418.15369     711.1556     446.8449   1418.15369     711.1556     446.8449
   1418.13843     712.1638     447.4991   1418.13843     712.1638     447.4991
   1418.12317     713.5335     448.5956   1418.12317     713.5335     448.5956
   1418.10791     714.7162     449.1396   1418.10791     714.7162     449.1396
   1418.09265     715.6663     450.0692   1418.09265     715.6663     450.0692
   1418.07739     715.8417     451.2461   1418.07739     715.8417     451.2461
   1418.06213     716.4863     451.8154   1418.06213     716.4863     451.8154
   1418.04688     717.8016     453.2889   1418.04688     717.8016     453.2889
   1418.03162     719.1905     453.7688   1418.03162     719.1905     453.7688
   1418.01636     719.9938     455.1877   1418.01636     719.9938     455.1877
   1418.00110     719.9882     455.4545   1418.00110     719.9882     455.4545
   1417.98584     721.8760     456.5347   1417.98584     721.8760     456.5347
   1417.97058     721.7190     457.7031   1417.97058     721.7190     457.7031
   1417.95532     723.1910     457.6240   1417.95532     723.1910     457.6240
   1417.94006     724.8076     458.8448   1417.94006     724.8076     458.8448
   1417.92480     726.2115     459.9690   1417.92480     726.2115     459.9690
   1417.90955     725.5887     460.9585   1417.90955     725.5887     460.9585
   1417.89429     726.9850     462.3483   1417.89429     726.9850     462.3483
   1417.87903     727.4476     463.3060   1417.87903     727.4476     463.3060
   1417.86377     729.5652     465.0921   1417.86377     729.5652     465.0921
   1417.84851     730.4283     465.3732   1417.84851     730.4283     465.3732
   1417.83325     730.3383     465.9924   1417.83325     730.3383     465.9924
   1417.81799     730.7407     466.8875   1417.81799     730.7407     466.8875
   1417.80273     731.8628     467.6033   1417.80273     731.8628     467.6033
   1417.78748     733.5621     469.3821   1417.78748     733.5621     469.3821
   1417.77222     733.6989     470.3428   1417.77222     733.6989     470.3428
   1417.75696     735.4939     471.3234   1417.75696     735.4939     471.3234
   1417.74170     735.7751     471.9167   1417.74170     735.7751     471.9167
   1417.72644     736.5446     472.7177   1417.72644     736.5446     472.7177
   1417.71118     738.2010     474.0595   1417.71118     738.2010     474.0595
   1417.69592     737.9046     475.6115   1417.69592     737.9046     475.6115
   1417.68066     740.0999     476.1609   1417.68066     740.0999     476.1609
   1417.66541     738.7846     477.2231   1417.66541     738.7846     477.2231
   1417.65015     741.1307     478.4203   1417.65015     741.1307     478.4203
   1417.63489     741.3940     479.8661   1417.63489     741.3940     479.8661
   1417.61963     742.4858     479.8280   1417.61963     742.4858     479.8280
   1417.60437     743.5027     481.3275   1417.60437     743.5027     481.3275
   1417.58911     744.0797     482.4484   1417.58911     744.0797     482.4484
   1417.57385     745.4368     483.7402   1417.57385     745.4368     483.7402
   1417.55859     746.8393     484.1654   1417.55859     746.8393     484.1654
   1417.54333     747.7394     485.5774   1417.54333     747.7394     485.5774
   1417.52808     747.8915     486.6622   1417.52808     747.8915     486.6622
   1417.51282     748.1572     487.7665   1417.51282     748.1572     487.7665
   1417.49756     750.2112     488.5355   1417.49756     750.2112     488.5355
   1417.48230     751.0652     489.7422   1417.48230     751.0652     489.7422
   1417.46704     752.1501     491.5773   1417.46704     752.1501     491.5773
   1417.45178     752.5179     492.0034   1417.45178     752.5179     492.0034
   1417.43652     753.0739     492.4997   1417.43652     753.0739     492.4997
   1417.42126     754.4233     494.4725   1417.42126     754.4233     494.4725
   1417.40601     755.7882     493.8304   1417.40601     755.7882     493.8304
   1417.39075     755.5092     495.9518   1417.39075     755.5092     495.9518
   1417.37549     757.0289     497.2999   1417.37549     757.0289     497.2999
   1417.36023     758.0420     498.1059   1417.36023     758.0420     498.1059
   1417.34497     758.3320     499.5234   1417.34497     758.3320     499.5234
   1417.32971     759.0986     499.3754   1417.32971     759.0986     499.3754
   1417.31445     759.1046     500.4965   1417.31445     759.1046     500.4965
   1417.29919     758.9341     501.5264   1417.29919     758.9341     501.5264
   1417.28394     761.1547     503.7498   1417.28394     761.1547     503.7498
   1417.26868     761.8144     504.2602   1417.26868     761.8144     504.2602
   1417.25342     762.7358     505.1007   1417.25342     762.7358     505.1007
   1417.23816     763.1718     506.2367   1417.23816     763.1718     506.2367
   1417.22290     764.6235     507.8151   1417.22290     764.6235     507.8151
   1417.20764     764.6177     508.3191   1417.20764     764.6177     508.3191
   1417.19238     766.1741     508.8947   1417.19238     766.1741     508.8947
   1417.17712     767.2479     510.0296   1417.17712     767.2479     510.0296
   1417.16187     767.4163     510.2898   1417.16187     767.4163     510.2898
   1417.14661     768.5283     511.0771   1417.14661     768.5283     511.0771
   1417.13135     766.9366     511.6748   1417.13135     766.9366     511.6748
   1417.11609     769.5600     513.3027   1417.11609     769.5600     513.3027
   1417.10083     769.5154     513.9225   1417.10083     769.5154     513.9225
   1417.08557     769.4204     514.7870   1417.08557     769.4204     514.7870
   1417.07031     771.7609     516.3739   1417.07031     771.7609     516.3739
   1417.05505     771.8260     517.2227   1417.05505     771.8260     517.2227
   1417.03979     771.6590     517.0800   1417.03979     771.6590     517.0800
   1417.02454     773.1882     518.4697   1417.02454     773.1882     518.4697
   1417.00928     774.1275     519.5886   1417.00928     774.1275     519.5886
   1416.99402     772.8056     519.6932   1416.99402     772.8056     519.6932
   1416.97876     773.0278     520.6529   1416.97876     773.0278     520.6529
   1416.96350     774.0085     520.7317   1416.96350     774.0085     520.7317
   1416.94824     774.4875     521.9499   1416.94824     774.4875     521.9499
   1416.93298     775.7052     522.5027   1416.93298     775.7052     522.5027
   1416.91772     776.9437     522.9309   1416.91772     776.9437     522.9309
   1416.90247     776.6954     524.0008   1416.90247     776.6954     524.0008
   1416.88721     777.1885     524.8617   1416.88721     777.1885     524.8617
   1416.87195     778.1108     525.1588   1416.87195     778.1108     525.1588
   1416.85669     777.8165     526.5835   1416.85669     777.8165     526.5835
   1416.84143     778.8043     526.7523   1416.84143     778.8043     526.7523
   1416.82617     779.9570     526.4590   1416.82617     779.9570     526.4590
   1416.81091     778.3939     527.9463   1416.81091     778.3939     527.9463
   1416.79565     779.3714     528.4549   1416.79565     779.3714     528.4549
   1416.78040     780.7964     529.5930   1416.78040     780.7964     529.5930
   1416.76514     779.5914     528.8388   1416.76514     779.5914     528.8388
   1416.74988     780.6769     529.6581   1416.74988     780.6769     529.6581
   1416.73462     780.2029     530.0718   1416.73462     780.2029     530.0718
   1416.71936     780.7192     529.6155   1416.71936     780.7192     529.6155
   1416.70410     781.3336     531.2623   1416.70410     781.3336     531.2623
   1416.68884     782.6331     530.1720   1416.68884     782.6331     530.1720
   1416.67358     781.9419     531.7733   1416.67358     781.9419     531.7733
   1416.65833     781.9231     531.3544   1416.65833     781.9231     531.3544
   1416.64307     782.6927     532.2092   1416.64307     782.6927     532.2092
   1416.62781     781.8093     532.2329   1416.62781     781.8093     532.2329
   1416.61255     783.4070     533.1765   1416.61255     783.4070     533.1765
   1416.59729     783.6313     533.5093   1416.59729     783.6313     533.5093
   1416.58203     781.5953     532.8797   1416.58203     781.5953     532.8797
   1416.56677     783.0426     534.8908   1416.56677     783.0426     534.8908
   1416.55151     784.0500     534.1916   1416.55151     784.0500     534.1916
   1416.53625     783.1197     533.4017   1416.53625     783.1197     533.4017
   1416.52100     783.3098     533.9180   1416.52100     783.3098     533.9180
   1416.50574     782.9886     534.2589   1416.50574     782.9886     534.2589
   1416.49048     782.7534     534.1463   1416.49048     782.7534     534.1463
   1416.47522     784.1619     534.5294   1416.47522     784.1619     534.5294
   1416.45996     782.8625     533.8176   1416.45996     782.8625     533.8176
   1416.44470     783.6860     533.8165   1416.44470     783.6860     533.8165
   1416.42944     782.8463     533.7170   1416.42944     782.8463     533.7170
   1416.41418     783.1819     534.1624   1416.41418     783.1819     534.1624
   1416.39893     783.1039     534.6213   1416.39893     783.1039     534.6213
   1416.38367     783.3962     534.1870   1416.38367     783.3962     534.1870
   1416.36841     782.4878     534.3392   1416.36841     782.4878     534.3392
   1416.35315     782.1600     533.5049   1416.35315     782.1600     533.5049
   1416.33789     781.8719     533.9645   1416.33789     781.8719     533.9645
   1416.32263     782.4283     533.2210   1416.32263     782.4283     533.2210
   1416.30737     781.2791     533.6986   1416.30737     781.2791     533.6986
   1416.29211     782.9120     533.2030   1416.29211     782.9120     533.2030
   1416.27686     781.8349     532.0407   1416.27686     781.8349     532.0407
   1416.26160     781.0572     532.8386   1416.26160     781.0572     532.8386
   1416.24634     781.9265     532.5737   1416.24634     781.9265     532.5737
   1416.23108     781.5920     532.0626   1416.23108     781.5920     532.0626
   1416.21582     781.0757     531.5242   1416.21582     781.0757     531.5242
   1416.20056     779.8852     532.1820   1416.20056     779.8852     532.1820
   1416.18530     780.3242     531.2836   1416.18530     780.3242     531.2836
   1416.17004     779.2961     530.7534   1416.17004     779.2961     530.7534
   1416.15479     778.7202     531.1196   1416.15479     778.7202     531.1196
   1416.13953     779.0656     530.4263   1416.13953     779.0656     530.4263
   1416.12427     779.5055     530.6469   1416.12427     779.5055     530.6469
   1416.10901     778.0277     528.4987   1416.10901     778.0277     528.4987
   1416.09375     778.0559     529.0083   1416.09375     778.0559     529.0083
   1416.07849     776.0468     528.3445   1416.07849     776.0468     528.3445
   1416.06323     777.6750     527.5257   1416.06323     777.6750     527.5257
   1416.04797     776.2108     528.3030   1416.04797     776.2108     528.3030
   1416.03271     776.4484     527.5281   1416.03271     776.4484     527.5281
   1416.01746     774.8374     526.4166   1416.01746     774.8374     526.4166
   1416.00220     774.9645     526.9304   1416.00220     774.9645     526.9304
   1415.98694     774.7175     525.8837   1415.98694     774.7175     525.8837
   1415.97168     775.1116     525.1044   1415.97168     775.1116     525.1044
   1415.95642     773.8207     524.8203   1415.95642     773.8207     524.8203
   1415.94116     773.7719     525.0504   1415.94116     773.7719     525.0504
   1415.92590     773.1843     523.9528   1415.92590     773.1843     523.9528
   1415.91064     772.2838     523.8188   1415.91064     772.2838     523.8188
   1415.89539     772.7753     521.9153   1415.89539     772.7753     521.9153
   1415.88013     771.3370     522.5126   1415.88013     771.3370     522.5126
   1415.86487     770.2935     522.2702   1415.86487     770.2935     522.2702
   1415.84961     769.9603     521.7825   1415.84961     769.9603     521.7825
   1415.83435     769.9963     521.1566   1415.83435     769.9963     521.1566
   1415.81909     769.5062     519.5140   1415.81909     769.5062     519.5140
   1415.80383     767.0374     519.9911   1415.80383     767.0374     519.9911
   1415.78857     768.7028     519.8600   1415.78857     768.7028     519.8600
   1415.77332     767.6295     518.6702   1415.77332     767.6295     518.6702
   1415.75806     767.1942     518.6912   1415.75806     767.1942     518.6912
   1415.74280     766.9470     516.9802   1415.74280     766.9470     516.9802
   1415.72754     765.3870     517.2144   1415.72754     765.3870     517.2144
   1415.71228     764.9791     516.4649   1415.71228     764.9791     516.4649
   1415.69702     764.8257     515.6503   1415.69702     764.8257     515.6503
   1415.68176     762.7892     514.6503   1415.68176     762.7892     514.6503
   1415.66650     763.4233     515.1309   1415.66650     763.4233     515.1309
   1415.65125     761.7053     513.5497   1415.65125     761.7053     513.5497
   1415.63599     760.5300     512.5047   1415.63599     760.5300     512.5047
   1415.62073     759.9854     512.3011   1415.62073     759.9854     512.3011
   1415.60547     760.5630     511.3755   1415.60547     760.5630     511.3755
   1415.59021     759.2875     510.2768   1415.59021     759.2875     510.2768
   1415.57495     758.5458     509.7516   1415.57495     758.5458     509.7516
   1415.55969     757.2234     509.1055   1415.55969     757.2234     509.1055
   1415.54443     756.8795     508.0080   1415.54443     756.8795     508.0080
   1415.52917     755.8520     507.7510   1415.52917     755.8520     507.7510
   1415.51392     754.2890     506.8387   1415.51392     754.2890     506.8387
   1415.49866     753.0831     506.2236   1415.49866     753.0831     506.2236
   1415.48340     752.6642     505.7484   1415.48340     752.6642     505.7484
   1415.46814     751.1848     505.0621   1415.46814     751.1848     505.0621
   1415.45288     751.4238     504.2582   1415.45288     751.4238     504.2582
   1415.43762     751.0634     503.5089   1415.43762     751.0634     503.5089
   1415.42236     749.2398     502.8231   1415.42236     749.2398     502.8231
   1415.40710     749.3640     501.2144   1415.40710     749.3640     501.2144
   1415.39185     747.7000     501.8037   1415.39185     747.7000     501.8037
   1415.37659     746.8357     499.9822   1415.37659     746.8357     499.9822
   1415.36133     745.3276     499.0959   1415.36133     745.3276     499.0959
   1415.34607     745.7265     498.6045   1415.34607     745.7265     498.6045
   1415.33081     744.4645     497.9768   1415.33081     744.4645     497.9768
   1415.31555     742.7080     497.1257   1415.31555     742.7080     497.1257
   1415.30029     741.7635     495.2287   1415.30029     741.7635     495.2287
   1415.28503     740.4456     495.9937   1415.28503     740.4456     495.9937
   1415.26978     740.6653     494.2585   1415.26978     740.6653     494.2585
   1415.25452     737.9341     493.3546   1415.25452     737.9341     493.3546
   1415.23926     735.8560     493.0083   1415.23926     735.8560     493.0083
   1415.22400     735.3590     492.5248   1415.22400     735.3590     492.5248
   1415.20874     733.8600     490.5770   1415.20874     733.8600     490.5770
   1415.19348     732.3714     490.6563   1415.19348     732.3714     490.6563
   1415.17822     732.8467     489.3793   1415.17822     732.8467     489.3793
   1415.16296     731.2319     488.3150   1415.16296     731.2319     488.3150
   1415.14771     729.8049     487.7697   1415.14771     729.8049     487.7697
   1415.13245     728.4783     486.3872   1415.13245     728.4783     486.3872
   1415.11719     727.1767     484.9686   1415.11719     727.1767     484.9686
   1415.10193     725.8019     484.4051   1415.10193     725.8019     484.4051
   1415.08667     724.6020     483.3771   1415.08667     724.6020     483.3771
   1415.07141     723.6676     482.1542   1415.07141     723.6676     482.1542
   1415.05615     722.0222     481.2260   1415.05615     722.0222     481.2260
   1415.04089     720.3243     480.0748   1415.04089     720.3243     480.0748
   1415.02563     719.7899     479.8858   1415.02563     719.7899     479.8858
   1415.01038     717.2158     478.8979   1415.01038     717.2158     478.8979
   1414.99512     716.1701     477.4198   1414.99512     716.1701     477.4198
   1414.97986     714.1075     476.5305   1414.97986     714.1075     476.5305
   1414.96460     713.9407     475.6671   1414.96460     713.9407     475.6671
   1414.94934     712.2932     473.8123   1414.94934     712.2932     473.8123
   1414.93408     710.7565     473.3519   1414.93408     710.7565     473.3519
   1414.91882     708.6658     471.5719   1414.91882     708.6658     471.5719
   1414.90356     706.1606     470.9904   1414.90356     706.1606     470.9904
   1414.88831     705.8387     469.5310   1414.88831     705.8387     469.5310
   1414.87305     704.6374     468.1887   1414.87305     704.6374     468.1887
   1414.85779     703.9127     467.7531   1414.85779     703.9127     467.7531
   1414.84253     701.4930     466.6778   1414.84253     701.4930     466.6778
   1414.82727     698.1315     464.9282   1414.82727     698.1315     464.9282
   1414.81201     696.6922     464.0929   1414.81201     696.6922     464.0929
   1414.79675     695.8652     463.2908   1414.79675     695.8652     463.2908
   1414.78149     694.5204     461.7189   1414.78149     694.5204     461.7189
   1414.76624     692.0698     459.7417   1414.76624     692.0698     459.7417
   1414.75098     690.2771     459.3351   1414.75098     690.2771     459.3351
   1414.73572     688.6501     458.0341   1414.73572     688.6501     458.0341
   1414.72046     686.1806     456.9237   1414.72046     686.1806     456.9237
   1414.70520     684.5985     455.9485   1414.70520     684.5985     455.9485
   1414.68994     682.9873     454.2531   1414.68994     682.9873     454.2531
   1414.67468     680.8531     452.5432   1414.67468     680.8531     452.5432
   1414.65942     679.1234     451.4825   1414.65942     679.1234     451.4825
   1414.64417     676.0037     449.5470   1414.64417     676.0037     449.5470
   1414.62891     675.5539     449.6629   1414.62891     675.5539     449.6629
   1414.61365     673.4830     448.1614   1414.61365     673.4830     448.1614
   1414.59839     671.3665     447.2169   1414.59839     671.3665     447.2169
   1414.58313     670.0477     445.5620   1414.58313     670.0477     445.5620
   1414.56787     665.9894     443.2933   1414.56787     665.9894     443.2933
   1414.55261     665.3851     442.2850   1414.55261     665.3851     442.2850
   1414.53735     663.5539     440.3352   1414.53735     663.5539     440.3352
   1414.52209     660.7678     438.9441   1414.52209     660.7678     438.9441
   1414.50684     659.5455     438.4441   1414.50684     659.5455     438.4441
   1414.49158     656.9130     436.8032   1414.49158     656.9130     436.8032
   1414.47632     654.0173     434.8007   1414.47632     654.0173     434.8007
   1414.46106     652.5386     433.3739   1414.46106     652.5386     433.3739
   1414.44580     650.7321     432.6371   1414.44580     650.7321     432.6371
   1414.43054     648.3918     431.1395   1414.43054     648.3918     431.1395
   1414.41528     645.9097     429.6985   1414.41528     645.9097     429.6985
   1414.40002     643.0854     427.5129   1414.40002     643.0854     427.5129
   1414.38477     641.2358     426.4987   1414.38477     641.2358     426.4987
   1414.36951     639.2296     424.5283   1414.36951     639.2296     424.5283
   1414.35425     636.3488     422.8975   1414.35425     636.3488     422.8975
   1414.33899     634.1550     422.1874   1414.33899     634.1550     422.1874
   1414.32373     631.1252     420.6252   1414.32373     631.1252     420.6252
   1414.30847     630.2698     419.5988   1414.30847     630.2698     419.5988
   1414.29321     626.5718     417.6361   1414.29321     626.5718     417.6361
   1414.27795     624.8962     416.0506   1414.27795     624.8962     416.0506
   1414.26270     620.8278     414.0985   1414.26270     620.8278     414.0985
   1414.24744     619.8652     412.5707   1414.24744     619.8652     412.5707
   1414.23218     616.7009     411.5938   1414.23218     616.7009     411.5938
   1414.21692     614.8694     409.0898   1414.21692     614.8694     409.0898
   1414.20166     612.7300     408.5813   1414.20166     612.7300     408.5813
   1414.18640     609.5057     406.8431   1414.18640     609.5057     406.8431
   1414.17114     607.0312     405.0894   1414.17114     607.0312     405.0894
   1414.15588     604.3302     403.0032   1414.15588     604.3302     403.0032
   1414.14062     602.5078     401.4090   1414.14062     602.5078     401.4090
   1414.12537     599.1038     399.7794   1414.12537     599.1038     399.7794
   1414.11011     596.3103     398.0738   1414.11011     596.3103     398.0738
   1414.09485     594.2311     396.8947   1414.09485     594.2311     396.8947
   1414.07959     591.0825     394.8373   1414.07959     591.0825     394.8373
   1414.06433     588.7386     393.1801   1414.06433     588.7386     393.1801
   1414.04907     586.7708     391.9254   1414.04907     586.7708     391.9254
   1414.03381     584.0299     389.9456   1414.03381     584.0299     389.9456
   1414.01855     582.2320     388.3597   1414.01855     582.2320     388.3597
   1414.00330     604.1532     394.5060   1414.00330     604.1532     394.5060
   1413.98804     577.8270     385.8938   1413.98804     577.8270     385.8938
   1413.97278     573.1821     383.6438   1413.97278     573.1821     383.6438
   1413.95752     570.1761     381.6556   1413.95752     570.1761     381.6556
   1413.94226     567.5144     379.9755   1413.94226     567.5144     379.9755
   1413.92700     565.6273     378.6174   1413.92700     565.6273     378.6174
   1413.91174     562.0120     376.2664   1413.91174     562.0120     376.2664
   1413.89648     559.3573     374.5360   1413.89648     559.3573     374.5360
   1413.88123     556.3026     373.0715   1413.88123     556.3026     373.0715
   1413.86597     553.8151     371.4908   1413.86597     553.8151     371.4908
   1413.85071     550.5101     369.9858   1413.85071     550.5101     369.9858
   1413.83545     547.6951     368.0493   1413.83545     547.6951     368.0493
   1413.82019     545.1901     366.1681   1413.82019     545.1901     366.1681
   1413.80493     541.6747     364.1221   1413.80493     541.6747     364.1221
   1413.78967     539.5326     362.7085   1413.78967     539.5326     362.7085
   1413.77441     536.8217     361.1930   1413.77441     536.8217     361.1930
   1413.75916     534.6298     359.8475   1413.75916     534.6298     359.8475
   1413.74390     530.7770     357.7078   1413.74390     530.7770     357.7078
   1413.72864     528.6054     356.2776   1413.72864     528.6054     356.2776
   1413.71338     525.4465     354.5623   1413.71338     525.4465     354.5623
   1413.69812     522.6516     352.9956   1413.69812     522.6516     352.9956
   1413.68286     520.2206     351.1876   1413.68286     520.2206     351.1876
   1413.66760     516.6113     349.4486   1413.66760     516.6113     349.4486
   1413.65234     513.9645     347.7621   1413.65234     513.9645     347.7621
   1413.63708     511.3047     346.0262   1413.63708     511.3047     346.0262
   1413.62183     509.2067     343.6478   1413.62183     509.2067     343.6478
   1413.60657     505.6981     342.6775   1413.60657     505.6981     342.6775
   1413.59131     503.2622     340.6262   1413.59131     503.2622     340.6262
   1413.57605     500.3733     339.3648   1413.57605     500.3733     339.3648
   1413.56079     497.9179     337.7656   1413.56079     497.9179     337.7656
   1413.54553     494.3553     335.8708   1413.54553     494.3553     335.8708
   1413.53027     491.8781     334.2812   1413.53027     491.8781     334.2812
   1413.51501     489.0926     332.5906   1413.51501     489.0926     332.5906
   1413.49976     486.6889     331.1956   1413.49976     486.6889     331.1956
   1413.48450     484.6779     328.9352   1413.48450     484.6779     328.9352
   1413.46924     481.1606     327.3429   1413.46924     481.1606     327.3429
   1413.45398     477.8436     325.9660   1413.45398     477.8436     325.9660
   1413.43872     475.5049     324.6514   1413.43872     475.5049     324.6514
   1413.42346     472.6677     322.6887   1413.42346     472.6677     322.6887
   1413.40820     469.7847     321.1489   1413.40820     469.7847     321.1489
   1413.39294     467.0434     319.4526   1413.39294     467.0434     319.4526
   1413.37769     465.2227     317.9423   1413.37769     465.2227     317.9423
   1413.36243     462.1353     316.6101   1413.36243     462.1353     316.6101
   1413.34717     459.2411     315.1933   1413.34717     459.2411     315.1933
   1413.33191     457.1193     313.5868   1413.33191     457.1193     313.5868
   1413.31665     454.1362     311.6959   1413.31665     454.1362     311.6959
   1413.30139     451.2385     310.1768   1413.30139     451.2385     310.1768
   1413.28613     448.5858     308.9082   1413.28613     448.5858     308.9082
   1413.27087     446.0249     306.9392   1413.27087     446.0249     306.9392
   1413.25562     443.3068     305.9302   1413.25562     443.3068     305.9302
   1413.24036     441.2711     304.3011   1413.24036     441.2711     304.3011
   1413.22510     439.3284     302.7601   1413.22510     439.3284     302.7601
   1413.20984     436.2189     301.1741   1413.20984     436.2189     301.1741
   1413.19458     434.1678     300.0755   1413.19458     434.1678     300.0755
   1413.17932     431.9867     298.4544   1413.17932     431.9867     298.4544
   1413.16406     429.2353     297.4479   1413.16406     429.2353     297.4479
   1413.14880     426.6337     295.8288   1413.14880     426.6337     295.8288
   1413.13354     424.5500     294.9981   1413.13354     424.5500     294.9981
   1413.11829     422.4766     292.9206   1413.11829     422.4766     292.9206
   1413.10303     420.5940     292.2545   1413.10303     420.5940     292.2545
   1413.08777     417.8769     290.6122   1413.08777     417.8769     290.6122
   1413.07251     415.7304     289.4113   1413.07251     415.7304     289.4113
   1413.05725     413.8932     288.2079   1413.05725     413.8932     288.2079
   1413.04199     411.0982     287.3856   1413.04199     411.0982     287.3856
   1413.02673     408.8674     285.4649   1413.02673     408.8674     285.4649
   1413.01147     407.5754     284.5105   1413.01147     407.5754     284.5105
   1412.99622     405.1784     283.6191   1412.99622     405.1784     283.6191
   1412.98096     403.0798     282.4638   1412.98096     403.0798     282.4638
   1412.96570     401.4500     281.4144   1412.96570     401.4500     281.4144
   1412.95044     399.1519     280.0772   1412.95044     399.1519     280.0772
   1412.93518     398.1177     279.4465   1412.93518     398.1177     279.4465
   1412.91992     395.5425     278.1859   1412.91992     395.5425     278.1859
   1412.90466     393.5606     276.7743   1412.90466     393.5606     276.7743
   1412.88940     391.9637     276.2401   1412.88940     391.9637     276.2401
   1412.87415     390.5037     275.2813   1412.87415     390.5037     275.2813
   1412.85889     388.6478     274.4596   1412.85889     388.6478     274.4596
   1412.84363     387.0528     273.4352   1412.84363     387.0528     273.4352
   1412.82837     386.2714     272.7888   1412.82837     386.2714     272.7888
   1412.81311     384.3975     271.5081   1412.81311     384.3975     271.5081
   1412.79785     382.7357     270.9781   1412.79785     382.7357     270.9781
   1412.78259     380.7827     270.1005   1412.78259     380.7827     270.1005
   1412.76733     379.6595     269.2752   1412.76733     379.6595     269.2752
   1412.75208     377.6450     268.3463   1412.75208     377.6450     268.3463
   1412.73682     377.0098     267.9745   1412.73682     377.0098     267.9745
   1412.72156     375.4670     267.0306   1412.72156     375.4670     267.0306
   1412.70630     374.2861     266.8436   1412.70630     374.2861     266.8436
   1412.69104     373.5362     266.3914   1412.69104     373.5362     266.3914
   1412.67578     372.0914     265.8697   1412.67578     372.0914     265.8697
   1412.66052     370.4637     264.8210   1412.66052     370.4637     264.8210
   1412.64526     370.2360     264.6631   1412.64526     370.2360     264.6631
   1412.63000     369.1784     264.0446   1412.63000     369.1784     264.0446
   1412.61475     367.3988     263.8664   1412.61475     367.3988     263.8664
   1412.59949     367.4092     263.5162   1412.59949     367.4092     263.5162
   1412.58423     365.5693     262.7618   1412.58423     365.5693     262.7618
   1412.56897     365.4071     262.7909   1412.56897     365.4071     262.7909
   1412.55371     364.0827     262.9901   1412.55371     364.0827     262.9901
   1412.53845     363.3309     262.2207   1412.53845     363.3309     262.2207
   1412.52319     362.7327     262.0068   1412.52319     362.7327     262.0068
   1412.50793     363.1723     261.7282   1412.50793     363.1723     261.7282
   1412.49268     361.6818     261.8778   1412.49268     361.6818     261.8778
   1412.47742     361.6723     261.7979   1412.47742     361.6723     261.7979
   1412.46216     360.9265     261.2563   1412.46216     360.9265     261.2563
   1412.44690     360.6205     261.2972   1412.44690     360.6205     261.2972
   1412.43164     360.4135     261.5613   1412.43164     360.4135     261.5613
   1412.41638     360.1783     261.8188   1412.41638     360.1783     261.8188
   1412.40112     360.0138     261.8335   1412.40112     360.0138     261.8335
   1412.38586     360.1424     262.1041   1412.38586     360.1424     262.1041
   1412.37061     358.9971     262.0709   1412.37061     358.9971     262.0709
   1412.35535     359.6046     262.0963   1412.35535     359.6046     262.0963
   1412.34009     359.3485     262.5294   1412.34009     359.3485     262.5294
   1412.32483     359.6143     263.1915   1412.32483     359.6143     263.1915
   1412.30957     359.9380     263.4402   1412.30957     359.9380     263.4402
   1412.29431     359.8264     263.3148   1412.29431     359.8264     263.3148
   1412.27905     360.0738     264.0016   1412.27905     360.0738     264.0016
   1412.26379     359.9777     264.5729   1412.26379     359.9777     264.5729
   1412.24854     360.3115     265.2830   1412.24854     360.3115     265.2830
   1412.23328     360.5988     265.4819   1412.23328     360.5988     265.4819
   1412.21802     360.9333     266.2342   1412.21802     360.9333     266.2342
   1412.20276     362.0574     267.1650   1412.20276     362.0574     267.1650