#     FILENAME=!Skynet_57533_lach-hhg-196-2_20799_21207.cyb.fits
#     BASENAME=Skynet_57533_lach-hhg-196-2_20799_21207
#     SRC_NAME=lach-hhg-196-2
#     OBSERVER=ccmadison16_9505
#     DATE_OBS=2016-05-25T18:31:46.370
#        OBSID=20799
#      SCANNUM=21207
#          MJD=57533.7731
#          UTC=66796
#     SCANTYPE=track
#     DATAMODE=HIRES
#     TUNEFREQ=1420.0000
# Actual_FREQ1=1420.0000
# Actual_FREQ2=1420.0000
#    LO1Tuning=6870.000
#     RFFILTER=1355_1435
#        OBSBW=-15.6250
#        NCHAN=1024 
#        FOCUS=37.0709
#           RA=06:19:46.17
#          DEC=15:01:17.29
#      RA(hrs)=6.329500
#     DEC(deg)=15.021500
#    AZIM(deg)=149.281
#    ELEV(deg)=63.678
#     IFattens=10.00, 9.00
#      WARNING=None
#    TCAL_XL1=7.9635
#    TCAL_YR1=9.1340
#    TCAL_XL2=7.9635
#    TCAL_YR2=9.1340
#     TRX_XL1=11.7060
#     TRX_YR1=11.7060
#     TRX_XL2=11.7060
#     TRX_YR2=11.7060
#        TAVE=1.0000
#Freq1(MHz)          XL1          YR1  Freq2(MHz)          XL2          YR2 

   1427.81250     368.3166     262.7533   1427.81250     368.3166     262.7533
   1427.79724     368.9514     263.9308   1427.79724     368.9514     263.9308
   1427.78198     369.3715     264.9727   1427.78198     369.3715     264.9727
   1427.76672     370.8067     265.6757   1427.76672     370.8067     265.6757
   1427.75146     370.6243     266.4895   1427.75146     370.6243     266.4895
   1427.73621     371.5642     267.8605   1427.73621     371.5642     267.8605
   1427.72095     372.7737     268.8699   1427.72095     372.7737     268.8699
   1427.70569     373.3406     270.1891   1427.70569     373.3406     270.1891
   1427.69043     374.4853     271.6286   1427.69043     374.4853     271.6286
   1427.67517     375.0739     272.0865   1427.67517     375.0739     272.0865
   1427.65991     376.0034     273.6470   1427.65991     376.0034     273.6470
   1427.64465     377.1386     274.9009   1427.64465     377.1386     274.9009
   1427.62939     378.2943     275.6990   1427.62939     378.2943     275.6990
   1427.61414     379.4844     277.3532   1427.61414     379.4844     277.3532
   1427.59888     380.9695     278.0823   1427.59888     380.9695     278.0823
   1427.58362     382.5605     280.1392   1427.58362     382.5605     280.1392
   1427.56836     383.6844     281.1984   1427.56836     383.6844     281.1984
   1427.55310     384.8233     282.8263   1427.55310     384.8233     282.8263
   1427.53784     386.0052     284.4249   1427.53784     386.0052     284.4249
   1427.52258     387.3500     285.1184   1427.52258     387.3500     285.1184
   1427.50732     389.7923     287.3778   1427.50732     389.7923     287.3778
   1427.49207     391.0633     288.7082   1427.49207     391.0633     288.7082
   1427.47681     392.2570     289.7878   1427.47681     392.2570     289.7878
   1427.46155     393.5014     291.6187   1427.46155     393.5014     291.6187
   1427.44629     396.1083     293.2620   1427.44629     396.1083     293.2620
   1427.43103     397.5443     295.2202   1427.43103     397.5443     295.2202
   1427.41577     400.5771     296.6617   1427.41577     400.5771     296.6617
   1427.40051     401.8161     298.1493   1427.40051     401.8161     298.1493
   1427.38525     403.7595     299.9492   1427.38525     403.7595     299.9492
   1427.37000     405.6127     302.2340   1427.37000     405.6127     302.2340
   1427.35474     408.2885     303.3313   1427.35474     408.2885     303.3313
   1427.33948     409.5004     305.1617   1427.33948     409.5004     305.1617
   1427.32422     411.3376     306.8637   1427.32422     411.3376     306.8637
   1427.30896     414.6431     307.9887   1427.30896     414.6431     307.9887
   1427.29370     416.4229     310.3127   1427.29370     416.4229     310.3127
   1427.27844     418.7067     311.8879   1427.27844     418.7067     311.8879
   1427.26318     421.1320     314.0040   1427.26318     421.1320     314.0040
   1427.24792     423.3657     315.3531   1427.24792     423.3657     315.3531
   1427.23267     425.6638     317.2193   1427.23267     425.6638     317.2193
   1427.21741     428.1666     319.3187   1427.21741     428.1666     319.3187
   1427.20215     430.3083     321.4822   1427.20215     430.3083     321.4822
   1427.18689     433.2171     323.2317   1427.18689     433.2171     323.2317
   1427.17163     436.0252     325.1314   1427.17163     436.0252     325.1314
   1427.15637     437.9913     326.8958   1427.15637     437.9913     326.8958
   1427.14111     440.9400     328.2871   1427.14111     440.9400     328.2871
   1427.12585     443.6072     330.5791   1427.12585     443.6072     330.5791
   1427.11060     446.0441     332.8414   1427.11060     446.0441     332.8414
   1427.09534     449.0941     334.6046   1427.09534     449.0941     334.6046
   1427.08008     452.5201     336.2448   1427.08008     452.5201     336.2448
   1427.06482     454.3049     338.2364   1427.06482     454.3049     338.2364
   1427.04956     457.9689     340.0282   1427.04956     457.9689     340.0282
   1427.03430     460.7901     342.4448   1427.03430     460.7901     342.4448
   1427.01904     463.8047     343.5350   1427.01904     463.8047     343.5350
   1427.00378     466.5570     346.3017   1427.00378     466.5570     346.3017
   1426.98853     468.6350     348.2904   1426.98853     468.6350     348.2904
   1426.97327     472.6450     349.8927   1426.97327     472.6450     349.8927
   1426.95801     475.4751     352.3928   1426.95801     475.4751     352.3928
   1426.94275     478.3863     353.9666   1426.94275     478.3863     353.9666
   1426.92749     481.5493     356.3114   1426.92749     481.5493     356.3114
   1426.91223     485.0744     357.7465   1426.91223     485.0744     357.7465
   1426.89697     487.6864     360.0792   1426.89697     487.6864     360.0792
   1426.88171     491.0297     362.2504   1426.88171     491.0297     362.2504
   1426.86646     494.3362     363.6653   1426.86646     494.3362     363.6653
   1426.85120     497.1011     365.6967   1426.85120     497.1011     365.6967
   1426.83594     500.6410     368.3648   1426.83594     500.6410     368.3648
   1426.82068     503.6052     369.3000   1426.82068     503.6052     369.3000
   1426.80542     507.3594     371.8512   1426.80542     507.3594     371.8512
   1426.79016     509.8465     373.8518   1426.79016     509.8465     373.8518
   1426.77490     513.8983     375.8320   1426.77490     513.8983     375.8320
   1426.75964     516.3094     377.2949   1426.75964     516.3094     377.2949
   1426.74438     520.4505     379.3716   1426.74438     520.4505     379.3716
   1426.72913     523.4523     381.8234   1426.72913     523.4523     381.8234
   1426.71387     527.0165     383.6173   1426.71387     527.0165     383.6173
   1426.69861     529.9291     385.7723   1426.69861     529.9291     385.7723
   1426.68335     533.1104     387.0159   1426.68335     533.1104     387.0159
   1426.66809     536.5778     389.6584   1426.66809     536.5778     389.6584
   1426.65283     541.2237     391.5464   1426.65283     541.2237     391.5464
   1426.63757     543.8317     393.2812   1426.63757     543.8317     393.2812
   1426.62231     548.5879     399.6951   1426.62231     548.5879     399.6951
   1426.60706     551.3231     398.4229   1426.60706     551.3231     398.4229
   1426.59180     553.6699     397.8419   1426.59180     553.6699     397.8419
   1426.57654     557.2438     400.2649   1426.57654     557.2438     400.2649
   1426.56128     561.3430     401.7367   1426.56128     561.3430     401.7367
   1426.54602     564.6548     404.4018   1426.54602     564.6548     404.4018
   1426.53076     567.7721     405.4382   1426.53076     567.7721     405.4382
   1426.51550     571.1594     407.0510   1426.51550     571.1594     407.0510
   1426.50024     573.2724     409.6740   1426.50024     573.2724     409.6740
   1426.48499     577.8570     411.2745   1426.48499     577.8570     411.2745
   1426.46973     581.3541     412.2730   1426.46973     581.3541     412.2730
   1426.45447     583.3018     414.2447   1426.45447     583.3018     414.2447
   1426.43921     589.3516     416.1335   1426.43921     589.3516     416.1335
   1426.42395     591.4013     417.5515   1426.42395     591.4013     417.5515
   1426.40869     595.1799     419.2164   1426.40869     595.1799     419.2164
   1426.39343     597.7034     420.9232   1426.39343     597.7034     420.9232
   1426.37817     600.9893     422.3972   1426.37817     600.9893     422.3972
   1426.36292     605.3925     424.5135   1426.36292     605.3925     424.5135
   1426.34766     607.6301     426.6530   1426.34766     607.6301     426.6530
   1426.33240     611.9314     427.1038   1426.33240     611.9314     427.1038
   1426.31714     613.7352     429.4702   1426.31714     613.7352     429.4702
   1426.30188     618.1854     430.6366   1426.30188     618.1854     430.6366
   1426.28662     621.5775     432.5067   1426.28662     621.5775     432.5067
   1426.27136     624.3004     433.9639   1426.27136     624.3004     433.9639
   1426.25610     628.1107     434.9780   1426.25610     628.1107     434.9780
   1426.24084     630.9397     436.3503   1426.24084     630.9397     436.3503
   1426.22559     633.6013     438.1581   1426.22559     633.6013     438.1581
   1426.21033     636.0028     439.4221   1426.21033     636.0028     439.4221
   1426.19507     639.9207     441.3171   1426.19507     639.9207     441.3171
   1426.17981     642.6090     442.5664   1426.17981     642.6090     442.5664
   1426.16455     646.7450     443.4991   1426.16455     646.7450     443.4991
   1426.14929     649.4884     444.7933   1426.14929     649.4884     444.7933
   1426.13403     652.7453     447.1312   1426.13403     652.7453     447.1312
   1426.11877     656.2858     448.1713   1426.11877     656.2858     448.1713
   1426.10352     658.3036     449.2292   1426.10352     658.3036     449.2292
   1426.08826     661.0709     449.8201   1426.08826     661.0709     449.8201
   1426.07300     664.4077     451.7936   1426.07300     664.4077     451.7936
   1426.05774     668.7601     453.9313   1426.05774     668.7601     453.9313
   1426.04248     671.2264     454.2643   1426.04248     671.2264     454.2643
   1426.02722     673.6606     455.8506   1426.02722     673.6606     455.8506
   1426.01196     677.0219     456.8314   1426.01196     677.0219     456.8314
   1425.99670     680.8618     458.1122   1425.99670     680.8618     458.1122
   1425.98145     682.1373     459.4713   1425.98145     682.1373     459.4713
   1425.96619     685.2441     460.6789   1425.96619     685.2441     460.6789
   1425.95093     688.2430     461.5971   1425.95093     688.2430     461.5971
   1425.93567     690.2849     462.4992   1425.93567     690.2849     462.4992
   1425.92041     693.2615     463.7585   1425.92041     693.2615     463.7585
   1425.90515     695.9057     464.7072   1425.90515     695.9057     464.7072
   1425.88989     699.1766     466.4305   1425.88989     699.1766     466.4305
   1425.87463     700.4875     467.1794   1425.87463     700.4875     467.1794
   1425.85938     704.4506     468.8975   1425.85938     704.4506     468.8975
   1425.84412     707.5275     468.9637   1425.84412     707.5275     468.9637
   1425.82886     708.2087     470.2109   1425.82886     708.2087     470.2109
   1425.81360     711.9590     470.9619   1425.81360     711.9590     470.9619
   1425.79834     713.1034     472.1671   1425.79834     713.1034     472.1671
   1425.78308     716.6747     473.1374   1425.78308     716.6747     473.1374
   1425.76782     719.3010     474.5999   1425.76782     719.3010     474.5999
   1425.75256     721.1411     475.1785   1425.75256     721.1411     475.1785
   1425.73730     722.8619     475.9736   1425.73730     722.8619     475.9736
   1425.72205     725.6096     477.1349   1425.72205     725.6096     477.1349
   1425.70679     726.4338     478.4496   1425.70679     726.4338     478.4496
   1425.69153     729.7787     478.9968   1425.69153     729.7787     478.9968
   1425.67627     732.3849     480.1081   1425.67627     732.3849     480.1081
   1425.66101     734.3156     480.2568   1425.66101     734.3156     480.2568
   1425.64575     737.3359     481.2571   1425.64575     737.3359     481.2571
   1425.63049     737.9573     482.3067   1425.63049     737.9573     482.3067
   1425.61523     740.8585     483.6768   1425.61523     740.8585     483.6768
   1425.59998     741.9556     483.9257   1425.59998     741.9556     483.9257
   1425.58472     744.2082     484.4272   1425.58472     744.2082     484.4272
   1425.56946     746.3329     485.8929   1425.56946     746.3329     485.8929
   1425.55420     747.2194     487.0853   1425.55420     747.2194     487.0853
   1425.53894     749.7365     487.2396   1425.53894     749.7365     487.2396
   1425.52368     751.5938     487.8012   1425.52368     751.5938     487.8012
   1425.50842     753.3704     488.1351   1425.50842     753.3704     488.1351
   1425.49316     754.8463     490.1621   1425.49316     754.8463     490.1621
   1425.47791     755.6180     490.3087   1425.47791     755.6180     490.3087
   1425.46265     757.6512     491.3362   1425.46265     757.6512     491.3362
   1425.44739     761.1569     491.4873   1425.44739     761.1569     491.4873
   1425.43213     762.1592     492.8394   1425.43213     762.1592     492.8394
   1425.41687     762.3691     493.5061   1425.41687     762.3691     493.5061
   1425.40161     764.4762     494.1388   1425.40161     764.4762     494.1388
   1425.38635     766.3317     494.6678   1425.38635     766.3317     494.6678
   1425.37109     766.7930     494.5393   1425.37109     766.7930     494.5393
   1425.35583     768.0897     495.8986   1425.35583     768.0897     495.8986
   1425.34058     769.4218     495.9055   1425.34058     769.4218     495.9055
   1425.32532     771.3456     497.1424   1425.32532     771.3456     497.1424
   1425.31006     772.8609     495.9449   1425.31006     772.8609     495.9449
   1425.29480     773.8223     497.7308   1425.29480     773.8223     497.7308
   1425.27954     775.3112     498.9744   1425.27954     775.3112     498.9744
   1425.26428     777.1121     499.0405   1425.26428     777.1121     499.0405
   1425.24902     777.8607     500.2395   1425.24902     777.8607     500.2395
   1425.23376     778.2226     500.4461   1425.23376     778.2226     500.4461
   1425.21851     780.8520     501.4359   1425.21851     780.8520     501.4359
   1425.20325     781.3879     501.6417   1425.20325     781.3879     501.6417
   1425.18799     780.3964     502.2679   1425.18799     780.3964     502.2679
   1425.17273     782.3860     502.1679   1425.17273     782.3860     502.1679
   1425.15747     784.3387     502.5496   1425.15747     784.3387     502.5496
   1425.14221     783.9016     504.5084   1425.14221     783.9016     504.5084
   1425.12695     784.7527     504.3272   1425.12695     784.7527     504.3272
   1425.11169     786.2833     504.7783   1425.11169     786.2833     504.7783
   1425.09644     786.4669     504.9622   1425.09644     786.4669     504.9622
   1425.08118     787.4161     505.7852   1425.08118     787.4161     505.7852
   1425.06592     789.4764     506.0350   1425.06592     789.4764     506.0350
   1425.05066     788.0378     506.5465   1425.05066     788.0378     506.5465
   1425.03540     789.2540     507.2317   1425.03540     789.2540     507.2317
   1425.02014     790.7457     507.3203   1425.02014     790.7457     507.3203
   1425.00488     790.5517     507.8048   1425.00488     790.5517     507.8048
   1424.98962     792.1108     508.7146   1424.98962     792.1108     508.7146
   1424.97437     791.9454     508.7661   1424.97437     791.9454     508.7661
   1424.95911     792.4740     509.1197   1424.95911     792.4740     509.1197
   1424.94385     793.5205     509.8854   1424.94385     793.5205     509.8854
   1424.92859     793.5469     510.1126   1424.92859     793.5469     510.1126
   1424.91333     792.7366     510.0152   1424.91333     792.7366     510.0152
   1424.89807     793.9436     510.3535   1424.89807     793.9436     510.3535
   1424.88281     794.9072     510.4238   1424.88281     794.9072     510.4238
   1424.86755     795.0507     511.2649   1424.86755     795.0507     511.2649
   1424.85229     794.7054     511.9987   1424.85229     794.7054     511.9987
   1424.83704     794.8699     512.7022   1424.83704     794.8699     512.7022
   1424.82178     795.4964     512.1048   1424.82178     795.4964     512.1048
   1424.80652     796.2944     512.8778   1424.80652     796.2944     512.8778
   1424.79126     795.3915     512.4639   1424.79126     795.3915     512.4639
   1424.77600     796.0349     513.1328   1424.77600     796.0349     513.1328
   1424.76074     796.5335     513.4311   1424.76074     796.5335     513.4311
   1424.74548     796.5695     514.6964   1424.74548     796.5695     514.6964
   1424.73022     797.0051     514.4041   1424.73022     797.0051     514.4041
   1424.71497     795.9088     514.5795   1424.71497     795.9088     514.5795
   1424.69971     795.8915     515.5906   1424.69971     795.8915     515.5906
   1424.68445     795.8839     515.2640   1424.68445     795.8839     515.2640
   1424.66919     795.8754     515.3224   1424.66919     795.8754     515.3224
   1424.65393     794.9561     515.0919   1424.65393     794.9561     515.0919
   1424.63867     796.8178     516.2318   1424.63867     796.8178     516.2318
   1424.62341     796.5543     515.2488   1424.62341     796.5543     515.2488
   1424.60815     794.9626     516.2163   1424.60815     794.9626     516.2163
   1424.59290     795.2177     516.7938   1424.59290     795.2177     516.7938
   1424.57764     794.9688     517.1355   1424.57764     794.9688     517.1355
   1424.56238     795.3187     518.0553   1424.56238     795.3187     518.0553
   1424.54712     795.0211     517.5339   1424.54712     795.0211     517.5339
   1424.53186     794.7753     518.1555   1424.53186     794.7753     518.1555
   1424.51660     794.2139     517.7437   1424.51660     794.2139     517.7437
   1424.50134     793.1185     518.3150   1424.50134     793.1185     518.3150
   1424.48608     793.0795     517.3503   1424.48608     793.0795     517.3503
   1424.47083     793.7071     518.4922   1424.47083     793.7071     518.4922
   1424.45557     793.6013     519.1440   1424.45557     793.6013     519.1440
   1424.44031     792.1447     518.7128   1424.44031     792.1447     518.7128
   1424.42505     792.5920     518.7827   1424.42505     792.5920     518.7827
   1424.40979     792.5349     519.5097   1424.40979     792.5349     519.5097
   1424.39453     791.0961     518.9996   1424.39453     791.0961     518.9996
   1424.37927     791.3958     519.6560   1424.37927     791.3958     519.6560
   1424.36401     789.5334     519.5583   1424.36401     789.5334     519.5583
   1424.34875     791.1791     519.5438   1424.34875     791.1791     519.5438
   1424.33350     791.0641     520.2050   1424.33350     791.0641     520.2050
   1424.31824     789.3843     520.4462   1424.31824     789.3843     520.4462
   1424.30298     786.6676     520.8402   1424.30298     786.6676     520.8402
   1424.28772     788.2293     519.9130   1424.28772     788.2293     519.9130
   1424.27246     786.5505     520.0528   1424.27246     786.5505     520.0528
   1424.25720     787.3750     520.7544   1424.25720     787.3750     520.7544
   1424.24194     786.7941     520.6680   1424.24194     786.7941     520.6680
   1424.22668     785.8372     520.8854   1424.22668     785.8372     520.8854
   1424.21143     785.9802     520.9810   1424.21143     785.9802     520.9810
   1424.19617     784.9318     519.8772   1424.19617     784.9318     519.8772
   1424.18091     783.5414     520.9419   1424.18091     783.5414     520.9419
   1424.16565     782.9316     521.2779   1424.16565     782.9316     521.2779
   1424.15039     782.2917     520.7070   1424.15039     782.2917     520.7070
   1424.13513     782.1366     520.6531   1424.13513     782.1366     520.6531
   1424.11987     782.6786     520.3220   1424.11987     782.6786     520.3220
   1424.10461     781.0876     521.3586   1424.10461     781.0876     521.3586
   1424.08936     780.3577     521.4630   1424.08936     780.3577     521.4630
   1424.07410     780.3610     520.9404   1424.07410     780.3610     520.9404
   1424.05884     778.4254     521.7262   1424.05884     778.4254     521.7262
   1424.04358     778.1594     520.8657   1424.04358     778.1594     520.8657
   1424.02832     777.0026     521.0672   1424.02832     777.0026     521.0672
   1424.01306     775.6586     520.4348   1424.01306     775.6586     520.4348
   1423.99780     775.8908     521.1206   1423.99780     775.8908     521.1206
   1423.98254     775.7817     521.4626   1423.98254     775.7817     521.4626
   1423.96729     774.8586     521.5924   1423.96729     774.8586     521.5924
   1423.95203     773.8534     521.0886   1423.95203     773.8534     521.0886
   1423.93677     773.6071     521.4095   1423.93677     773.6071     521.4095
   1423.92151     772.1242     521.3022   1423.92151     772.1242     521.3022
   1423.90625     771.1827     521.5049   1423.90625     771.1827     521.5049
   1423.89099     770.6799     520.7859   1423.89099     770.6799     520.7859
   1423.87573     769.7971     520.8699   1423.87573     769.7971     520.8699
   1423.86047     769.2453     520.3230   1423.86047     769.2453     520.3230
   1423.84521     768.4020     520.0246   1423.84521     768.4020     520.0246
   1423.82996     768.1615     520.6265   1423.82996     768.1615     520.6265
   1423.81470     767.2899     520.3071   1423.81470     767.2899     520.3071
   1423.79944     765.7339     520.2898   1423.79944     765.7339     520.2898
   1423.78418     765.2850     520.4951   1423.78418     765.2850     520.4951
   1423.76892     763.3992     519.8904   1423.76892     763.3992     519.8904
   1423.75366     763.3069     520.0886   1423.75366     763.3069     520.0886
   1423.73840     762.3546     519.6302   1423.73840     762.3546     519.6302
   1423.72314     762.2469     519.6144   1423.72314     762.2469     519.6144
   1423.70789     761.2474     519.7692   1423.70789     761.2474     519.7692
   1423.69263     761.0319     519.2122   1423.69263     761.0319     519.2122
   1423.67737     759.5513     519.9353   1423.67737     759.5513     519.9353
   1423.66211     758.9565     519.1902   1423.66211     758.9565     519.1902
   1423.64685     758.4636     518.4135   1423.64685     758.4636     518.4135
   1423.63159     757.5461     518.5314   1423.63159     757.5461     518.5314
   1423.61633     755.3975     519.3524   1423.61633     755.3975     519.3524
   1423.60107     756.0964     518.1019   1423.60107     756.0964     518.1019
   1423.58582     755.0066     518.2984   1423.58582     755.0066     518.2984
   1423.57056     752.9777     517.7788   1423.57056     752.9777     517.7788
   1423.55530     752.4838     516.9786   1423.55530     752.4838     516.9786
   1423.54004     752.5322     517.4312   1423.54004     752.5322     517.4312
   1423.52478     751.4436     517.6138   1423.52478     751.4436     517.6138
   1423.50952     751.4597     516.9885   1423.50952     751.4597     516.9885
   1423.49426     750.8011     517.1199   1423.49426     750.8011     517.1199
   1423.47900     749.2692     516.4954   1423.47900     749.2692     516.4954
   1423.46375     749.1981     515.5772   1423.46375     749.1981     515.5772
   1423.44849     748.7391     515.8424   1423.44849     748.7391     515.8424
   1423.43323     747.1616     516.0435   1423.43323     747.1616     516.0435
   1423.41797     746.8140     515.5057   1423.41797     746.8140     515.5057
   1423.40271     746.6703     514.6570   1423.40271     746.6703     514.6570
   1423.38745     744.5775     514.6581   1423.38745     744.5775     514.6581
   1423.37219     745.0582     514.9440   1423.37219     745.0582     514.9440
   1423.35693     744.3727     514.7465   1423.35693     744.3727     514.7465
   1423.34167     742.2796     513.7548   1423.34167     742.2796     513.7548
   1423.32642     742.5490     513.5262   1423.32642     742.5490     513.5262
   1423.31116     742.7013     512.3962   1423.31116     742.7013     512.3962
   1423.29590     741.0173     513.1085   1423.29590     741.0173     513.1085
   1423.28064     740.4392     512.7979   1423.28064     740.4392     512.7979
   1423.26538     738.9394     512.2415   1423.26538     738.9394     512.2415
   1423.25012     739.1898     512.1877   1423.25012     739.1898     512.1877
   1423.23486     737.7823     510.2603   1423.23486     737.7823     510.2603
   1423.21960     738.3966     511.0978   1423.21960     738.3966     511.0978
   1423.20435     736.6982     510.2690   1423.20435     736.6982     510.2690
   1423.18909     736.1482     509.7628   1423.18909     736.1482     509.7628
   1423.17383     736.2661     510.1481   1423.17383     736.2661     510.1481
   1423.15857     734.5919     508.6916   1423.15857     734.5919     508.6916
   1423.14331     734.0860     508.0369   1423.14331     734.0860     508.0369
   1423.12805     733.0032     508.1346   1423.12805     733.0032     508.1346
   1423.11279     732.4678     507.2384   1423.11279     732.4678     507.2384
   1423.09753     731.6503     507.7611   1423.09753     731.6503     507.7611
   1423.08228     731.9860     506.7477   1423.08228     731.9860     506.7477
   1423.06702     731.0967     505.4846   1423.06702     731.0967     505.4846
   1423.05176     730.4012     506.2405   1423.05176     730.4012     506.2405
   1423.03650     730.1147     505.8619   1423.03650     730.1147     505.8619
   1423.02124     729.1312     505.0177   1423.02124     729.1312     505.0177
   1423.00598     729.3382     503.1774   1423.00598     729.3382     503.1774
   1422.99072     729.3563     503.4808   1422.99072     729.3563     503.4808
   1422.97546     727.2683     503.2151   1422.97546     727.2683     503.2151
   1422.96021     727.3019     502.0945   1422.96021     727.3019     502.0945
   1422.94495     726.5137     501.5027   1422.94495     726.5137     501.5027
   1422.92969     725.1282     500.7299   1422.92969     725.1282     500.7299
   1422.91443     725.5010     501.1474   1422.91443     725.5010     501.1474
   1422.89917     726.0916     500.6671   1422.89917     726.0916     500.6671
   1422.88391     724.3689     498.9958   1422.88391     724.3689     498.9958
   1422.86865     724.6334     499.1566   1422.86865     724.6334     499.1566
   1422.85339     723.4120     498.5018   1422.85339     723.4120     498.5018
   1422.83813     723.6981     497.3996   1422.83813     723.6981     497.3996
   1422.82288     723.0438     496.9641   1422.82288     723.0438     496.9641
   1422.80762     721.7681     495.9469   1422.80762     721.7681     495.9469
   1422.79236     723.4094     496.3657   1422.79236     723.4094     496.3657
   1422.77710     720.8608     494.6638   1422.77710     720.8608     494.6638
   1422.76184     720.1199     494.0678   1422.76184     720.1199     494.0678
   1422.74658     719.8304     494.6415   1422.74658     719.8304     494.6415
   1422.73132     720.9186     493.9767   1422.73132     720.9186     493.9767
   1422.71606     718.4980     493.3391   1422.71606     718.4980     493.3391
   1422.70081     719.1213     492.5700   1422.70081     719.1213     492.5700
   1422.68555     719.1298     490.5643   1422.68555     719.1298     490.5643
   1422.67029     718.0124     490.2481   1422.67029     718.0124     490.2481
   1422.65503     717.2110     489.7438   1422.65503     717.2110     489.7438
   1422.63977     717.6282     488.1266   1422.63977     717.6282     488.1266
   1422.62451     716.2858     488.6183   1422.62451     716.2858     488.6183
   1422.60925     716.1779     487.8335   1422.60925     716.1779     487.8335
   1422.59399     716.8197     487.3901   1422.59399     716.8197     487.3901
   1422.57874     716.1066     486.4298   1422.57874     716.1066     486.4298
   1422.56348     715.5696     485.3724   1422.56348     715.5696     485.3724
   1422.54822     714.6445     484.4678   1422.54822     714.6445     484.4678
   1422.53296     715.0998     483.8510   1422.53296     715.0998     483.8510
   1422.51770     713.9304     482.6340   1422.51770     713.9304     482.6340
   1422.50244     712.8835     482.1807   1422.50244     712.8835     482.1807
   1422.48718     712.7016     481.9979   1422.48718     712.7016     481.9979
   1422.47192     712.5580     480.5649   1422.47192     712.5580     480.5649
   1422.45667     712.7053     480.2182   1422.45667     712.7053     480.2182
   1422.44141     713.4963     479.3135   1422.44141     713.4963     479.3135
   1422.42615     711.2764     478.3979   1422.42615     711.2764     478.3979
   1422.41089     711.8578     477.5185   1422.41089     711.8578     477.5185
   1422.39563     710.2454     476.9925   1422.39563     710.2454     476.9925
   1422.38037     710.6995     475.7646   1422.38037     710.6995     475.7646
   1422.36511     711.3195     475.0034   1422.36511     711.3195     475.0034
   1422.34985     710.1890     474.4963   1422.34985     710.1890     474.4963
   1422.33459     710.9685     473.0341   1422.33459     710.9685     473.0341
   1422.31934     709.7673     472.2166   1422.31934     709.7673     472.2166
   1422.30408     710.3090     470.9470   1422.30408     710.3090     470.9470
   1422.28882     709.6092     471.4076   1422.28882     709.6092     471.4076
   1422.27356     708.5064     471.1188   1422.27356     708.5064     471.1188
   1422.25830     708.7291     469.3703   1422.25830     708.7291     469.3703
   1422.24304     708.9095     468.3582   1422.24304     708.9095     468.3582
   1422.22778     708.9952     466.6806   1422.22778     708.9952     466.6806
   1422.21252     708.6599     466.1090   1422.21252     708.6599     466.1090
   1422.19727     708.3032     465.0424   1422.19727     708.3032     465.0424
   1422.18201     708.4946     464.4342   1422.18201     708.4946     464.4342
   1422.16675     706.9171     464.3784   1422.16675     706.9171     464.3784
   1422.15149     706.1777     462.9922   1422.15149     706.1777     462.9922
   1422.13623     705.7751     462.0776   1422.13623     705.7751     462.0776
   1422.12097     706.1028     460.9500   1422.12097     706.1028     460.9500
   1422.10571     706.9820     459.5463   1422.10571     706.9820     459.5463
   1422.09045     707.0404     459.5111   1422.09045     707.0404     459.5111
   1422.07520     706.6891     458.5093   1422.07520     706.6891     458.5093
   1422.05994     705.2511     457.5054   1422.05994     705.2511     457.5054
   1422.04468     705.7468     456.5439   1422.04468     705.7468     456.5439
   1422.02942     705.9581     455.8989   1422.02942     705.9581     455.8989
   1422.01416     705.0445     454.4622   1422.01416     705.0445     454.4622
   1421.99890     707.4172     454.1129   1421.99890     707.4172     454.1129
   1421.98364     704.8058     452.6790   1421.98364     704.8058     452.6790
   1421.96838     705.3395     451.4429   1421.96838     705.3395     451.4429
   1421.95312     704.1964     451.3851   1421.95312     704.1964     451.3851
   1421.93787     704.3549     449.4832   1421.93787     704.3549     449.4832
   1421.92261     703.6028     448.9816   1421.92261     703.6028     448.9816
   1421.90735     704.2518     447.7707   1421.90735     704.2518     447.7707
   1421.89209     703.9997     446.9357   1421.89209     703.9997     446.9357
   1421.87683     704.1000     446.1084   1421.87683     704.1000     446.1084
   1421.86157     703.6018     445.6925   1421.86157     703.6018     445.6925
   1421.84631     704.3900     443.7229   1421.84631     704.3900     443.7229
   1421.83105     702.7839     443.0913   1421.83105     702.7839     443.0913
   1421.81580     702.8448     442.2404   1421.81580     702.8448     442.2404
   1421.80054     702.1016     440.9092   1421.80054     702.1016     440.9092
   1421.78528     701.5031     439.6502   1421.78528     701.5031     439.6502
   1421.77002     702.4445     439.5042   1421.77002     702.4445     439.5042
   1421.75476     703.3536     438.4792   1421.75476     703.3536     438.4792
   1421.73950     701.8521     436.8236   1421.73950     701.8521     436.8236
   1421.72424     701.7415     435.8966   1421.72424     701.7415     435.8966
   1421.70898     702.1005     435.0441   1421.70898     702.1005     435.0441
   1421.69373     701.4199     434.5422   1421.69373     701.4199     434.5422
   1421.67847     700.6069     433.1270   1421.67847     700.6069     433.1270
   1421.66321     701.2634     431.8503   1421.66321     701.2634     431.8503
   1421.64795     700.0821     431.1852   1421.64795     700.0821     431.1852
   1421.63269     701.2836     430.8570   1421.63269     701.2836     430.8570
   1421.61743     700.6118     429.3859   1421.61743     700.6118     429.3859
   1421.60217     701.5264     428.0819   1421.60217     701.5264     428.0819
   1421.58691     699.7073     427.8093   1421.58691     699.7073     427.8093
   1421.57166     699.8354     426.6385   1421.57166     699.8354     426.6385
   1421.55640     699.7055     425.1757   1421.55640     699.7055     425.1757
   1421.54114     698.2208     425.0080   1421.54114     698.2208     425.0080
   1421.52588     698.5728     422.7677   1421.52588     698.5728     422.7677
   1421.51062     699.3109     422.4363   1421.51062     699.3109     422.4363
   1421.49536     699.3852     421.4541   1421.49536     699.3852     421.4541
   1421.48010     697.0797     420.4386   1421.48010     697.0797     420.4386
   1421.46484     697.6703     419.3448   1421.46484     697.6703     419.3448
   1421.44958     698.1452     418.1066   1421.44958     698.1452     418.1066
   1421.43433     698.3422     417.3410   1421.43433     698.3422     417.3410
   1421.41907     698.5313     416.9660   1421.41907     698.5313     416.9660
   1421.40381     697.8441     415.7288   1421.40381     697.8441     415.7288
   1421.38855     697.8413     414.0648   1421.38855     697.8413     414.0648
   1421.37329     697.0036     413.2457   1421.37329     697.0036     413.2457
   1421.35803     696.9862     412.6932   1421.35803     696.9862     412.6932
   1421.34277     697.0870     411.1090   1421.34277     697.0870     411.1090
   1421.32751     696.2943     410.2659   1421.32751     696.2943     410.2659
   1421.31226     695.8107     409.0500   1421.31226     695.8107     409.0500
   1421.29700     696.8665     408.2609   1421.29700     696.8665     408.2609
   1421.28174     696.1921     407.2777   1421.28174     696.1921     407.2777
   1421.26648     696.3480     406.2703   1421.26648     696.3480     406.2703
   1421.25122     696.0341     405.5160   1421.25122     696.0341     405.5160
   1421.23596     696.2075     404.8342   1421.23596     696.2075     404.8342
   1421.22070     696.5901     403.5240   1421.22070     696.5901     403.5240
   1421.20544     696.1783     402.5640   1421.20544     696.1783     402.5640
   1421.19019     694.4086     401.6614   1421.19019     694.4086     401.6614
   1421.17493     694.5430     401.2280   1421.17493     694.5430     401.2280
   1421.15967     694.2505     399.9513   1421.15967     694.2505     399.9513
   1421.14441     694.0103     398.7248   1421.14441     694.0103     398.7248
   1421.12915     693.6987     398.1169   1421.12915     693.6987     398.1169
   1421.11389     694.6824     397.1532   1421.11389     694.6824     397.1532
   1421.09863     694.0603     396.0319   1421.09863     694.0603     396.0319
   1421.08337     693.7103     394.6037   1421.08337     693.7103     394.6037
   1421.06812     693.4956     394.0342   1421.06812     693.4956     394.0342
   1421.05286     692.2832     393.4836   1421.05286     692.2832     393.4836
   1421.03760     692.9194     391.8543   1421.03760     692.9194     391.8543
   1421.02234     693.1869     391.5560   1421.02234     693.1869     391.5560
   1421.00708     692.7243     390.9739   1421.00708     692.7243     390.9739
   1420.99182     692.7391     389.9376   1420.99182     692.7391     389.9376
   1420.97656     693.9610     389.6521   1420.97656     693.9610     389.6521
   1420.96130     693.0460     388.7709   1420.96130     693.0460     388.7709
   1420.94604     694.4210     387.8909   1420.94604     694.4210     387.8909
   1420.93079     691.8745     386.8923   1420.93079     691.8745     386.8923
   1420.91553     692.8804     386.3444   1420.91553     692.8804     386.3444
   1420.90027     694.0146     384.7217   1420.90027     694.0146     384.7217
   1420.88501     694.5552     384.2086   1420.88501     694.5552     384.2086
   1420.86975     694.7083     384.0271   1420.86975     694.7083     384.0271
   1420.85449     695.6652     383.6029   1420.85449     695.6652     383.6029
   1420.83923     695.2870     382.7965   1420.83923     695.2870     382.7965
   1420.82397     696.8445     382.8934   1420.82397     696.8445     382.8934
   1420.80872     696.6393     382.4291   1420.80872     696.6393     382.4291
   1420.79346     699.1137     382.3274   1420.79346     699.1137     382.3274
   1420.77820     699.1091     381.5450   1420.77820     699.1091     381.5450
   1420.76294     700.3273     381.4831   1420.76294     700.3273     381.4831
   1420.74768     700.2038     381.1349   1420.74768     700.2038     381.1349
   1420.73242     701.0144     380.4338   1420.73242     701.0144     380.4338
   1420.71716     701.2260     379.4612   1420.71716     701.2260     379.4612
   1420.70190     701.1000     379.8980   1420.70190     701.1000     379.8980
   1420.68665     701.6332     378.9650   1420.68665     701.6332     378.9650
   1420.67139     702.8043     378.5858   1420.67139     702.8043     378.5858
   1420.65613     702.9141     377.2783   1420.65613     702.9141     377.2783
   1420.64087     703.0751     377.4295   1420.64087     703.0751     377.4295
   1420.62561     702.0195     376.2979   1420.62561     702.0195     376.2979
   1420.61035     702.7598     376.1643   1420.61035     702.7598     376.1643
   1420.59509     703.6776     375.5935   1420.59509     703.6776     375.5935
   1420.57983     703.4407     375.6178   1420.57983     703.4407     375.6178
   1420.56458     704.9731     374.7610   1420.56458     704.9731     374.7610
   1420.54932     705.2489     374.7047   1420.54932     705.2489     374.7047
   1420.53406     706.9960     373.8861   1420.53406     706.9960     373.8861
   1420.51880     707.2169     374.1440   1420.51880     707.2169     374.1440
   1420.50354     707.1818     373.2448   1420.50354     707.1818     373.2448
   1420.48828     706.2213     372.8443   1420.48828     706.2213     372.8443
   1420.47302     707.6426     372.5471   1420.47302     707.6426     372.5471
   1420.45776     708.5193     372.0237   1420.45776     708.5193     372.0237
   1420.44250     709.5941     372.3883   1420.44250     709.5941     372.3883
   1420.42725     712.1204     372.3026   1420.42725     712.1204     372.3026
   1420.41199     714.0572     373.4195   1420.41199     714.0572     373.4195
   1420.39673     716.6187     373.7709   1420.39673     716.6187     373.7709
   1420.38147     721.7291     375.5443   1420.38147     721.7291     375.5443
   1420.36621     729.7567     378.9749   1420.36621     729.7567     378.9749
   1420.35095     746.6685     386.6366   1420.35095     746.6685     386.6366
   1420.33569     774.2274     399.3936   1420.33569     774.2274     399.3936
   1420.32043     831.8885     428.0783   1420.32043     831.8885     428.0783
   1420.30518     952.2658     486.8195   1420.30518     952.2658     486.8195
   1420.28992    1121.8684     570.1860   1420.28992    1121.8684     570.1860
   1420.27466    1389.3251     700.6005   1420.27466    1389.3251     700.6005
   1420.25940    1785.3823     898.6122   1420.25940    1785.3823     898.6122
   1420.24414    2060.7485    1036.3315   1420.24414    2060.7485    1036.3315
   1420.22888    2204.5786    1105.0146   1420.22888    2204.5786    1105.0146
   1420.21362    2278.8416    1143.1752   1420.21362    2278.8416    1143.1752
   1420.19836    2233.2161    1116.4023   1420.19836    2233.2161    1116.4023
   1420.18311    2136.1033    1066.2477   1420.18311    2136.1033    1066.2477
   1420.16785    2093.4744    1043.3318   1420.16785    2093.4744    1043.3318
   1420.15259    2011.3297    1001.5028   1420.15259    2011.3297    1001.5028
   1420.13733    1778.6177     885.7378   1420.13733    1778.6177     885.7378
   1420.12207    1509.7886     752.7977   1420.12207    1509.7886     752.7977
   1420.10681    1238.9485     619.0548   1420.10681    1238.9485     619.0548
   1420.09155     968.0757     485.2617   1420.09155     968.0757     485.2617
   1420.07629     820.9620     413.0846   1420.07629     820.9620     413.0846
   1420.06104     760.7115     382.6400   1420.06104     760.7115     382.6400
   1420.04578     729.2991     367.8030   1420.04578     729.2991     367.8030
   1420.03052     713.3949     359.6306   1420.03052     713.3949     359.6306
   1420.01526     703.9902     355.2590   1420.01526     703.9902     355.2590
   1420.00000     700.7992     352.7756   1420.00000     700.7992     352.7756
   1419.98474     697.6083     350.2921   1419.98474     697.6083     350.2921
   1419.96948     693.2120     347.6783   1419.96948     693.2120     347.6783
   1419.95422     688.7142     345.6367   1419.95422     688.7142     345.6367
   1419.93896     688.4968     344.6433   1419.93896     688.4968     344.6433
   1419.92371     688.4077     344.0391   1419.92371     688.4077     344.0391
   1419.90845     685.6093     342.8230   1419.90845     685.6093     342.8230
   1419.89319     686.9069     342.2932   1419.89319     686.9069     342.2932
   1419.87793     686.3539     341.3356   1419.87793     686.3539     341.3356
   1419.86267     685.6743     340.9582   1419.86267     685.6743     340.9582
   1419.84741     684.0981     340.6259   1419.84741     684.0981     340.6259
   1419.83215     684.7602     340.1210   1419.83215     684.7602     340.1210
   1419.81689     684.5510     339.1241   1419.81689     684.5510     339.1241
   1419.80164     685.2792     339.5002   1419.80164     685.2792     339.5002
   1419.78638     684.2130     338.6607   1419.78638     684.2130     338.6607
   1419.77112     684.5782     338.5078   1419.77112     684.5782     338.5078
   1419.75586     685.0389     338.3182   1419.75586     685.0389     338.3182
   1419.74060     685.1364     337.5339   1419.74060     685.1364     337.5339
   1419.72534     683.7682     337.7219   1419.72534     683.7682     337.7219
   1419.71008     683.8672     336.6184   1419.71008     683.8672     336.6184
   1419.69482     684.9238     337.4212   1419.69482     684.9238     337.4212
   1419.67957     684.4575     336.8638   1419.67957     684.4575     336.8638
   1419.66431     685.1542     336.4322   1419.66431     685.1542     336.4322
   1419.64905     686.0916     336.2573   1419.64905     686.0916     336.2573
   1419.63379     684.4500     335.8958   1419.63379     684.4500     335.8958
   1419.61853     685.7582     335.7510   1419.61853     685.7582     335.7510
   1419.60327     685.3966     335.6110   1419.60327     685.3966     335.6110
   1419.58801     686.5304     335.2567   1419.58801     686.5304     335.2567
   1419.57275     685.9507     335.4346   1419.57275     685.9507     335.4346
   1419.55750     686.2034     335.6996   1419.55750     686.2034     335.6996
   1419.54224     686.5046     335.0639   1419.54224     686.5046     335.0639
   1419.52698     687.0616     335.1255   1419.52698     687.0616     335.1255
   1419.51172     687.5320     334.4607   1419.51172     687.5320     334.4607
   1419.49646     686.4849     335.0963   1419.49646     686.4849     335.0963
   1419.48120     687.5884     334.7766   1419.48120     687.5884     334.7766
   1419.46594     687.4956     334.5328   1419.46594     687.4956     334.5328
   1419.45068     687.3148     334.5636   1419.45068     687.3148     334.5636
   1419.43542     689.2471     335.1450   1419.43542     689.2471     335.1450
   1419.42017     689.0981     334.8099   1419.42017     689.0981     334.8099
   1419.40491     689.4554     334.0307   1419.40491     689.4554     334.0307
   1419.38965     689.6173     334.4328   1419.38965     689.6173     334.4328
   1419.37439     690.0043     334.7236   1419.37439     690.0043     334.7236
   1419.35913     691.0623     334.3061   1419.35913     691.0623     334.3061
   1419.34387     690.1509     335.1152   1419.34387     690.1509     335.1152
   1419.32861     689.4560     334.9674   1419.32861     689.4560     334.9674
   1419.31335     689.8979     334.9329   1419.31335     689.8979     334.9329
   1419.29810     691.2944     334.8597   1419.29810     691.2944     334.8597
   1419.28284     690.9188     334.8134   1419.28284     690.9188     334.8134
   1419.26758     692.0034     334.5197   1419.26758     692.0034     334.5197
   1419.25232     692.0535     335.3155   1419.25232     692.0535     335.3155
   1419.23706     692.6257     335.0804   1419.23706     692.6257     335.0804
   1419.22180     692.5540     335.3192   1419.22180     692.5540     335.3192
   1419.20654     692.8049     334.9509   1419.20654     692.8049     334.9509
   1419.19128     693.3242     335.2320   1419.19128     693.3242     335.2320
   1419.17603     694.0591     335.5836   1419.17603     694.0591     335.5836
   1419.16077     694.8770     335.7174   1419.16077     694.8770     335.7174
   1419.14551     694.9894     335.6989   1419.14551     694.9894     335.6989
   1419.13025     695.3491     336.0002   1419.13025     695.3491     336.0002
   1419.11499     696.2509     335.9875   1419.11499     696.2509     335.9875
   1419.09973     696.2384     336.3359   1419.09973     696.2384     336.3359
   1419.08447     695.9780     336.9104   1419.08447     695.9780     336.9104
   1419.06921     696.2072     337.0841   1419.06921     696.2072     337.0841
   1419.05396     696.8689     336.3551   1419.05396     696.8689     336.3551
   1419.03870     696.8886     336.7092   1419.03870     696.8886     336.7092
   1419.02344     697.2344     336.7967   1419.02344     697.2344     336.7967
   1419.00818     697.6057     337.8231   1419.00818     697.6057     337.8231
   1418.99292     698.3809     337.6498   1418.99292     698.3809     337.6498
   1418.97766     699.5119     338.3165   1418.97766     699.5119     338.3165
   1418.96240     699.6541     338.6111   1418.96240     699.6541     338.6111
   1418.94714     700.7190     338.8942   1418.94714     700.7190     338.8942
   1418.93188     700.8397     339.6742   1418.93188     700.8397     339.6742
   1418.91663     701.3746     339.4763   1418.91663     701.3746     339.4763
   1418.90137     702.1273     339.7428   1418.90137     702.1273     339.7428
   1418.88611     702.5419     340.2095   1418.88611     702.5419     340.2095
   1418.87085     701.8589     340.6345   1418.87085     701.8589     340.6345
   1418.85559     702.1342     341.1351   1418.85559     702.1342     341.1351
   1418.84033     704.2226     341.1599   1418.84033     704.2226     341.1599
   1418.82507     703.7835     341.2984   1418.82507     703.7835     341.2984
   1418.80981     705.2083     341.4005   1418.80981     705.2083     341.4005
   1418.79456     707.4108     342.7052   1418.79456     707.4108     342.7052
   1418.77930     705.4097     342.7908   1418.77930     705.4097     342.7908
   1418.76404     707.6415     343.4166   1418.76404     707.6415     343.4166
   1418.74878     707.7255     343.2061   1418.74878     707.7255     343.2061
   1418.73352     707.4354     344.0724   1418.73352     707.4354     344.0724
   1418.71826     707.2994     344.3550   1418.71826     707.2994     344.3550
   1418.70300     709.5919     344.6544   1418.70300     709.5919     344.6544
   1418.68774     709.9212     345.4057   1418.68774     709.9212     345.4057
   1418.67249     710.6679     345.8175   1418.67249     710.6679     345.8175
   1418.65723     711.4031     346.6584   1418.65723     711.4031     346.6584
   1418.64197     710.9617     346.6118   1418.64197     710.9617     346.6118
   1418.62671     712.1430     347.3799   1418.62671     712.1430     347.3799
   1418.61145     711.4852     347.6563   1418.61145     711.4852     347.6563
   1418.59619     714.0698     348.7529   1418.59619     714.0698     348.7529
   1418.58093     714.1712     349.3625   1418.58093     714.1712     349.3625
   1418.56567     714.1880     349.4916   1418.56567     714.1880     349.4916
   1418.55042     714.8903     350.0436   1418.55042     714.8903     350.0436
   1418.53516     715.6796     350.7016   1418.53516     715.6796     350.7016
   1418.51990     717.3840     351.3644   1418.51990     717.3840     351.3644
   1418.50464     717.0381     352.0389   1418.50464     717.0381     352.0389
   1418.48938     716.7391     352.5602   1418.48938     716.7391     352.5602
   1418.47412     717.5393     353.5947   1418.47412     717.5393     353.5947
   1418.45886     719.3602     354.2658   1418.45886     719.3602     354.2658
   1418.44360     720.3731     353.6667   1418.44360     720.3731     353.6667
   1418.42834     719.9094     355.2171   1418.42834     719.9094     355.2171
   1418.41309     722.1011     355.3133   1418.41309     722.1011     355.3133
   1418.39783     721.0054     356.4386   1418.39783     721.0054     356.4386
   1418.38257     721.7188     356.6826   1418.38257     721.7188     356.6826
   1418.36731     723.3000     357.7616   1418.36731     723.3000     357.7616
   1418.35205     723.9531     358.4872   1418.35205     723.9531     358.4872
   1418.33679     723.5057     358.5767   1418.33679     723.5057     358.5767
   1418.32153     726.2809     359.3083   1418.32153     726.2809     359.3083
   1418.30627     725.9356     360.4920   1418.30627     725.9356     360.4920
   1418.29102     727.4289     361.2160   1418.29102     727.4289     361.2160
   1418.27576     727.7090     362.1820   1418.27576     727.7090     362.1820
   1418.26050     728.7597     362.4377   1418.26050     728.7597     362.4377
   1418.24524     729.5446     363.3520   1418.24524     729.5446     363.3520
   1418.22998     729.7687     364.2400   1418.22998     729.7687     364.2400
   1418.21472     730.1225     365.0219   1418.21472     730.1225     365.0219
   1418.19946     731.4269     365.6194   1418.19946     731.4269     365.6194
   1418.18420     731.2314     366.6147   1418.18420     731.2314     366.6147
   1418.16895     733.6774     367.4424   1418.16895     733.6774     367.4424
   1418.15369     732.4474     367.5456   1418.15369     732.4474     367.5456
   1418.13843     734.7426     368.9951   1418.13843     734.7426     368.9951
   1418.12317     736.5654     369.8266   1418.12317     736.5654     369.8266
   1418.10791     736.8003     370.7991   1418.10791     736.8003     370.7991
   1418.09265     737.8938     371.7257   1418.09265     737.8938     371.7257
   1418.07739     737.3254     372.5808   1418.07739     737.3254     372.5808
   1418.06213     736.8389     372.7795   1418.06213     736.8389     372.7795
   1418.04688     738.7183     374.4846   1418.04688     738.7183     374.4846
   1418.03162     739.3314     374.8132   1418.03162     739.3314     374.8132
   1418.01636     741.9662     375.7360   1418.01636     741.9662     375.7360
   1418.00110     741.0978     376.8983   1418.00110     741.0978     376.8983
   1417.98584     742.7572     377.2151   1417.98584     742.7572     377.2151
   1417.97058     742.9230     378.5612   1417.97058     742.9230     378.5612
   1417.95532     744.0684     379.5839   1417.95532     744.0684     379.5839
   1417.94006     745.7433     380.7929   1417.94006     745.7433     380.7929
   1417.92480     745.5198     381.9925   1417.92480     745.5198     381.9925
   1417.90955     745.6637     382.5494   1417.90955     745.6637     382.5494
   1417.89429     746.9857     383.6883   1417.89429     746.9857     383.6883
   1417.87903     748.3705     384.4576   1417.87903     748.3705     384.4576
   1417.86377     748.1759     384.9173   1417.86377     748.1759     384.9173
   1417.84851     750.1448     386.6462   1417.84851     750.1448     386.6462
   1417.83325     750.1921     387.4416   1417.83325     750.1921     387.4416
   1417.81799     751.5564     388.0822   1417.81799     751.5564     388.0822
   1417.80273     752.7658     389.3964   1417.80273     752.7658     389.3964
   1417.78748     753.4261     390.6640   1417.78748     753.4261     390.6640
   1417.77222     754.2401     391.8837   1417.77222     754.2401     391.8837
   1417.75696     754.7812     392.7511   1417.75696     754.7812     392.7511
   1417.74170     754.8123     393.3586   1417.74170     754.8123     393.3586
   1417.72644     755.7491     394.5561   1417.72644     755.7491     394.5561
   1417.71118     758.1319     395.6323   1417.71118     758.1319     395.6323
   1417.69592     757.4106     397.1746   1417.69592     757.4106     397.1746
   1417.68066     758.0945     398.6480   1417.68066     758.0945     398.6480
   1417.66541     760.4119     399.9159   1417.66541     760.4119     399.9159
   1417.65015     760.3891     400.5146   1417.65015     760.3891     400.5146
   1417.63489     761.2078     401.7943   1417.63489     761.2078     401.7943
   1417.61963     763.1381     401.9083   1417.61963     763.1381     401.9083
   1417.60437     763.1241     404.1721   1417.60437     763.1241     404.1721
   1417.58911     764.3930     404.8641   1417.58911     764.3930     404.8641
   1417.57385     765.6859     405.6656   1417.57385     765.6859     405.6656
   1417.55859     766.0394     407.2300   1417.55859     766.0394     407.2300
   1417.54333     765.8942     408.7939   1417.54333     765.8942     408.7939
   1417.52808     767.0488     408.6388   1417.52808     767.0488     408.6388
   1417.51282     767.1445     410.5513   1417.51282     767.1445     410.5513
   1417.49756     768.6157     411.7748   1417.49756     768.6157     411.7748
   1417.48230     769.2656     412.5172   1417.48230     769.2656     412.5172
   1417.46704     770.4314     413.4618   1417.46704     770.4314     413.4618
   1417.45178     772.0597     415.2273   1417.45178     772.0597     415.2273
   1417.43652     771.6028     416.5919   1417.43652     771.6028     416.5919
   1417.42126     773.2314     417.4111   1417.42126     773.2314     417.4111
   1417.40601     773.1936     418.5716   1417.40601     773.1936     418.5716
   1417.39075     773.8065     419.9250   1417.39075     773.8065     419.9250
   1417.37549     775.3579     421.2787   1417.37549     775.3579     421.2787
   1417.36023     775.9442     422.8524   1417.36023     775.9442     422.8524
   1417.34497     777.7454     423.8011   1417.34497     777.7454     423.8011
   1417.32971     777.5432     424.3097   1417.32971     777.5432     424.3097
   1417.31445     778.6811     425.3537   1417.31445     778.6811     425.3537
   1417.29919     778.9097     426.4191   1417.29919     778.9097     426.4191
   1417.28394     780.6125     427.8386   1417.28394     780.6125     427.8386
   1417.26868     780.9490     429.6381   1417.26868     780.9490     429.6381
   1417.25342     781.8311     429.8348   1417.25342     781.8311     429.8348
   1417.23816     782.7570     430.8245   1417.23816     782.7570     430.8245
   1417.22290     783.4943     432.6758   1417.22290     783.4943     432.6758
   1417.20764     783.7810     433.1483   1417.20764     783.7810     433.1483
   1417.19238     783.9031     434.7230   1417.19238     783.9031     434.7230
   1417.17712     785.6803     435.5507   1417.17712     785.6803     435.5507
   1417.16187     786.0807     437.2129   1417.16187     786.0807     437.2129
   1417.14661     787.2380     437.6448   1417.14661     787.2380     437.6448
   1417.13135     787.1273     440.0753   1417.13135     787.1273     440.0753
   1417.11609     788.5131     440.2963   1417.11609     788.5131     440.2963
   1417.10083     788.9169     440.9563   1417.10083     788.9169     440.9563
   1417.08557     788.0551     442.4671   1417.08557     788.0551     442.4671
   1417.07031     790.6588     444.7671   1417.07031     790.6588     444.7671
   1417.05505     791.3023     445.1655   1417.05505     791.3023     445.1655
   1417.03979     792.0785     446.0701   1417.03979     792.0785     446.0701
   1417.02454     792.4681     447.4362   1417.02454     792.4681     447.4362
   1417.00928     793.7207     447.9702   1417.00928     793.7207     447.9702
   1416.99402     793.5501     449.9077   1416.99402     793.5501     449.9077
   1416.97876     793.6050     449.8603   1416.97876     793.6050     449.8603
   1416.96350     794.8414     451.0919   1416.96350     794.8414     451.0919
   1416.94824     796.3710     452.2217   1416.94824     796.3710     452.2217
   1416.93298     794.9039     453.1561   1416.93298     794.9039     453.1561
   1416.91772     798.1681     454.1145   1416.91772     798.1681     454.1145
   1416.90247     797.3308     455.6144   1416.90247     797.3308     455.6144
   1416.88721     797.9177     456.3160   1416.88721     797.9177     456.3160
   1416.87195     797.4774     457.1548   1416.87195     797.4774     457.1548
   1416.85669     798.6613     457.8557   1416.85669     798.6613     457.8557
   1416.84143     798.8616     458.5421   1416.84143     798.8616     458.5421
   1416.82617     800.0163     460.0684   1416.82617     800.0163     460.0684
   1416.81091     800.1569     460.3390   1416.81091     800.1569     460.3390
   1416.79565     801.9888     461.7275   1416.79565     801.9888     461.7275
   1416.78040     801.0347     462.6495   1416.78040     801.0347     462.6495
   1416.76514     801.6374     462.9579   1416.76514     801.6374     462.9579
   1416.74988     802.8380     464.1892   1416.74988     802.8380     464.1892
   1416.73462     802.0663     464.9385   1416.73462     802.0663     464.9385
   1416.71936     800.9698     465.3773   1416.71936     800.9698     465.3773
   1416.70410     803.9373     465.6452   1416.70410     803.9373     465.6452
   1416.68884     802.3794     466.9701   1416.68884     802.3794     466.9701
   1416.67358     803.5783     467.4067   1416.67358     803.5783     467.4067
   1416.65833     804.6591     468.4958   1416.65833     804.6591     468.4958
   1416.64307     803.9665     468.4796   1416.64307     803.9665     468.4796
   1416.62781     803.8488     469.5154   1416.62781     803.8488     469.5154
   1416.61255     804.7342     470.3959   1416.61255     804.7342     470.3959
   1416.59729     804.5781     471.1642   1416.59729     804.5781     471.1642
   1416.58203     804.6257     471.1101   1416.58203     804.6257     471.1101
   1416.56677     805.3364     471.8121   1416.56677     805.3364     471.8121
   1416.55151     805.5712     472.1718   1416.55151     805.5712     472.1718
   1416.53625     805.5051     472.2978   1416.53625     805.5051     472.2978
   1416.52100     805.7851     472.7995   1416.52100     805.7851     472.7995
   1416.50574     804.7455     473.3223   1416.50574     804.7455     473.3223
   1416.49048     805.3632     473.0034   1416.49048     805.3632     473.0034
   1416.47522     806.9169     473.9204   1416.47522     806.9169     473.9204
   1416.45996     804.9821     475.0123   1416.45996     804.9821     475.0123
   1416.44470     806.3549     474.7031   1416.44470     806.3549     474.7031
   1416.42944     805.6854     475.1046   1416.42944     805.6854     475.1046
   1416.41418     805.6252     474.4697   1416.41418     805.6252     474.4697
   1416.39893     805.3367     475.3082   1416.39893     805.3367     475.3082
   1416.38367     805.7956     475.6960   1416.38367     805.7956     475.6960
   1416.36841     805.4286     475.8387   1416.36841     805.4286     475.8387
   1416.35315     805.9427     476.0990   1416.35315     805.9427     476.0990
   1416.33789     806.3828     476.9447   1416.33789     806.3828     476.9447
   1416.32263     805.8528     476.8928   1416.32263     805.8528     476.8928
   1416.30737     806.0209     476.2836   1416.30737     806.0209     476.2836
   1416.29211     805.0840     476.7828   1416.29211     805.0840     476.7828
   1416.27686     804.4799     475.9467   1416.27686     804.4799     475.9467
   1416.26160     805.5370     476.3518   1416.26160     805.5370     476.3518
   1416.24634     804.7202     476.5884   1416.24634     804.7202     476.5884
   1416.23108     805.2923     477.0954   1416.23108     805.2923     477.0954
   1416.21582     804.7091     476.9778   1416.21582     804.7091     476.9778
   1416.20056     804.9167     477.1056   1416.20056     804.9167     477.1056
   1416.18530     804.1064     477.1249   1416.18530     804.1064     477.1249
   1416.17004     804.6581     477.4057   1416.17004     804.6581     477.4057
   1416.15479     802.9634     476.4160   1416.15479     802.9634     476.4160
   1416.13953     803.5723     476.6161   1416.13953     803.5723     476.6161
   1416.12427     802.0503     476.6319   1416.12427     802.0503     476.6319
   1416.10901     802.0114     476.4166   1416.10901     802.0114     476.4166
   1416.09375     801.5294     476.7032   1416.09375     801.5294     476.7032
   1416.07849     800.6431     476.1627   1416.07849     800.6431     476.1627
   1416.06323     800.2144     476.9789   1416.06323     800.2144     476.9789
   1416.04797     800.6620     475.9560   1416.04797     800.6620     475.9560
   1416.03271     800.2378     475.6522   1416.03271     800.2378     475.6522
   1416.01746     799.7656     475.7246   1416.01746     799.7656     475.7246
   1416.00220     799.6649     476.0061   1416.00220     799.6649     476.0061
   1415.98694     799.9047     475.2657   1415.98694     799.9047     475.2657
   1415.97168     798.5382     475.0730   1415.97168     798.5382     475.0730
   1415.95642     798.3036     474.4033   1415.95642     798.3036     474.4033
   1415.94116     797.4991     474.6658   1415.94116     797.4991     474.6658
   1415.92590     797.0777     474.5171   1415.92590     797.0777     474.5171
   1415.91064     796.7226     474.2828   1415.91064     796.7226     474.2828
   1415.89539     795.0872     473.7914   1415.89539     795.0872     473.7914
   1415.88013     794.4254     473.2536   1415.88013     794.4254     473.2536
   1415.86487     794.2958     472.3225   1415.86487     794.2958     472.3225
   1415.84961     794.2240     473.2638   1415.84961     794.2240     473.2638
   1415.83435     792.9454     472.7800   1415.83435     792.9454     472.7800
   1415.81909     793.4670     472.2794   1415.81909     793.4670     472.2794
   1415.80383     793.6714     471.7742   1415.80383     793.6714     471.7742
   1415.78857     792.1018     471.2142   1415.78857     792.1018     471.2142
   1415.77332     791.6008     471.6309   1415.77332     791.6008     471.6309
   1415.75806     789.7111     471.1376   1415.75806     789.7111     471.1376
   1415.74280     789.6600     469.8147   1415.74280     789.6600     469.8147
   1415.72754     789.3546     470.2123   1415.72754     789.3546     470.2123
   1415.71228     788.4907     469.7405   1415.71228     788.4907     469.7405
   1415.69702     788.1036     468.3322   1415.69702     788.1036     468.3322
   1415.68176     787.5897     468.2949   1415.68176     787.5897     468.2949
   1415.66650     785.2984     468.6516   1415.66650     785.2984     468.6516
   1415.65125     785.2766     468.2182   1415.65125     785.2766     468.2182
   1415.63599     786.2241     467.6220   1415.63599     786.2241     467.6220
   1415.62073     784.7546     466.4144   1415.62073     784.7546     466.4144
   1415.60547     783.5408     466.1138   1415.60547     783.5408     466.1138
   1415.59021     782.9147     466.0840   1415.59021     782.9147     466.0840
   1415.57495     781.8516     464.3661   1415.57495     781.8516     464.3661
   1415.55969     780.7515     464.6992   1415.55969     780.7515     464.6992
   1415.54443     778.7209     464.4510   1415.54443     778.7209     464.4510
   1415.52917     778.1168     463.2592   1415.52917     778.1168     463.2592
   1415.51392     777.2220     462.8235   1415.51392     777.2220     462.8235
   1415.49866     776.7100     462.3719   1415.49866     776.7100     462.3719
   1415.48340     776.3776     461.8707   1415.48340     776.3776     461.8707
   1415.46814     774.9902     460.8670   1415.46814     774.9902     460.8670
   1415.45288     773.8139     461.2849   1415.45288     773.8139     461.2849
   1415.43762     772.8885     459.9265   1415.43762     772.8885     459.9265
   1415.42236     772.0788     459.3474   1415.42236     772.0788     459.3474
   1415.40710     771.5452     459.9131   1415.40710     771.5452     459.9131
   1415.39185     770.4637     459.2081   1415.39185     770.4637     459.2081
   1415.37659     770.6345     457.7815   1415.37659     770.6345     457.7815
   1415.36133     768.8724     456.8004   1415.36133     768.8724     456.8004
   1415.34607     767.5427     456.9258   1415.34607     767.5427     456.9258
   1415.33081     766.3615     455.9874   1415.33081     766.3615     455.9874
   1415.31555     765.2739     456.0342   1415.31555     765.2739     456.0342
   1415.30029     763.7817     454.2227   1415.30029     763.7817     454.2227
   1415.28503     762.9045     454.3598   1415.28503     762.9045     454.3598
   1415.26978     762.0433     453.6522   1415.26978     762.0433     453.6522
   1415.25452     759.8386     452.2169   1415.25452     759.8386     452.2169
   1415.23926     758.8389     452.2018   1415.23926     758.8389     452.2018
   1415.22400     756.9244     450.2974   1415.22400     756.9244     450.2974
   1415.20874     756.6744     450.2142   1415.20874     756.6744     450.2142
   1415.19348     754.8600     449.3878   1415.19348     754.8600     449.3878
   1415.17822     754.8775     448.8156   1415.17822     754.8775     448.8156
   1415.16296     752.9578     448.3817   1415.16296     752.9578     448.3817
   1415.14771     751.7759     447.0532   1415.14771     751.7759     447.0532
   1415.13245     750.1873     446.8107   1415.13245     750.1873     446.8107
   1415.11719     748.9071     446.1945   1415.11719     748.9071     446.1945
   1415.10193     748.4067     444.9792   1415.10193     748.4067     444.9792
   1415.08667     745.5760     444.7701   1415.08667     745.5760     444.7701
   1415.07141     744.5992     442.7896   1415.07141     744.5992     442.7896
   1415.05615     743.6747     442.6949   1415.05615     743.6747     442.6949
   1415.04089     743.1683     441.0911   1415.04089     743.1683     441.0911
   1415.02563     740.4795     440.1466   1415.02563     740.4795     440.1466
   1415.01038     740.2816     440.0063   1415.01038     740.2816     440.0063
   1414.99512     737.7170     438.1248   1414.99512     737.7170     438.1248
   1414.97986     736.8625     438.5170   1414.97986     736.8625     438.5170
   1414.96460     735.2403     437.2516   1414.96460     735.2403     437.2516
   1414.94934     733.7924     435.3669   1414.94934     733.7924     435.3669
   1414.93408     731.2974     434.4611   1414.93408     731.2974     434.4611
   1414.91882     728.9225     434.7595   1414.91882     728.9225     434.7595
   1414.90356     730.1395     433.0358   1414.90356     730.1395     433.0358
   1414.88831     727.2603     432.0704   1414.88831     727.2603     432.0704
   1414.87305     724.0262     430.9515   1414.87305     724.0262     430.9515
   1414.85779     724.1216     429.8269   1414.85779     724.1216     429.8269
   1414.84253     721.3096     429.3823   1414.84253     721.3096     429.3823
   1414.82727     720.1981     428.4608   1414.82727     720.1981     428.4608
   1414.81201     718.4866     427.1692   1414.81201     718.4866     427.1692
   1414.79675     716.6891     426.2737   1414.79675     716.6891     426.2737
   1414.78149     715.0347     424.6387   1414.78149     715.0347     424.6387
   1414.76624     712.7822     423.3091   1414.76624     712.7822     423.3091
   1414.75098     711.1118     422.1719   1414.75098     711.1118     422.1719
   1414.73572     709.0914     421.3528   1414.73572     709.0914     421.3528
   1414.72046     707.2946     420.2484   1414.72046     707.2946     420.2484
   1414.70520     706.1200     418.5860   1414.70520     706.1200     418.5860
   1414.68994     704.0251     417.6838   1414.68994     704.0251     417.6838
   1414.67468     701.9926     417.0970   1414.67468     701.9926     417.0970
   1414.65942     699.9183     415.2801   1414.65942     699.9183     415.2801
   1414.64417     698.4645     414.5980   1414.64417     698.4645     414.5980
   1414.62891     695.6856     413.2333   1414.62891     695.6856     413.2333
   1414.61365     693.2573     411.9508   1414.61365     693.2573     411.9508
   1414.59839     692.0298     411.4140   1414.59839     692.0298     411.4140
   1414.58313     690.3214     409.9845   1414.58313     690.3214     409.9845
   1414.56787     687.2282     408.6378   1414.56787     687.2282     408.6378
   1414.55261     685.3677     406.6959   1414.55261     685.3677     406.6959
   1414.53735     684.7294     405.4895   1414.53735     684.7294     405.4895
   1414.52209     683.0314     403.9597   1414.52209     683.0314     403.9597
   1414.50684     679.6281     403.3996   1414.50684     679.6281     403.3996
   1414.49158     676.9726     402.1097   1414.49158     676.9726     402.1097
   1414.47632     675.6526     400.3806   1414.47632     675.6526     400.3806
   1414.46106     673.3582     399.0726   1414.46106     673.3582     399.0726
   1414.44580     670.5348     397.9906   1414.44580     670.5348     397.9906
   1414.43054     668.7578     395.7766   1414.43054     668.7578     395.7766
   1414.41528     666.5893     394.7592   1414.41528     666.5893     394.7592
   1414.40002     664.3441     393.5796   1414.40002     664.3441     393.5796
   1414.38477     660.9214     392.3828   1414.38477     660.9214     392.3828
   1414.36951     660.1600     390.7612   1414.36951     660.1600     390.7612
   1414.35425     656.6442     389.2312   1414.35425     656.6442     389.2312
   1414.33899     654.3307     387.9311   1414.33899     654.3307     387.9311
   1414.32373     651.7909     386.8292   1414.32373     651.7909     386.8292
   1414.30847     649.6844     385.4044   1414.30847     649.6844     385.4044
   1414.29321     647.2845     384.5230   1414.29321     647.2845     384.5230
   1414.27795     644.2766     382.2028   1414.27795     644.2766     382.2028
   1414.26270     643.0529     380.9164   1414.26270     643.0529     380.9164
   1414.24744     640.9164     379.5332   1414.24744     640.9164     379.5332
   1414.23218     638.0760     377.6326   1414.23218     638.0760     377.6326
   1414.21692     634.9455     376.5175   1414.21692     634.9455     376.5175
   1414.20166     632.5375     375.3925   1414.20166     632.5375     375.3925
   1414.18640     629.5110     373.8458   1414.18640     629.5110     373.8458
   1414.17114     627.8956     372.2476   1414.17114     627.8956     372.2476
   1414.15588     624.0239     370.1981   1414.15588     624.0239     370.1981
   1414.14062     621.8135     368.9119   1414.14062     621.8135     368.9119
   1414.12537     618.5894     367.5136   1414.12537     618.5894     367.5136
   1414.11011     616.9055     366.1149   1414.11011     616.9055     366.1149
   1414.09485     613.4710     365.2129   1414.09485     613.4710     365.2129
   1414.07959     611.3765     363.0010   1414.07959     611.3765     363.0010
   1414.06433     608.5446     361.8515   1414.06433     608.5446     361.8515
   1414.04907     605.1425     360.5641   1414.04907     605.1425     360.5641
   1414.03381     601.7268     358.2723   1414.03381     601.7268     358.2723
   1414.01855     600.7042     356.4916   1414.01855     600.7042     356.4916
   1414.00330     598.2646     355.3481   1414.00330     598.2646     355.3481
   1413.98804     594.7861     353.6519   1413.98804     594.7861     353.6519
   1413.97278     592.1204     352.8322   1413.97278     592.1204     352.8322
   1413.95752     589.7322     351.3583   1413.95752     589.7322     351.3583
   1413.94226     586.7747     348.7464   1413.94226     586.7747     348.7464
   1413.92700     583.5761     347.6941   1413.92700     583.5761     347.6941
   1413.91174     581.1750     346.4919   1413.91174     581.1750     346.4919
   1413.89648     578.4498     344.6588   1413.89648     578.4498     344.6588
   1413.88123     575.8286     342.8775   1413.88123     575.8286     342.8775
   1413.86597     572.7770     340.8648   1413.86597     572.7770     340.8648
   1413.85071     570.0441     339.7450   1413.85071     570.0441     339.7450
   1413.83545     566.2832     338.4955   1413.83545     566.2832     338.4955
   1413.82019     562.9185     336.7762   1413.82019     562.9185     336.7762
   1413.80493     561.0618     334.2295   1413.80493     561.0618     334.2295
   1413.78967     557.7583     333.4804   1413.78967     557.7583     333.4804
   1413.77441     555.9658     332.3499   1413.77441     555.9658     332.3499
   1413.75916     552.3696     330.3120   1413.75916     552.3696     330.3120
   1413.74390     549.7932     328.5277   1413.74390     549.7932     328.5277
   1413.72864     546.8885     327.3524   1413.72864     546.8885     327.3524
   1413.71338     543.8559     325.6922   1413.71338     543.8559     325.6922
   1413.69812     541.8082     324.0258   1413.69812     541.8082     324.0258
   1413.68286     538.1337     322.5752   1413.68286     538.1337     322.5752
   1413.66760     535.5400     320.8584   1413.66760     535.5400     320.8584
   1413.65234     532.2458     319.6540   1413.65234     532.2458     319.6540
   1413.63708     529.1758     318.3575   1413.63708     529.1758     318.3575
   1413.62183     526.8237     316.5253   1413.62183     526.8237     316.5253
   1413.60657     523.3969     314.9810   1413.60657     523.3969     314.9810
   1413.59131     520.9435     313.5853   1413.59131     520.9435     313.5853
   1413.57605     518.0255     312.1698   1413.57605     518.0255     312.1698
   1413.56079     515.7492     310.3556   1413.56079     515.7492     310.3556
   1413.54553     511.5815     309.2953   1413.54553     511.5815     309.2953
   1413.53027     508.5970     307.6715   1413.53027     508.5970     307.6715
   1413.51501     506.2675     305.9289   1413.51501     506.2675     305.9289
   1413.49976     504.3755     304.8782   1413.49976     504.3755     304.8782
   1413.48450     499.5808     303.1743   1413.48450     499.5808     303.1743
   1413.46924     498.1146     302.4001   1413.46924     498.1146     302.4001
   1413.45398     495.2881     300.5807   1413.45398     495.2881     300.5807
   1413.43872     492.9199     298.9083   1413.43872     492.9199     298.9083
   1413.42346     489.5743     297.4267   1413.42346     489.5743     297.4267
   1413.40820     487.1013     296.2072   1413.40820     487.1013     296.2072
   1413.39294     484.2358     294.5746   1413.39294     484.2358     294.5746
   1413.37769     480.6882     293.2134   1413.37769     480.6882     293.2134
   1413.36243     478.8627     291.8053   1413.36243     478.8627     291.8053
   1413.34717     475.1667     290.9529   1413.34717     475.1667     290.9529
   1413.33191     473.9299     289.6259   1413.33191     473.9299     289.6259
   1413.31665     470.8633     287.6486   1413.31665     470.8633     287.6486
   1413.30139     467.5719     287.0123   1413.30139     467.5719     287.0123
   1413.28613     465.7376     285.2957   1413.28613     465.7376     285.2957
   1413.27087     461.7533     284.3249   1413.27087     461.7533     284.3249
   1413.25562     459.5236     282.8130   1413.25562     459.5236     282.8130
   1413.24036     457.0367     282.0187   1413.24036     457.0367     282.0187
   1413.22510     455.2049     280.5334   1413.22510     455.2049     280.5334
   1413.20984     451.8713     279.4580   1413.20984     451.8713     279.4580
   1413.19458     448.6595     277.8846   1413.19458     448.6595     277.8846
   1413.17932     446.6038     277.2380   1413.17932     446.6038     277.2380
   1413.16406     444.4381     276.0247   1413.16406     444.4381     276.0247
   1413.14880     441.8350     274.8246   1413.14880     441.8350     274.8246
   1413.13354     439.3760     274.2626   1413.13354     439.3760     274.2626
   1413.11829     437.0507     272.7106   1413.11829     437.0507     272.7106
   1413.10303     434.8013     271.8485   1413.10303     434.8013     271.8485
   1413.08777     432.0436     270.5159   1413.08777     432.0436     270.5159
   1413.07251     430.2386     269.4980   1413.07251     430.2386     269.4980
   1413.05725     427.9786     268.6113   1413.05725     427.9786     268.6113
   1413.04199     425.7080     267.3314   1413.04199     425.7080     267.3314
   1413.02673     422.6240     266.6767   1413.02673     422.6240     266.6767
   1413.01147     420.5125     265.3845   1413.01147     420.5125     265.3845
   1412.99622     418.7862     264.6489   1412.99622     418.7862     264.6489
   1412.98096     416.6806     263.9485   1412.98096     416.6806     263.9485
   1412.96570     414.4883     262.9727   1412.96570     414.4883     262.9727
   1412.95044     411.7663     262.2076   1412.95044     411.7663     262.2076
   1412.93518     410.3842     261.7094   1412.93518     410.3842     261.7094
   1412.91992     408.2053     260.6774   1412.91992     408.2053     260.6774
   1412.90466     407.0233     260.0986   1412.90466     407.0233     260.0986
   1412.88940     404.4850     259.4793   1412.88940     404.4850     259.4793
   1412.87415     402.7184     258.8464   1412.87415     402.7184     258.8464
   1412.85889     401.0414     257.9810   1412.85889     401.0414     257.9810
   1412.84363     399.5088     257.5710   1412.84363     399.5088     257.5710
   1412.82837     396.9062     256.9224   1412.82837     396.9062     256.9224
   1412.81311     395.8717     256.2813   1412.81311     395.8717     256.2813
   1412.79785     393.8031     255.4896   1412.79785     393.8031     255.4896
   1412.78259     391.9454     255.3409   1412.78259     391.9454     255.3409
   1412.76733     390.6473     254.7354   1412.76733     390.6473     254.7354
   1412.75208     389.2144     254.5540   1412.75208     389.2144     254.5540
   1412.73682     387.4514     253.9014   1412.73682     387.4514     253.9014
   1412.72156     386.5597     253.4876   1412.72156     386.5597     253.4876
   1412.70630     385.2670     253.4150   1412.70630     385.2670     253.4150
   1412.69104     383.8669     252.8421   1412.69104     383.8669     252.8421
   1412.67578     382.3557     253.0547   1412.67578     382.3557     253.0547
   1412.66052     380.5094     252.6670   1412.66052     380.5094     252.6670
   1412.64526     380.2487     252.5983   1412.64526     380.2487     252.5983
   1412.63000     378.5888     252.2361   1412.63000     378.5888     252.2361
   1412.61475     377.2825     252.1028   1412.61475     377.2825     252.1028
   1412.59949     376.4518     251.7411   1412.59949     376.4518     251.7411
   1412.58423     375.3916     251.7751   1412.58423     375.3916     251.7751
   1412.56897     374.0104     251.7060   1412.56897     374.0104     251.7060
   1412.55371     373.3258     252.0590   1412.55371     373.3258     252.0590
   1412.53845     372.8355     252.1623   1412.53845     372.8355     252.1623
   1412.52319     371.7635     251.8542   1412.52319     371.7635     251.8542
   1412.50793     371.2299     252.1104   1412.50793     371.2299     252.1104
   1412.49268     370.1713     252.0616   1412.49268     370.1713     252.0616
   1412.47742     369.6655     252.4305   1412.47742     369.6655     252.4305
   1412.46216     370.0213     253.1601   1412.46216     370.0213     253.1601
   1412.44690     368.3731     252.8022   1412.44690     368.3731     252.8022
   1412.43164     368.1752     252.7395   1412.43164     368.1752     252.7395
   1412.41638     367.8025     253.7014   1412.41638     367.8025     253.7014
   1412.40112     367.4472     253.8900   1412.40112     367.4472     253.8900
   1412.38586     366.9623     254.5945   1412.38586     366.9623     254.5945
   1412.37061     366.8844     254.7339   1412.37061     366.8844     254.7339
   1412.35535     366.5190     255.3141   1412.35535     366.5190     255.3141
   1412.34009     367.1902     255.7632   1412.34009     367.1902     255.7632
   1412.32483     367.0901     256.5224   1412.32483     367.0901     256.5224
   1412.30957     366.2117     257.0468   1412.30957     366.2117     257.0468
   1412.29431     366.8737     257.3753   1412.29431     366.8737     257.3753
   1412.27905     366.6324     258.1642   1412.27905     366.6324     258.1642
   1412.26379     366.4501     259.1776   1412.26379     366.4501     259.1776
   1412.24854     367.1501     259.7639   1412.24854     367.1501     259.7639
   1412.23328     367.4491     260.4478   1412.23328     367.4491     260.4478
   1412.21802     367.4218     261.2422   1412.21802     367.4218     261.2422
   1412.20276     368.3029     262.3301   1412.20276     368.3029     262.3301