#     FILENAME=!Skynet_57528_lach-cc-228_20644_21029.cyb.fits
#     BASENAME=Skynet_57528_lach-cc-228_20644_21029
#     SRC_NAME=lach-cc-228
#     OBSERVER=ccmadison16_9505
#     DATE_OBS=2016-05-20T19:34:01.750
#        OBSID=20644
#      SCANNUM=21029
#          MJD=57528.8164
#          UTC=70531
#     SCANTYPE=track
#     DATAMODE=HIRES
#     TUNEFREQ=1420.0000
# Actual_FREQ1=1420.0000
# Actual_FREQ2=1420.0000
#    LO1Tuning=6870.000
#     RFFILTER=1355_1435
#        OBSBW=-15.6250
#        NCHAN=1024 
#        FOCUS=37.0709
#           RA=07:19:23.39
#          DEC=-13:22:41.07
#      RA(hrs)=7.323200
#     DEC(deg)=-13.378100
#    AZIM(deg)=158.413
#    ELEV(deg)=35.474
#     IFattens=10.00, 9.00
#      WARNING=None
#    TCAL_XL1=7.9635
#    TCAL_YR1=9.1340
#    TCAL_XL2=7.9635
#    TCAL_YR2=9.1340
#     TRX_XL1=11.7060
#     TRX_YR1=11.7060
#     TRX_XL2=11.7060
#     TRX_YR2=11.7060
#        TAVE=1.0000
#Freq1(MHz)          XL1          YR1  Freq2(MHz)          XL2          YR2 

   1427.81250     362.0921     280.8650   1427.81250     362.0921     280.8650
   1427.79724     362.4460     281.4573   1427.79724     362.4460     281.4573
   1427.78198     363.7628     281.9641   1427.78198     363.7628     281.9641
   1427.76672     363.7027     282.2957   1427.76672     363.7027     282.2957
   1427.75146     365.0131     283.2003   1427.75146     365.0131     283.2003
   1427.73621     366.5679     283.7257   1427.73621     366.5679     283.7257
   1427.72095     367.0269     284.3697   1427.72095     367.0269     284.3697
   1427.70569     368.2723     285.3268   1427.70569     368.2723     285.3268
   1427.69043     369.4018     285.9146   1427.69043     369.4018     285.9146
   1427.67517     370.6488     286.8314   1427.67517     370.6488     286.8314
   1427.65991     371.0155     287.7158   1427.65991     371.0155     287.7158
   1427.64465     371.9647     288.3309   1427.64465     371.9647     288.3309
   1427.62939     374.2330     289.3293   1427.62939     374.2330     289.3293
   1427.61414     374.6935     289.9998   1427.61414     374.6935     289.9998
   1427.59888     375.8079     291.5236   1427.59888     375.8079     291.5236
   1427.58362     377.7124     292.4004   1427.58362     377.7124     292.4004
   1427.56836     379.6529     293.2820   1427.56836     379.6529     293.2820
   1427.55310     380.5631     294.5345   1427.55310     380.5631     294.5345
   1427.53784     382.3391     295.3397   1427.53784     382.3391     295.3397
   1427.52258     384.1747     297.2856   1427.52258     384.1747     297.2856
   1427.50732     385.4109     298.0887   1427.50732     385.4109     298.0887
   1427.49207     387.0630     299.0607   1427.49207     387.0630     299.0607
   1427.47681     388.6543     300.8033   1427.47681     388.6543     300.8033
   1427.46155     392.1832     302.3313   1427.46155     392.1832     302.3313
   1427.44629     392.3035     303.4977   1427.44629     392.3035     303.4977
   1427.43103     394.0483     304.8375   1427.43103     394.0483     304.8375
   1427.41577     395.7588     305.9544   1427.41577     395.7588     305.9544
   1427.40051     398.0708     307.6802   1427.40051     398.0708     307.6802
   1427.38525     400.0515     309.1485   1427.38525     400.0515     309.1485
   1427.37000     401.9666     310.6691   1427.37000     401.9666     310.6691
   1427.35474     404.2492     311.7115   1427.35474     404.2492     311.7115
   1427.33948     405.9863     314.3794   1427.33948     405.9863     314.3794
   1427.32422     408.0980     315.4599   1427.32422     408.0980     315.4599
   1427.30896     409.7532     317.1577   1427.30896     409.7532     317.1577
   1427.29370     412.3101     319.2094   1427.29370     412.3101     319.2094
   1427.27844     414.3287     320.7373   1427.27844     414.3287     320.7373
   1427.26318     416.5068     322.0029   1427.26318     416.5068     322.0029
   1427.24792     418.7496     324.1811   1427.24792     418.7496     324.1811
   1427.23267     421.0577     326.3525   1427.23267     421.0577     326.3525
   1427.21741     424.2417     327.8403   1427.21741     424.2417     327.8403
   1427.20215     426.1142     329.5607   1427.20215     426.1142     329.5607
   1427.18689     427.9519     331.2916   1427.18689     427.9519     331.2916
   1427.17163     431.1226     333.6792   1427.17163     431.1226     333.6792
   1427.15637     433.4957     335.8632   1427.15637     433.4957     335.8632
   1427.14111     436.6025     337.6945   1427.14111     436.6025     337.6945
   1427.12585     438.1645     338.7516   1427.12585     438.1645     338.7516
   1427.11060     440.8211     341.8986   1427.11060     440.8211     341.8986
   1427.09534     444.0606     343.2980   1427.09534     444.0606     343.2980
   1427.08008     446.3023     345.4632   1427.08008     446.3023     345.4632
   1427.06482     449.2037     347.2776   1427.06482     449.2037     347.2776
   1427.04956     451.1946     349.7128   1427.04956     451.1946     349.7128
   1427.03430     454.1868     351.4193   1427.03430     454.1868     351.4193
   1427.01904     456.1273     353.7252   1427.01904     456.1273     353.7252
   1427.00378     459.2797     356.4878   1427.00378     459.2797     356.4878
   1426.98853     461.8635     358.7602   1426.98853     461.8635     358.7602
   1426.97327     464.9609     360.7763   1426.97327     464.9609     360.7763
   1426.95801     467.6588     362.7636   1426.95801     467.6588     362.7636
   1426.94275     470.5171     364.5802   1426.94275     470.5171     364.5802
   1426.92749     472.7477     366.7016   1426.92749     472.7477     366.7016
   1426.91223     476.7114     369.5381   1426.91223     476.7114     369.5381
   1426.89697     479.1477     371.7340   1426.89697     479.1477     371.7340
   1426.88171     482.0353     374.1244   1426.88171     482.0353     374.1244
   1426.86646     484.4240     375.9621   1426.86646     484.4240     375.9621
   1426.85120     487.2932     378.7509   1426.85120     487.2932     378.7509
   1426.83594     489.0946     381.2441   1426.83594     489.0946     381.2441
   1426.82068     492.7320     382.8954   1426.82068     492.7320     382.8954
   1426.80542     495.8847     385.4584   1426.80542     495.8847     385.4584
   1426.79016     497.6671     388.8606   1426.79016     497.6671     388.8606
   1426.77490     501.4299     390.4665   1426.77490     501.4299     390.4665
   1426.75964     503.7815     393.1061   1426.75964     503.7815     393.1061
   1426.74438     506.8410     395.5055   1426.74438     506.8410     395.5055
   1426.72913     509.8053     397.7639   1426.72913     509.8053     397.7639
   1426.71387     512.4268     399.8347   1426.71387     512.4268     399.8347
   1426.69861     515.8781     402.4064   1426.69861     515.8781     402.4064
   1426.68335     519.7295     404.0838   1426.68335     519.7295     404.0838
   1426.66809     521.6314     407.2884   1426.66809     521.6314     407.2884
   1426.65283     524.2502     409.2066   1426.65283     524.2502     409.2066
   1426.63757     527.4968     412.3484   1426.63757     527.4968     412.3484
   1426.62231     538.6108     417.5750   1426.62231     538.6108     417.5750
   1426.60706     533.3370     417.3788   1426.60706     533.3370     417.3788
   1426.59180     535.9658     419.9016   1426.59180     535.9658     419.9016
   1426.57654     538.9832     422.4220   1426.57654     538.9832     422.4220
   1426.56128     541.1265     424.6359   1426.56128     541.1265     424.6359
   1426.54602     544.6321     427.5843   1426.54602     544.6321     427.5843
   1426.53076     546.6125     429.2848   1426.53076     546.6125     429.2848
   1426.51550     550.0015     432.0057   1426.51550     550.0015     432.0057
   1426.50024     552.6279     434.3046   1426.50024     552.6279     434.3046
   1426.48499     555.4232     436.7730   1426.48499     555.4232     436.7730
   1426.46973     558.7258     439.2372   1426.46973     558.7258     439.2372
   1426.45447     561.0992     441.9316   1426.45447     561.0992     441.9316
   1426.43921     564.5801     444.6674   1426.43921     564.5801     444.6674
   1426.42395     567.6393     446.1632   1426.42395     567.6393     446.1632
   1426.40869     569.2687     449.5205   1426.40869     569.2687     449.5205
   1426.39343     573.3961     452.4550   1426.39343     573.3961     452.4550
   1426.37817     574.7493     454.3831   1426.37817     574.7493     454.3831
   1426.36292     578.3415     456.2658   1426.36292     578.3415     456.2658
   1426.34766     580.0137     459.3890   1426.34766     580.0137     459.3890
   1426.33240     582.9199     461.4557   1426.33240     582.9199     461.4557
   1426.31714     585.5044     464.5055   1426.31714     585.5044     464.5055
   1426.30188     588.4865     467.0043   1426.30188     588.4865     467.0043
   1426.28662     590.9072     469.4996   1426.28662     590.9072     469.4996
   1426.27136     593.9240     472.2406   1426.27136     593.9240     472.2406
   1426.25610     597.1524     473.0365   1426.25610     597.1524     473.0365
   1426.24084     598.8021     476.4556   1426.24084     598.8021     476.4556
   1426.22559     601.9066     478.4491   1426.22559     601.9066     478.4491
   1426.21033     604.6957     481.7588   1426.21033     604.6957     481.7588
   1426.19507     606.4510     483.4215   1426.19507     606.4510     483.4215
   1426.17981     609.2076     485.8440   1426.17981     609.2076     485.8440
   1426.16455     611.6220     487.6599   1426.16455     611.6220     487.6599
   1426.14929     614.1303     489.9300   1426.14929     614.1303     489.9300
   1426.13403     615.7879     492.8810   1426.13403     615.7879     492.8810
   1426.11877     619.1453     495.3327   1426.11877     619.1453     495.3327
   1426.10352     621.4977     497.7861   1426.10352     621.4977     497.7861
   1426.08826     623.3080     499.9010   1426.08826     623.3080     499.9010
   1426.07300     626.2585     502.2473   1426.07300     626.2585     502.2473
   1426.05774     628.3288     504.3203   1426.05774     628.3288     504.3203
   1426.04248     629.8867     507.4456   1426.04248     629.8867     507.4456
   1426.02722     634.2162     509.8607   1426.02722     634.2162     509.8607
   1426.01196     635.3487     511.6020   1426.01196     635.3487     511.6020
   1425.99670     637.9599     514.0973   1425.99670     637.9599     514.0973
   1425.98145     640.3446     516.6225   1425.98145     640.3446     516.6225
   1425.96619     641.1129     518.2410   1425.96619     641.1129     518.2410
   1425.95093     643.8228     521.0587   1425.95093     643.8228     521.0587
   1425.93567     646.0453     523.7115   1425.93567     646.0453     523.7115
   1425.92041     648.1015     526.8570   1425.92041     648.1015     526.8570
   1425.90515     650.0045     528.7151   1425.90515     650.0045     528.7151
   1425.88989     651.5155     529.3078   1425.88989     651.5155     529.3078
   1425.87463     653.4086     532.1765   1425.87463     653.4086     532.1765
   1425.85938     656.2855     534.1173   1425.85938     656.2855     534.1173
   1425.84412     657.4901     535.7590   1425.84412     657.4901     535.7590
   1425.82886     659.7944     538.8943   1425.82886     659.7944     538.8943
   1425.81360     661.8628     540.7467   1425.81360     661.8628     540.7467
   1425.79834     664.1437     542.7878   1425.79834     664.1437     542.7878
   1425.78308     665.6309     545.4800   1425.78308     665.6309     545.4800
   1425.76782     666.6061     547.9325   1425.76782     666.6061     547.9325
   1425.75256     668.6638     549.5565   1425.75256     668.6638     549.5565
   1425.73730     671.4874     551.0541   1425.73730     671.4874     551.0541
   1425.72205     672.4536     553.6130   1425.72205     672.4536     553.6130
   1425.70679     674.1200     555.1360   1425.70679     674.1200     555.1360
   1425.69153     675.5680     558.4150   1425.69153     675.5680     558.4150
   1425.67627     677.3375     559.4182   1425.67627     677.3375     559.4182
   1425.66101     679.7379     562.1962   1425.66101     679.7379     562.1962
   1425.64575     679.7042     564.3474   1425.64575     679.7042     564.3474
   1425.63049     682.1604     566.4500   1425.63049     682.1604     566.4500
   1425.61523     683.8853     568.3054   1425.61523     683.8853     568.3054
   1425.59998     685.4065     570.2265   1425.59998     685.4065     570.2265
   1425.58472     687.6434     571.8975   1425.58472     687.6434     571.8975
   1425.56946     688.1368     573.9817   1425.56946     688.1368     573.9817
   1425.55420     689.9528     575.6293   1425.55420     689.9528     575.6293
   1425.53894     691.2089     578.2020   1425.53894     691.2089     578.2020
   1425.52368     692.4441     579.7266   1425.52368     692.4441     579.7266
   1425.50842     693.2255     581.7171   1425.50842     693.2255     581.7171
   1425.49316     695.1200     584.5152   1425.49316     695.1200     584.5152
   1425.47791     696.9841     586.0883   1425.47791     696.9841     586.0883
   1425.46265     697.5009     587.0737   1425.46265     697.5009     587.0737
   1425.44739     699.7835     589.2023   1425.44739     699.7835     589.2023
   1425.43213     700.2900     590.6262   1425.43213     700.2900     590.6262
   1425.41687     702.4186     594.3667   1425.41687     702.4186     594.3667
   1425.40161     702.1903     594.9567   1425.40161     702.1903     594.9567
   1425.38635     704.1802     595.8727   1425.38635     704.1802     595.8727
   1425.37109     703.9625     598.7639   1425.37109     703.9625     598.7639
   1425.35583     704.9413     599.9642   1425.35583     704.9413     599.9642
   1425.34058     706.9194     602.5112   1425.34058     706.9194     602.5112
   1425.32532     708.0319     603.8712   1425.32532     708.0319     603.8712
   1425.31006     708.9180     604.7892   1425.31006     708.9180     604.7892
   1425.29480     710.4407     606.8400   1425.29480     710.4407     606.8400
   1425.27954     709.6028     609.1874   1425.27954     709.6028     609.1874
   1425.26428     711.7427     610.9263   1425.26428     711.7427     610.9263
   1425.24902     713.5596     611.9129   1425.24902     713.5596     611.9129
   1425.23376     714.5477     612.8316   1425.23376     714.5477     612.8316
   1425.21851     713.9746     614.5263   1425.21851     713.9746     614.5263
   1425.20325     714.6141     617.2406   1425.20325     714.6141     617.2406
   1425.18799     716.1555     618.3230   1425.18799     716.1555     618.3230
   1425.17273     716.0446     619.2670   1425.17273     716.0446     619.2670
   1425.15747     716.9034     621.6315   1425.15747     716.9034     621.6315
   1425.14221     717.9510     623.6121   1425.14221     717.9510     623.6121
   1425.12695     718.6083     624.2048   1425.12695     718.6083     624.2048
   1425.11169     719.1233     626.2001   1425.11169     719.1233     626.2001
   1425.09644     720.1398     626.9252   1425.09644     720.1398     626.9252
   1425.08118     720.5785     628.6826   1425.08118     720.5785     628.6826
   1425.06592     722.5694     629.8484   1425.06592     722.5694     629.8484
   1425.05066     722.0986     631.8433   1425.05066     722.0986     631.8433
   1425.03540     721.7802     634.6096   1425.03540     721.7802     634.6096
   1425.02014     722.5345     633.6775   1425.02014     722.5345     633.6775
   1425.00488     722.6447     635.4954   1425.00488     722.6447     635.4954
   1424.98962     724.3030     637.0651   1424.98962     724.3030     637.0651
   1424.97437     723.9216     638.0298   1424.97437     723.9216     638.0298
   1424.95911     724.8887     638.8274   1424.95911     724.8887     638.8274
   1424.94385     724.2573     640.7410   1424.94385     724.2573     640.7410
   1424.92859     725.5974     641.6349   1424.92859     725.5974     641.6349
   1424.91333     727.5093     644.3415   1424.91333     727.5093     644.3415
   1424.89807     725.2924     644.3925   1424.89807     725.2924     644.3925
   1424.88281     725.9846     646.1818   1424.88281     725.9846     646.1818
   1424.86755     727.9854     646.5110   1424.86755     727.9854     646.5110
   1424.85229     726.9944     647.8604   1424.85229     726.9944     647.8604
   1424.83704     727.1749     649.4700   1424.83704     727.1749     649.4700
   1424.82178     728.4133     650.7523   1424.82178     728.4133     650.7523
   1424.80652     727.7781     651.1091   1424.80652     727.7781     651.1091
   1424.79126     728.2756     652.8490   1424.79126     728.2756     652.8490
   1424.77600     729.1780     654.4312   1424.77600     729.1780     654.4312
   1424.76074     728.3691     655.1760   1424.76074     728.3691     655.1760
   1424.74548     730.1294     655.7603   1424.74548     730.1294     655.7603
   1424.73022     728.1210     656.6368   1424.73022     728.1210     656.6368
   1424.71497     730.9896     657.3888   1424.71497     730.9896     657.3888
   1424.69971     730.3132     658.2891   1424.69971     730.3132     658.2891
   1424.68445     730.1079     660.2858   1424.68445     730.1079     660.2858
   1424.66919     730.0786     660.1938   1424.66919     730.0786     660.1938
   1424.65393     729.8686     661.5931   1424.65393     729.8686     661.5931
   1424.63867     730.1125     662.9212   1424.63867     730.1125     662.9212
   1424.62341     731.0211     663.0057   1424.62341     731.0211     663.0057
   1424.60815     730.4822     664.7794   1424.60815     730.4822     664.7794
   1424.59290     730.8904     664.1266   1424.59290     730.8904     664.1266
   1424.57764     730.4385     665.6497   1424.57764     730.4385     665.6497
   1424.56238     729.8995     666.8885   1424.56238     729.8995     666.8885
   1424.54712     730.6793     666.8476   1424.54712     730.6793     666.8476
   1424.53186     731.7766     667.6416   1424.53186     731.7766     667.6416
   1424.51660     731.6721     667.9534   1424.51660     731.6721     667.9534
   1424.50134     729.4590     669.4811   1424.50134     729.4590     669.4811
   1424.48608     730.8744     670.9265   1424.48608     730.8744     670.9265
   1424.47083     730.0123     671.2913   1424.47083     730.0123     671.2913
   1424.45557     730.7542     672.1733   1424.45557     730.7542     672.1733
   1424.44031     730.4371     673.1958   1424.44031     730.4371     673.1958
   1424.42505     731.1097     673.0403   1424.42505     731.1097     673.0403
   1424.40979     730.7004     673.5203   1424.40979     730.7004     673.5203
   1424.39453     730.7857     674.6182   1424.39453     730.7857     674.6182
   1424.37927     730.1655     674.3233   1424.37927     730.1655     674.3233
   1424.36401     730.5357     676.3782   1424.36401     730.5357     676.3782
   1424.34875     729.7996     676.6615   1424.34875     729.7996     676.6615
   1424.33350     729.0775     675.5971   1424.33350     729.0775     675.5971
   1424.31824     730.8194     676.7600   1424.31824     730.8194     676.7600
   1424.30298     730.4193     676.8017   1424.30298     730.4193     676.8017
   1424.28772     730.9728     678.0862   1424.28772     730.9728     678.0862
   1424.27246     729.7610     676.2813   1424.27246     729.7610     676.2813
   1424.25720     729.9107     679.2323   1424.25720     729.9107     679.2323
   1424.24194     730.3096     678.6437   1424.24194     730.3096     678.6437
   1424.22668     729.9012     680.0994   1424.22668     729.9012     680.0994
   1424.21143     729.6011     680.4685   1424.21143     729.6011     680.4685
   1424.19617     729.8276     680.4457   1424.19617     729.8276     680.4457
   1424.18091     728.3028     681.1885   1424.18091     728.3028     681.1885
   1424.16565     728.7786     680.4408   1424.16565     728.7786     680.4408
   1424.15039     728.6945     682.4213   1424.15039     728.6945     682.4213
   1424.13513     728.6879     680.3162   1424.13513     728.6879     680.3162
   1424.11987     728.2731     681.4649   1424.11987     728.2731     681.4649
   1424.10461     728.5956     680.6414   1424.10461     728.5956     680.6414
   1424.08936     729.2097     681.8266   1424.08936     729.2097     681.8266
   1424.07410     727.4508     681.5237   1424.07410     727.4508     681.5237
   1424.05884     727.9908     681.2064   1424.05884     727.9908     681.2064
   1424.04358     727.2585     681.6744   1424.04358     727.2585     681.6744
   1424.02832     727.5309     682.0174   1424.02832     727.5309     682.0174
   1424.01306     727.1250     681.9144   1424.01306     727.1250     681.9144
   1423.99780     726.3222     681.3035   1423.99780     726.3222     681.3035
   1423.98254     725.9396     681.9315   1423.98254     725.9396     681.9315
   1423.96729     727.8333     684.0761   1423.96729     727.8333     684.0761
   1423.95203     726.5312     681.9058   1423.95203     726.5312     681.9058
   1423.93677     726.3194     682.4273   1423.93677     726.3194     682.4273
   1423.92151     726.1867     682.8237   1423.92151     726.1867     682.8237
   1423.90625     725.9863     681.5876   1423.90625     725.9863     681.5876
   1423.89099     725.5754     682.1661   1423.89099     725.5754     682.1661
   1423.87573     725.4114     681.4365   1423.87573     725.4114     681.4365
   1423.86047     725.5602     681.0841   1423.86047     725.5602     681.0841
   1423.84521     725.2543     681.7696   1423.84521     725.2543     681.7696
   1423.82996     725.4535     680.8010   1423.82996     725.4535     680.8010
   1423.81470     724.7749     681.5368   1423.81470     724.7749     681.5368
   1423.79944     723.5456     680.7962   1423.79944     723.5456     680.7962
   1423.78418     724.0600     679.9159   1423.78418     724.0600     679.9159
   1423.76892     723.4954     681.3098   1423.76892     723.4954     681.3098
   1423.75366     723.3570     681.2188   1423.75366     723.3570     681.2188
   1423.73840     723.3984     680.2716   1423.73840     723.3984     680.2716
   1423.72314     723.0080     680.3198   1423.72314     723.0080     680.3198
   1423.70789     723.0706     680.0015   1423.70789     723.0706     680.0015
   1423.69263     722.6223     679.4219   1423.69263     722.6223     679.4219
   1423.67737     722.9247     679.2744   1423.67737     722.9247     679.2744
   1423.66211     721.9857     678.1650   1423.66211     721.9857     678.1650
   1423.64685     721.6606     678.2744   1423.64685     721.6606     678.2744
   1423.63159     721.2368     677.5165   1423.63159     721.2368     677.5165
   1423.61633     721.6011     678.2021   1423.61633     721.6011     678.2021
   1423.60107     720.7815     676.9588   1423.60107     720.7815     676.9588
   1423.58582     720.6552     676.5623   1423.58582     720.6552     676.5623
   1423.57056     720.4704     677.0089   1423.57056     720.4704     677.0089
   1423.55530     720.5420     676.6345   1423.55530     720.5420     676.6345
   1423.54004     719.9685     674.8286   1423.54004     719.9685     674.8286
   1423.52478     719.9312     674.4317   1423.52478     719.9312     674.4317
   1423.50952     720.2341     673.8920   1423.50952     720.2341     673.8920
   1423.49426     719.6290     674.4386   1423.49426     719.6290     674.4386
   1423.47900     717.8256     671.7180   1423.47900     717.8256     671.7180
   1423.46375     718.6509     672.3927   1423.46375     718.6509     672.3927
   1423.44849     718.3623     671.2210   1423.44849     718.3623     671.2210
   1423.43323     718.4285     671.2277   1423.43323     718.4285     671.2277
   1423.41797     716.9443     670.0735   1423.41797     716.9443     670.0735
   1423.40271     717.3591     669.6211   1423.40271     717.3591     669.6211
   1423.38745     717.0632     669.0972   1423.38745     717.0632     669.0972
   1423.37219     718.0960     668.7452   1423.37219     718.0960     668.7452
   1423.35693     716.4907     668.5545   1423.35693     716.4907     668.5545
   1423.34167     716.5123     667.2832   1423.34167     716.5123     667.2832
   1423.32642     717.2009     665.8910   1423.32642     717.2009     665.8910
   1423.31116     716.1505     664.2441   1423.31116     716.1505     664.2441
   1423.29590     716.2416     664.7890   1423.29590     716.2416     664.7890
   1423.28064     715.2162     664.1077   1423.28064     715.2162     664.1077
   1423.26538     715.7817     663.3624   1423.26538     715.7817     663.3624
   1423.25012     714.7774     662.1889   1423.25012     714.7774     662.1889
   1423.23486     714.9850     661.5640   1423.23486     714.9850     661.5640
   1423.21960     714.7225     659.9445   1423.21960     714.7225     659.9445
   1423.20435     713.8725     659.5799   1423.20435     713.8725     659.5799
   1423.18909     713.3612     658.2983   1423.18909     713.3612     658.2983
   1423.17383     712.2880     657.0556   1423.17383     712.2880     657.0556
   1423.15857     713.3249     656.6129   1423.15857     713.3249     656.6129
   1423.14331     712.8450     656.0385   1423.14331     712.8450     656.0385
   1423.12805     712.1500     653.6573   1423.12805     712.1500     653.6573
   1423.11279     711.4938     654.0954   1423.11279     711.4938     654.0954
   1423.09753     712.9844     652.5938   1423.09753     712.9844     652.5938
   1423.08228     711.5493     652.1105   1423.08228     711.5493     652.1105
   1423.06702     711.7757     650.4656   1423.06702     711.7757     650.4656
   1423.05176     710.9260     649.6223   1423.05176     710.9260     649.6223
   1423.03650     710.5431     648.2478   1423.03650     710.5431     648.2478
   1423.02124     710.4289     648.2275   1423.02124     710.4289     648.2275
   1423.00598     709.6910     646.5086   1423.00598     709.6910     646.5086
   1422.99072     710.1083     644.9532   1422.99072     710.1083     644.9532
   1422.97546     709.8725     644.5524   1422.97546     709.8725     644.5524
   1422.96021     709.6180     643.7599   1422.96021     709.6180     643.7599
   1422.94495     709.9971     642.4624   1422.94495     709.9971     642.4624
   1422.92969     709.5554     641.5042   1422.92969     709.5554     641.5042
   1422.91443     709.0765     641.4494   1422.91443     709.0765     641.4494
   1422.89917     708.8251     638.0074   1422.89917     708.8251     638.0074
   1422.88391     708.7324     638.1796   1422.88391     708.7324     638.1796
   1422.86865     709.0083     636.5298   1422.86865     709.0083     636.5298
   1422.85339     708.6010     635.9261   1422.85339     708.6010     635.9261
   1422.83813     707.6030     634.4547   1422.83813     707.6030     634.4547
   1422.82288     708.1080     633.1696   1422.82288     708.1080     633.1696
   1422.80762     707.0937     632.1533   1422.80762     707.0937     632.1533
   1422.79236     706.5477     631.4158   1422.79236     706.5477     631.4158
   1422.77710     706.3909     629.9061   1422.77710     706.3909     629.9061
   1422.76184     706.0493     629.0500   1422.76184     706.0493     629.0500
   1422.74658     706.8171     627.0857   1422.74658     706.8171     627.0857
   1422.73132     705.9340     626.0966   1422.73132     705.9340     626.0966
   1422.71606     704.5167     624.1760   1422.71606     704.5167     624.1760
   1422.70081     704.7309     625.3147   1422.70081     704.7309     625.3147
   1422.68555     704.6237     622.8846   1422.68555     704.6237     622.8846
   1422.67029     705.2394     620.5469   1422.67029     705.2394     620.5469
   1422.65503     704.6539     619.0093   1422.65503     704.6539     619.0093
   1422.63977     704.1188     618.6407   1422.63977     704.1188     618.6407
   1422.62451     703.5869     616.9036   1422.62451     703.5869     616.9036
   1422.60925     702.8793     616.0745   1422.60925     702.8793     616.0745
   1422.59399     704.4177     615.3491   1422.59399     704.4177     615.3491
   1422.57874     702.6710     613.3404   1422.57874     702.6710     613.3404
   1422.56348     702.4587     612.2136   1422.56348     702.4587     612.2136
   1422.54822     702.3228     610.7128   1422.54822     702.3228     610.7128
   1422.53296     703.2301     609.8707   1422.53296     703.2301     609.8707
   1422.51770     701.8188     607.5599   1422.51770     701.8188     607.5599
   1422.50244     702.0477     606.7589   1422.50244     702.0477     606.7589
   1422.48718     701.5239     605.2786   1422.48718     701.5239     605.2786
   1422.47192     700.6682     604.2505   1422.47192     700.6682     604.2505
   1422.45667     701.5287     603.1779   1422.45667     701.5287     603.1779
   1422.44141     701.8262     601.3682   1422.44141     701.8262     601.3682
   1422.42615     700.2227     600.1813   1422.42615     700.2227     600.1813
   1422.41089     699.3227     599.0703   1422.41089     699.3227     599.0703
   1422.39563     700.6485     598.0364   1422.39563     700.6485     598.0364
   1422.38037     700.0458     596.1925   1422.38037     700.0458     596.1925
   1422.36511     701.2050     594.5352   1422.36511     701.2050     594.5352
   1422.34985     699.7302     593.9874   1422.34985     699.7302     593.9874
   1422.33459     699.4388     591.9760   1422.33459     699.4388     591.9760
   1422.31934     698.9117     591.1196   1422.31934     698.9117     591.1196
   1422.30408     698.9146     589.7630   1422.30408     698.9146     589.7630
   1422.28882     697.4012     587.5719   1422.28882     697.4012     587.5719
   1422.27356     698.1676     586.4208   1422.27356     698.1676     586.4208
   1422.25830     698.4919     584.4460   1422.25830     698.4919     584.4460
   1422.24304     697.9316     584.1583   1422.24304     697.9316     584.1583
   1422.22778     698.0251     582.9778   1422.22778     698.0251     582.9778
   1422.21252     697.6640     580.7029   1422.21252     697.6640     580.7029
   1422.19727     697.2507     580.1692   1422.19727     697.2507     580.1692
   1422.18201     695.6914     577.8632   1422.18201     695.6914     577.8632
   1422.16675     696.4356     577.4716   1422.16675     696.4356     577.4716
   1422.15149     695.7614     575.7114   1422.15149     695.7614     575.7114
   1422.13623     696.0613     574.7583   1422.13623     696.0613     574.7583
   1422.12097     695.8521     571.6918   1422.12097     695.8521     571.6918
   1422.10571     695.6778     572.6694   1422.10571     695.6778     572.6694
   1422.09045     695.9142     570.0367   1422.09045     695.9142     570.0367
   1422.07520     695.2936     569.2498   1422.07520     695.2936     569.2498
   1422.05994     695.7609     566.7814   1422.05994     695.7609     566.7814
   1422.04468     694.8468     566.1594   1422.04468     694.8468     566.1594
   1422.02942     694.8236     564.2969   1422.02942     694.8236     564.2969
   1422.01416     693.4230     563.4347   1422.01416     693.4230     563.4347
   1421.99890     694.3031     562.0237   1421.99890     694.3031     562.0237
   1421.98364     693.5313     559.8784   1421.98364     693.5313     559.8784
   1421.96838     693.1432     559.3502   1421.96838     693.1432     559.3502
   1421.95312     693.5726     558.4175   1421.95312     693.5726     558.4175
   1421.93787     693.1316     555.9947   1421.93787     693.1316     555.9947
   1421.92261     693.1624     554.1726   1421.92261     693.1624     554.1726
   1421.90735     692.1371     553.8047   1421.90735     692.1371     553.8047
   1421.89209     693.8356     551.8690   1421.89209     693.8356     551.8690
   1421.87683     691.7549     550.3001   1421.87683     691.7549     550.3001
   1421.86157     692.3964     549.5964   1421.86157     692.3964     549.5964
   1421.84631     691.5570     548.8950   1421.84631     691.5570     548.8950
   1421.83105     691.4128     546.0079   1421.83105     691.4128     546.0079
   1421.81580     691.2311     545.0905   1421.81580     691.2311     545.0905
   1421.80054     690.1998     543.5989   1421.80054     690.1998     543.5989
   1421.78528     691.7593     542.1808   1421.78528     691.7593     542.1808
   1421.77002     691.2701     541.3734   1421.77002     691.2701     541.3734
   1421.75476     689.5631     539.9515   1421.75476     689.5631     539.9515
   1421.73950     689.4969     538.9080   1421.73950     689.4969     538.9080
   1421.72424     689.1848     537.8757   1421.72424     689.1848     537.8757
   1421.70898     689.5106     535.4211   1421.70898     689.5106     535.4211
   1421.69373     689.6666     533.7416   1421.69373     689.6666     533.7416
   1421.67847     688.9099     533.2281   1421.67847     688.9099     533.2281
   1421.66321     688.4817     532.0960   1421.66321     688.4817     532.0960
   1421.64795     687.4500     530.8303   1421.64795     687.4500     530.8303
   1421.63269     687.2747     529.4054   1421.63269     687.2747     529.4054
   1421.61743     687.2038     527.8563   1421.61743     687.2038     527.8563
   1421.60217     686.8511     526.2939   1421.60217     686.8511     526.2939
   1421.58691     687.3323     525.3613   1421.58691     687.3323     525.3613
   1421.57166     686.8347     524.2167   1421.57166     686.8347     524.2167
   1421.55640     686.3141     522.4614   1421.55640     686.3141     522.4614
   1421.54114     686.2268     520.9637   1421.54114     686.2268     520.9637
   1421.52588     685.5863     520.4794   1421.52588     685.5863     520.4794
   1421.51062     686.6934     519.1207   1421.51062     686.6934     519.1207
   1421.49536     685.6121     517.3476   1421.49536     685.6121     517.3476
   1421.48010     684.8813     516.1934   1421.48010     684.8813     516.1934
   1421.46484     685.6227     514.6125   1421.46484     685.6227     514.6125
   1421.44958     684.9014     513.7581   1421.44958     684.9014     513.7581
   1421.43433     684.7339     512.6796   1421.43433     684.7339     512.6796
   1421.41907     684.2150     511.1417   1421.41907     684.2150     511.1417
   1421.40381     684.2996     510.9137   1421.40381     684.2996     510.9137
   1421.38855     682.9290     508.1282   1421.38855     682.9290     508.1282
   1421.37329     683.5822     507.2362   1421.37329     683.5822     507.2362
   1421.35803     682.9652     506.6993   1421.35803     682.9652     506.6993
   1421.34277     682.9615     505.5453   1421.34277     682.9615     505.5453
   1421.32751     682.9825     503.3423   1421.32751     682.9825     503.3423
   1421.31226     682.7716     503.0544   1421.31226     682.7716     503.0544
   1421.29700     681.5973     501.2591   1421.29700     681.5973     501.2591
   1421.28174     682.1059     499.6215   1421.28174     682.1059     499.6215
   1421.26648     680.9465     499.4471   1421.26648     680.9465     499.4471
   1421.25122     680.5320     497.0490   1421.25122     680.5320     497.0490
   1421.23596     680.6245     496.1345   1421.23596     680.6245     496.1345
   1421.22070     680.8872     493.9515   1421.22070     680.8872     493.9515
   1421.20544     679.4176     494.5886   1421.20544     679.4176     494.5886
   1421.19019     680.2425     491.9894   1421.19019     680.2425     491.9894
   1421.17493     679.4017     491.3546   1421.17493     679.4017     491.3546
   1421.15967     678.5562     490.2692   1421.15967     678.5562     490.2692
   1421.14441     678.8029     489.3196   1421.14441     678.8029     489.3196
   1421.12915     678.8129     488.4290   1421.12915     678.8129     488.4290
   1421.11389     678.8877     486.9775   1421.11389     678.8877     486.9775
   1421.09863     677.6657     486.1456   1421.09863     677.6657     486.1456
   1421.08337     677.1379     485.0611   1421.08337     677.1379     485.0611
   1421.06812     678.2945     483.6359   1421.06812     678.2945     483.6359
   1421.05286     677.6321     482.5603   1421.05286     677.6321     482.5603
   1421.03760     676.9753     481.5256   1421.03760     676.9753     481.5256
   1421.02234     677.1340     481.1019   1421.02234     677.1340     481.1019
   1421.00708     678.0433     479.4639   1421.00708     678.0433     479.4639
   1420.99182     676.2093     477.5790   1420.99182     676.2093     477.5790
   1420.97656     676.0958     477.0406   1420.97656     676.0958     477.0406
   1420.96130     677.1777     476.8992   1420.96130     677.1777     476.8992
   1420.94604     676.0172     475.8357   1420.94604     676.0172     475.8357
   1420.93079     675.3561     474.4764   1420.93079     675.3561     474.4764
   1420.91553     675.6019     472.7414   1420.91553     675.6019     472.7414
   1420.90027     675.3026     472.0709   1420.90027     675.3026     472.0709
   1420.88501     674.6011     470.9478   1420.88501     674.6011     470.9478
   1420.86975     675.3664     469.6104   1420.86975     675.3664     469.6104
   1420.85449     674.9188     469.1815   1420.85449     674.9188     469.1815
   1420.83923     673.8995     469.2697   1420.83923     673.8995     469.2697
   1420.82397     674.6995     467.6222   1420.82397     674.6995     467.6222
   1420.80872     674.2964     467.4818   1420.80872     674.2964     467.4818
   1420.79346     675.5300     465.9109   1420.79346     675.5300     465.9109
   1420.77820     673.9047     465.1579   1420.77820     673.9047     465.1579
   1420.76294     673.6708     464.0475   1420.76294     673.6708     464.0475
   1420.74768     673.2051     463.4226   1420.74768     673.2051     463.4226
   1420.73242     675.1777     462.6916   1420.73242     675.1777     462.6916
   1420.71716     674.5146     462.3330   1420.71716     674.5146     462.3330
   1420.70190     673.9973     461.2928   1420.70190     673.9973     461.2928
   1420.68665     674.2633     460.4685   1420.68665     674.2633     460.4685
   1420.67139     674.3113     458.8756   1420.67139     674.3113     458.8756
   1420.65613     674.0110     458.2506   1420.65613     674.0110     458.2506
   1420.64087     674.1432     457.0688   1420.64087     674.1432     457.0688
   1420.62561     672.9360     455.9694   1420.62561     672.9360     455.9694
   1420.61035     672.7854     455.5043   1420.61035     672.7854     455.5043
   1420.59509     674.0566     454.6197   1420.59509     674.0566     454.6197
   1420.57983     674.4726     454.3167   1420.57983     674.4726     454.3167
   1420.56458     674.6051     454.7918   1420.56458     674.6051     454.7918
   1420.54932     675.5345     455.0830   1420.54932     675.5345     455.0830
   1420.53406     676.6109     454.6939   1420.53406     676.6109     454.6939
   1420.51880     677.7886     454.7158   1420.51880     677.7886     454.7158
   1420.50354     678.8636     453.8660   1420.50354     678.8636     453.8660
   1420.48828     677.8271     453.4930   1420.48828     677.8271     453.4930
   1420.47302     678.2313     451.1012   1420.47302     678.2313     451.1012
   1420.45776     675.9803     449.9684   1420.45776     675.9803     449.9684
   1420.44250     676.7319     448.4965   1420.44250     676.7319     448.4965
   1420.42725     674.5669     447.3725   1420.42725     674.5669     447.3725
   1420.41199     674.7524     446.8438   1420.41199     674.7524     446.8438
   1420.39673     674.2765     446.5562   1420.39673     674.2765     446.5562
   1420.38147     675.4243     445.2859   1420.38147     675.4243     445.2859
   1420.36621     675.4484     445.8562   1420.36621     675.4484     445.8562
   1420.35095     676.6414     446.6193   1420.35095     676.6414     446.6193
   1420.33569     680.5310     447.4619   1420.33569     680.5310     447.4619
   1420.32043     680.5853     447.6199   1420.32043     680.5853     447.6199
   1420.30518     683.9001     448.9490   1420.30518     683.9001     448.9490
   1420.28992     688.0956     450.2823   1420.28992     688.0956     450.2823
   1420.27466     699.8546     456.3785   1420.27466     699.8546     456.3785
   1420.25940     727.5266     472.9346   1420.25940     727.5266     472.9346
   1420.24414     816.8292     529.1315   1420.24414     816.8292     529.1315
   1420.22888    1120.4119     716.5009   1420.22888    1120.4119     716.5009
   1420.21362    1383.1407     881.6904   1420.21362    1383.1407     881.6904
   1420.19836    1196.8170     763.5582   1420.19836    1196.8170     763.5582
   1420.18311    1135.5808     724.7206   1420.18311    1135.5808     724.7206
   1420.16785    1432.4347     910.7761   1420.16785    1432.4347     910.7761
   1420.15259    1909.8910    1204.6257   1420.15259    1909.8910    1204.6257
   1420.13733    1887.4191    1189.4948   1420.13733    1887.4191    1189.4948
   1420.12207    1404.4602     888.9578   1420.12207    1404.4602     888.9578
   1420.10681    1152.4240     729.8176   1420.10681    1152.4240     729.8176
   1420.09155    1060.8717     673.8394   1420.09155    1060.8717     673.8394
   1420.07629    1088.7712     687.9363   1420.07629    1088.7712     687.9363
   1420.06104    1279.1639     805.0707   1420.06104    1279.1639     805.0707
   1420.04578    1378.7983     866.2382   1420.04578    1378.7983     866.2382
   1420.03052    1192.7601     751.1979   1420.03052    1192.7601     751.1979
   1420.01526    1159.1852     730.9127   1420.01526    1159.1852     730.9127
   1420.00000    1239.7983     779.9221   1420.00000    1239.7983     779.9221
   1419.98474    1320.4131     828.9313   1419.98474    1320.4131     828.9313
   1419.96948    1241.5172     778.7339   1419.96948    1241.5172     778.7339
   1419.95422    1083.0377     680.6149   1419.95422    1083.0377     680.6149
   1419.93896    1018.3574     639.1425   1419.93896    1018.3574     639.1425
   1419.92371    1100.4640     687.4260   1419.92371    1100.4640     687.4260
   1419.90845    1293.1147     805.5808   1419.90845    1293.1147     805.5808
   1419.89319    1271.8861     790.6414   1419.89319    1271.8861     790.6414
   1419.87793    1109.3491     691.2672   1419.87793    1109.3491     691.2672
   1419.86267     980.5948     611.5231   1419.86267     980.5948     611.5231
   1419.84741     908.7065     567.7551   1419.84741     908.7065     567.7551
   1419.83215     840.4744     527.4538   1419.83215     840.4744     527.4538
   1419.81689     781.7220     490.2529   1419.81689     781.7220     490.2529
   1419.80164     747.3179     470.4540   1419.80164     747.3179     470.4540
   1419.78638     726.4307     456.8188   1419.78638     726.4307     456.8188
   1419.77112     713.1217     448.5357   1419.77112     713.1217     448.5357
   1419.75586     703.9050     442.6071   1419.75586     703.9050     442.6071
   1419.74060     696.5819     437.6802   1419.74060     696.5819     437.6802
   1419.72534     691.7400     433.3273   1419.72534     691.7400     433.3273
   1419.71008     685.4365     430.1358   1419.71008     685.4365     430.1358
   1419.69482     680.8282     426.8676   1419.69482     680.8282     426.8676
   1419.67957     677.3405     423.4040   1419.67957     677.3405     423.4040
   1419.66431     674.4311     422.1035   1419.66431     674.4311     422.1035
   1419.64905     671.9917     419.5157   1419.64905     671.9917     419.5157
   1419.63379     670.0623     418.7786   1419.63379     670.0623     418.7786
   1419.61853     669.3858     418.0362   1419.61853     669.3858     418.0362
   1419.60327     668.6422     417.1837   1419.60327     668.6422     417.1837
   1419.58801     668.6028     416.3109   1419.58801     668.6028     416.3109
   1419.57275     668.8788     416.2527   1419.57275     668.8788     416.2527
   1419.55750     669.3590     415.8429   1419.55750     669.3590     415.8429
   1419.54224     669.5259     415.6248   1419.54224     669.5259     415.6248
   1419.52698     669.0455     415.9842   1419.52698     669.0455     415.9842
   1419.51172     668.6104     415.5287   1419.51172     668.6104     415.5287
   1419.49646     669.4207     414.7089   1419.49646     669.4207     414.7089
   1419.48120     669.8227     414.4847   1419.48120     669.8227     414.4847
   1419.46594     669.7167     415.1540   1419.46594     669.7167     415.1540
   1419.45068     668.7894     414.9514   1419.45068     668.7894     414.9514
   1419.43542     670.9197     415.1511   1419.43542     670.9197     415.1511
   1419.42017     670.3599     414.4781   1419.42017     670.3599     414.4781
   1419.40491     670.0133     414.5576   1419.40491     670.0133     414.5576
   1419.38965     672.0325     414.8536   1419.38965     672.0325     414.8536
   1419.37439     671.9988     414.1823   1419.37439     671.9988     414.1823
   1419.35913     672.4644     413.8975   1419.35913     672.4644     413.8975
   1419.34387     672.0034     413.9979   1419.34387     672.0034     413.9979
   1419.32861     673.1819     414.2647   1419.32861     673.1819     414.2647
   1419.31335     673.5866     414.8735   1419.31335     673.5866     414.8735
   1419.29810     674.9496     413.8918   1419.29810     674.9496     413.8918
   1419.28284     674.4373     414.5184   1419.28284     674.4373     414.5184
   1419.26758     675.9586     414.9932   1419.26758     675.9586     414.9932
   1419.25232     674.4833     414.5344   1419.25232     674.4833     414.5344
   1419.23706     675.3843     413.8398   1419.23706     675.3843     413.8398
   1419.22180     675.2328     414.3840   1419.22180     675.2328     414.3840
   1419.20654     676.0840     413.9745   1419.20654     676.0840     413.9745
   1419.19128     677.0497     414.9336   1419.19128     677.0497     414.9336
   1419.17603     677.8826     415.2237   1419.17603     677.8826     415.2237
   1419.16077     678.0659     414.9892   1419.16077     678.0659     414.9892
   1419.14551     679.0315     415.1189   1419.14551     679.0315     415.1189
   1419.13025     678.3549     414.4426   1419.13025     678.3549     414.4426
   1419.11499     680.5664     414.8771   1419.11499     680.5664     414.8771
   1419.09973     680.8989     414.6017   1419.09973     680.8989     414.6017
   1419.08447     680.6843     416.0486   1419.08447     680.6843     416.0486
   1419.06921     681.4928     415.5628   1419.06921     681.4928     415.5628
   1419.05396     682.5722     415.4456   1419.05396     682.5722     415.4456
   1419.03870     683.4008     416.1032   1419.03870     683.4008     416.1032
   1419.02344     682.8353     415.6634   1419.02344     682.8353     415.6634
   1419.00818     684.0755     415.1150   1419.00818     684.0755     415.1150
   1418.99292     685.0896     415.9975   1418.99292     685.0896     415.9975
   1418.97766     685.9358     416.5260   1418.97766     685.9358     416.5260
   1418.96240     686.3373     416.1542   1418.96240     686.3373     416.1542
   1418.94714     687.6083     416.9226   1418.94714     687.6083     416.9226
   1418.93188     687.3508     417.2411   1418.93188     687.3508     417.2411
   1418.91663     688.5446     417.2513   1418.91663     688.5446     417.2513
   1418.90137     689.1620     418.3400   1418.90137     689.1620     418.3400
   1418.88611     689.0703     418.0023   1418.88611     689.0703     418.0023
   1418.87085     690.8373     418.1627   1418.87085     690.8373     418.1627
   1418.85559     690.7360     418.4824   1418.85559     690.7360     418.4824
   1418.84033     691.4216     418.7024   1418.84033     691.4216     418.7024
   1418.82507     692.9863     419.6108   1418.82507     692.9863     419.6108
   1418.80981     693.8762     419.2718   1418.80981     693.8762     419.2718
   1418.79456     694.5625     419.4610   1418.79456     694.5625     419.4610
   1418.77930     694.9185     419.9909   1418.77930     694.9185     419.9909
   1418.76404     695.0208     420.4038   1418.76404     695.0208     420.4038
   1418.74878     697.5823     420.6067   1418.74878     697.5823     420.6067
   1418.73352     697.2324     421.0713   1418.73352     697.2324     421.0713
   1418.71826     697.9930     421.8615   1418.71826     697.9930     421.8615
   1418.70300     699.1873     422.2815   1418.70300     699.1873     422.2815
   1418.68774     699.8085     422.6804   1418.68774     699.8085     422.6804
   1418.67249     703.0876     422.3795   1418.67249     703.0876     422.3795
   1418.65723     702.2147     422.7692   1418.65723     702.2147     422.7692
   1418.64197     701.8272     423.2170   1418.64197     701.8272     423.2170
   1418.62671     703.0786     424.6748   1418.62671     703.0786     424.6748
   1418.61145     704.2432     423.8492   1418.61145     704.2432     423.8492
   1418.59619     704.7150     424.3775   1418.59619     704.7150     424.3775
   1418.58093     705.9998     424.6858   1418.58093     705.9998     424.6858
   1418.56567     707.9340     425.5050   1418.56567     707.9340     425.5050
   1418.55042     708.9332     426.2581   1418.55042     708.9332     426.2581
   1418.53516     710.2842     426.7570   1418.53516     710.2842     426.7570
   1418.51990     710.5842     426.9669   1418.51990     710.5842     426.9669
   1418.50464     710.3887     427.5671   1418.50464     710.3887     427.5671
   1418.48938     712.6963     427.2430   1418.48938     712.6963     427.2430
   1418.47412     713.0524     428.3468   1418.47412     713.0524     428.3468
   1418.45886     713.4950     429.0835   1418.45886     713.4950     429.0835
   1418.44360     714.7531     429.2631   1418.44360     714.7531     429.2631
   1418.42834     716.3185     429.9162   1418.42834     716.3185     429.9162
   1418.41309     716.8342     429.8890   1418.41309     716.8342     429.8890
   1418.39783     719.4530     430.7845   1418.39783     719.4530     430.7845
   1418.38257     720.5659     431.2286   1418.38257     720.5659     431.2286
   1418.36731     721.4941     432.6051   1418.36731     721.4941     432.6051
   1418.35205     721.4747     432.4000   1418.35205     721.4747     432.4000
   1418.33679     722.1079     432.5454   1418.33679     722.1079     432.5454
   1418.32153     724.6685     433.1145   1418.32153     724.6685     433.1145
   1418.30627     723.9377     433.8963   1418.30627     723.9377     433.8963
   1418.29102     726.7916     435.2395   1418.29102     726.7916     435.2395
   1418.27576     726.8888     434.8947   1418.27576     726.8888     434.8947
   1418.26050     729.4882     436.3279   1418.26050     729.4882     436.3279
   1418.24524     729.0490     437.0203   1418.24524     729.0490     437.0203
   1418.22998     730.1655     436.6855   1418.22998     730.1655     436.6855
   1418.21472     731.2922     437.2650   1418.21472     731.2922     437.2650
   1418.19946     733.9131     438.0736   1418.19946     733.9131     438.0736
   1418.18420     733.8702     439.1438   1418.18420     733.8702     439.1438
   1418.16895     735.8887     439.3618   1418.16895     735.8887     439.3618
   1418.15369     736.5391     439.6715   1418.15369     736.5391     439.6715
   1418.13843     738.5057     440.6476   1418.13843     738.5057     440.6476
   1418.12317     738.7404     441.2285   1418.12317     738.7404     441.2285
   1418.10791     740.3157     441.5532   1418.10791     740.3157     441.5532
   1418.09265     741.9489     442.3520   1418.09265     741.9489     442.3520
   1418.07739     742.7418     442.6029   1418.07739     742.7418     442.6029
   1418.06213     744.1310     443.4635   1418.06213     744.1310     443.4635
   1418.04688     744.2190     444.6818   1418.04688     744.2190     444.6818
   1418.03162     745.0363     444.5487   1418.03162     745.0363     444.5487
   1418.01636     748.5457     445.2215   1418.01636     748.5457     445.2215
   1418.00110     748.2044     445.9895   1418.00110     748.2044     445.9895
   1417.98584     749.2722     446.4920   1417.98584     749.2722     446.4920
   1417.97058     751.1553     447.8474   1417.97058     751.1553     447.8474
   1417.95532     751.7861     447.9445   1417.95532     751.7861     447.9445
   1417.94006     753.4227     448.5758   1417.94006     753.4227     448.5758
   1417.92480     755.1985     449.0764   1417.92480     755.1985     449.0764
   1417.90955     755.9312     450.1843   1417.90955     755.9312     450.1843
   1417.89429     757.6090     450.7810   1417.89429     757.6090     450.7810
   1417.87903     758.5140     450.6840   1417.87903     758.5140     450.6840
   1417.86377     760.7029     451.8625   1417.86377     760.7029     451.8625
   1417.84851     761.8330     452.9366   1417.84851     761.8330     452.9366
   1417.83325     761.6296     453.0008   1417.83325     761.6296     453.0008
   1417.81799     763.8885     454.6295   1417.81799     763.8885     454.6295
   1417.80273     764.5631     454.3741   1417.80273     764.5631     454.3741
   1417.78748     767.5009     455.2987   1417.78748     767.5009     455.2987
   1417.77222     768.3297     456.1205   1417.77222     768.3297     456.1205
   1417.75696     769.5255     457.2346   1417.75696     769.5255     457.2346
   1417.74170     770.2004     457.0371   1417.74170     770.2004     457.0371
   1417.72644     772.1666     458.3652   1417.72644     772.1666     458.3652
   1417.71118     772.8275     459.0601   1417.71118     772.8275     459.0601
   1417.69592     773.8799     458.8161   1417.69592     773.8799     458.8161
   1417.68066     776.8569     459.6105   1417.68066     776.8569     459.6105
   1417.66541     777.0545     460.3310   1417.66541     777.0545     460.3310
   1417.65015     778.0508     461.2752   1417.65015     778.0508     461.2752
   1417.63489     779.8915     461.9090   1417.63489     779.8915     461.9090
   1417.61963     779.7679     461.8344   1417.61963     779.7679     461.8344
   1417.60437     781.8440     462.9967   1417.60437     781.8440     462.9967
   1417.58911     782.3007     463.6312   1417.58911     782.3007     463.6312
   1417.57385     782.0573     463.9436   1417.57385     782.0573     463.9436
   1417.55859     785.0795     464.3224   1417.55859     785.0795     464.3224
   1417.54333     786.1643     466.1196   1417.54333     786.1643     466.1196
   1417.52808     787.7772     466.2403   1417.52808     787.7772     466.2403
   1417.51282     788.0568     466.7058   1417.51282     788.0568     466.7058
   1417.49756     789.3823     467.8149   1417.49756     789.3823     467.8149
   1417.48230     790.7015     468.1090   1417.48230     790.7015     468.1090
   1417.46704     792.1015     468.3208   1417.46704     792.1015     468.3208
   1417.45178     793.4332     469.6556   1417.45178     793.4332     469.6556
   1417.43652     794.6060     470.5972   1417.43652     794.6060     470.5972
   1417.42126     796.6125     471.2081   1417.42126     796.6125     471.2081
   1417.40601     797.2958     472.2173   1417.40601     797.2958     472.2173
   1417.39075     798.0912     471.7971   1417.39075     798.0912     471.7971
   1417.37549     799.3212     472.9282   1417.37549     799.3212     472.9282
   1417.36023     800.7672     472.7814   1417.36023     800.7672     472.7814
   1417.34497     803.1812     473.4432   1417.34497     803.1812     473.4432
   1417.32971     803.9765     474.6191   1417.32971     803.9765     474.6191
   1417.31445     803.8818     475.3669   1417.31445     803.8818     475.3669
   1417.29919     804.6746     475.4737   1417.29919     804.6746     475.4737
   1417.28394     806.6779     476.3509   1417.28394     806.6779     476.3509
   1417.26868     805.9358     476.9958   1417.26868     805.9358     476.9958
   1417.25342     807.8191     477.5264   1417.25342     807.8191     477.5264
   1417.23816     811.1833     478.6973   1417.23816     811.1833     478.6973
   1417.22290     811.5811     478.5250   1417.22290     811.5811     478.5250
   1417.20764     812.5179     479.5457   1417.20764     812.5179     479.5457
   1417.19238     813.1926     480.3299   1417.19238     813.1926     480.3299
   1417.17712     812.4290     479.9948   1417.17712     812.4290     479.9948
   1417.16187     814.9251     480.3341   1417.16187     814.9251     480.3341
   1417.14661     816.1904     481.5375   1417.14661     816.1904     481.5375
   1417.13135     815.4398     481.7649   1417.13135     815.4398     481.7649
   1417.11609     818.3188     482.2727   1417.11609     818.3188     482.2727
   1417.10083     818.9210     482.9729   1417.10083     818.9210     482.9729
   1417.08557     818.5618     482.6866   1417.08557     818.5618     482.6866
   1417.07031     820.0981     483.8996   1417.07031     820.0981     483.8996
   1417.05505     822.3625     485.0258   1417.05505     822.3625     485.0258
   1417.03979     821.5239     484.6996   1417.03979     821.5239     484.6996
   1417.02454     822.2935     485.2648   1417.02454     822.2935     485.2648
   1417.00928     823.2341     486.3733   1417.00928     823.2341     486.3733
   1416.99402     823.3189     485.6711   1416.99402     823.3189     485.6711
   1416.97876     825.4476     486.6190   1416.97876     825.4476     486.6190
   1416.96350     826.0866     487.1408   1416.96350     826.0866     487.1408
   1416.94824     827.5824     487.1820   1416.94824     827.5824     487.1820
   1416.93298     827.2960     487.6381   1416.93298     827.2960     487.6381
   1416.91772     826.2599     488.0164   1416.91772     826.2599     488.0164
   1416.90247     827.8072     488.0276   1416.90247     827.8072     488.0276
   1416.88721     829.5889     489.1522   1416.88721     829.5889     489.1522
   1416.87195     830.9031     490.2529   1416.87195     830.9031     490.2529
   1416.85669     830.2081     489.8138   1416.85669     830.2081     489.8138
   1416.84143     830.0317     489.7222   1416.84143     830.0317     489.7222
   1416.82617     831.5279     489.5627   1416.82617     831.5279     489.5627
   1416.81091     831.5009     490.8484   1416.81091     831.5009     490.8484
   1416.79565     832.8696     490.5306   1416.79565     832.8696     490.5306
   1416.78040     832.6812     491.0966   1416.78040     832.6812     491.0966
   1416.76514     834.5671     490.6836   1416.76514     834.5671     490.6836
   1416.74988     835.0164     490.8926   1416.74988     835.0164     490.8926
   1416.73462     833.5853     490.5601   1416.73462     833.5853     490.5601
   1416.71936     836.1066     491.4460   1416.71936     836.1066     491.4460
   1416.70410     834.6096     492.0696   1416.70410     834.6096     492.0696
   1416.68884     835.1232     493.3166   1416.68884     835.1232     493.3166
   1416.67358     835.2961     493.2137   1416.67358     835.2961     493.2137
   1416.65833     836.5676     492.0692   1416.65833     836.5676     492.0692
   1416.64307     837.9546     492.4496   1416.64307     837.9546     492.4496
   1416.62781     837.0711     491.9875   1416.62781     837.0711     491.9875
   1416.61255     837.0340     492.9930   1416.61255     837.0340     492.9930
   1416.59729     837.6195     493.4320   1416.59729     837.6195     493.4320
   1416.58203     835.5706     492.8647   1416.58203     835.5706     492.8647
   1416.56677     836.7280     493.8389   1416.56677     836.7280     493.8389
   1416.55151     837.7794     493.0526   1416.55151     837.7794     493.0526
   1416.53625     837.4624     493.5347   1416.53625     837.4624     493.5347
   1416.52100     838.8101     493.8847   1416.52100     838.8101     493.8847
   1416.50574     838.7093     493.1081   1416.50574     838.7093     493.1081
   1416.49048     838.8966     493.7044   1416.49048     838.8966     493.7044
   1416.47522     838.4130     493.7421   1416.47522     838.4130     493.7421
   1416.45996     838.3939     492.1921   1416.45996     838.3939     492.1921
   1416.44470     837.7912     493.7982   1416.44470     837.7912     493.7982
   1416.42944     837.4698     493.3373   1416.42944     837.4698     493.3373
   1416.41418     836.7131     493.1307   1416.41418     836.7131     493.1307
   1416.39893     837.6519     492.2846   1416.39893     837.6519     492.2846
   1416.38367     837.5638     492.7006   1416.38367     837.5638     492.7006
   1416.36841     837.4743     492.6736   1416.36841     837.4743     492.6736
   1416.35315     837.7340     492.5222   1416.35315     837.7340     492.5222
   1416.33789     836.7419     492.2298   1416.33789     836.7419     492.2298
   1416.32263     837.4617     492.1284   1416.32263     837.4617     492.1284
   1416.30737     834.9792     492.1126   1416.30737     834.9792     492.1126
   1416.29211     835.9489     491.9442   1416.29211     835.9489     491.9442
   1416.27686     835.9720     491.7849   1416.27686     835.9720     491.7849
   1416.26160     836.4124     491.9223   1416.26160     836.4124     491.9223
   1416.24634     835.9635     491.9408   1416.24634     835.9635     491.9408
   1416.23108     836.9626     492.4423   1416.23108     836.9626     492.4423
   1416.21582     834.9382     492.4222   1416.21582     834.9382     492.4222
   1416.20056     835.1837     491.2374   1416.20056     835.1837     491.2374
   1416.18530     833.4181     491.0883   1416.18530     833.4181     491.0883
   1416.17004     833.1989     491.0928   1416.17004     833.1989     491.0928
   1416.15479     831.6796     490.9735   1416.15479     831.6796     490.9735
   1416.13953     832.5198     491.1877   1416.13953     832.5198     491.1877
   1416.12427     832.1993     490.7362   1416.12427     832.1993     490.7362
   1416.10901     831.3461     490.4297   1416.10901     831.3461     490.4297
   1416.09375     831.1323     490.5635   1416.09375     831.1323     490.5635
   1416.07849     830.4388     489.3224   1416.07849     830.4388     489.3224
   1416.06323     829.7501     489.4740   1416.06323     829.7501     489.4740
   1416.04797     829.9876     489.1940   1416.04797     829.9876     489.1940
   1416.03271     829.7158     488.8186   1416.03271     829.7158     488.8186
   1416.01746     827.4026     489.2591   1416.01746     827.4026     489.2591
   1416.00220     826.9149     488.4540   1416.00220     826.9149     488.4540
   1415.98694     826.4483     489.3581   1415.98694     826.4483     489.3581
   1415.97168     827.2230     487.9621   1415.97168     827.2230     487.9621
   1415.95642     826.8590     488.3640   1415.95642     826.8590     488.3640
   1415.94116     825.7200     488.3000   1415.94116     825.7200     488.3000
   1415.92590     823.8645     486.7293   1415.92590     823.8645     486.7293
   1415.91064     824.5875     487.7215   1415.91064     824.5875     487.7215
   1415.89539     822.7456     486.8035   1415.89539     822.7456     486.8035
   1415.88013     822.1984     487.4133   1415.88013     822.1984     487.4133
   1415.86487     821.8852     486.2782   1415.86487     821.8852     486.2782
   1415.84961     822.0031     487.0774   1415.84961     822.0031     487.0774
   1415.83435     820.0899     486.3946   1415.83435     820.0899     486.3946
   1415.81909     819.7718     486.0375   1415.81909     819.7718     486.0375
   1415.80383     817.9403     485.8369   1415.80383     817.9403     485.8369
   1415.78857     818.0885     485.2304   1415.78857     818.0885     485.2304
   1415.77332     815.7084     485.1535   1415.77332     815.7084     485.1535
   1415.75806     816.7464     485.0222   1415.75806     816.7464     485.0222
   1415.74280     814.9545     485.2647   1415.74280     814.9545     485.2647
   1415.72754     813.0316     484.8801   1415.72754     813.0316     484.8801
   1415.71228     813.1121     483.4102   1415.71228     813.1121     483.4102
   1415.69702     812.6205     483.7812   1415.69702     812.6205     483.7812
   1415.68176     811.1366     483.9939   1415.68176     811.1366     483.9939
   1415.66650     810.4595     483.6767   1415.66650     810.4595     483.6767
   1415.65125     808.8552     483.3637   1415.65125     808.8552     483.3637
   1415.63599     809.0437     482.5705   1415.63599     809.0437     482.5705
   1415.62073     807.6218     481.7299   1415.62073     807.6218     481.7299
   1415.60547     805.9686     481.9735   1415.60547     805.9686     481.9735
   1415.59021     804.7175     481.9051   1415.59021     804.7175     481.9051
   1415.57495     805.3269     482.0768   1415.57495     805.3269     482.0768
   1415.55969     803.5167     481.3165   1415.55969     803.5167     481.3165
   1415.54443     802.1075     481.2501   1415.54443     802.1075     481.2501
   1415.52917     800.9400     481.2772   1415.52917     800.9400     481.2772
   1415.51392     800.1740     480.6500   1415.51392     800.1740     480.6500
   1415.49866     800.1526     480.1223   1415.49866     800.1526     480.1223
   1415.48340     798.1492     479.6449   1415.48340     798.1492     479.6449
   1415.46814     796.3203     479.1486   1415.46814     796.3203     479.1486
   1415.45288     795.9203     478.6989   1415.45288     795.9203     478.6989
   1415.43762     794.6723     479.0141   1415.43762     794.6723     479.0141
   1415.42236     794.1243     478.0096   1415.42236     794.1243     478.0096
   1415.40710     791.7500     477.9611   1415.40710     791.7500     477.9611
   1415.39185     791.1281     478.2284   1415.39185     791.1281     478.2284
   1415.37659     789.1398     477.0099   1415.37659     789.1398     477.0099
   1415.36133     787.9945     476.6779   1415.36133     787.9945     476.6779
   1415.34607     787.1303     476.7040   1415.34607     787.1303     476.7040
   1415.33081     785.4324     475.8611   1415.33081     785.4324     475.8611
   1415.31555     784.6609     476.0194   1415.31555     784.6609     476.0194
   1415.30029     782.2523     475.5371   1415.30029     782.2523     475.5371
   1415.28503     781.9073     475.7838   1415.28503     781.9073     475.7838
   1415.26978     780.5605     474.4437   1415.26978     780.5605     474.4437
   1415.25452     778.8947     473.9493   1415.25452     778.8947     473.9493
   1415.23926     778.1541     473.8669   1415.23926     778.1541     473.8669
   1415.22400     777.0331     474.2016   1415.22400     777.0331     474.2016
   1415.20874     773.9617     472.7898   1415.20874     773.9617     472.7898
   1415.19348     773.2697     471.9578   1415.19348     773.2697     471.9578
   1415.17822     772.5093     472.4071   1415.17822     772.5093     472.4071
   1415.16296     769.7988     471.9814   1415.16296     769.7988     471.9814
   1415.14771     767.4964     471.3369   1415.14771     767.4964     471.3369
   1415.13245     767.3496     469.9649   1415.13245     767.3496     469.9649
   1415.11719     764.9960     469.9715   1415.11719     764.9960     469.9715
   1415.10193     762.7661     470.1360   1415.10193     762.7661     470.1360
   1415.08667     761.5199     469.6265   1415.08667     761.5199     469.6265
   1415.07141     760.0228     468.9527   1415.07141     760.0228     468.9527
   1415.05615     759.8698     468.0838   1415.05615     759.8698     468.0838
   1415.04089     757.2992     468.0522   1415.04089     757.2992     468.0522
   1415.02563     755.5344     466.3480   1415.02563     755.5344     466.3480
   1415.01038     753.7684     466.5290   1415.01038     753.7684     466.5290
   1414.99512     751.0643     465.9601   1414.99512     751.0643     465.9601
   1414.97986     748.8482     465.0648   1414.97986     748.8482     465.0648
   1414.96460     748.6896     464.7074   1414.96460     748.6896     464.7074
   1414.94934     747.3227     465.0652   1414.94934     747.3227     465.0652
   1414.93408     744.3364     463.4853   1414.93408     744.3364     463.4853
   1414.91882     743.9210     462.6164   1414.91882     743.9210     462.6164
   1414.90356     740.5388     462.0538   1414.90356     740.5388     462.0538
   1414.88831     738.8093     462.3654   1414.88831     738.8093     462.3654
   1414.87305     737.1241     461.2358   1414.87305     737.1241     461.2358
   1414.85779     735.9208     460.6245   1414.85779     735.9208     460.6245
   1414.84253     733.0269     460.4016   1414.84253     733.0269     460.4016
   1414.82727     731.0082     459.2589   1414.82727     731.0082     459.2589
   1414.81201     729.4824     459.0604   1414.81201     729.4824     459.0604
   1414.79675     727.1478     457.8290   1414.79675     727.1478     457.8290
   1414.78149     725.0222     456.8499   1414.78149     725.0222     456.8499
   1414.76624     723.2751     456.9412   1414.76624     723.2751     456.9412
   1414.75098     720.9431     456.1535   1414.75098     720.9431     456.1535
   1414.73572     718.8992     455.3907   1414.73572     718.8992     455.3907
   1414.72046     716.1650     454.2599   1414.72046     716.1650     454.2599
   1414.70520     713.9980     453.2682   1414.70520     713.9980     453.2682
   1414.68994     712.3795     452.4782   1414.68994     712.3795     452.4782
   1414.67468     708.4982     451.4512   1414.67468     708.4982     451.4512
   1414.65942     707.8339     451.2420   1414.65942     707.8339     451.2420
   1414.64417     706.2734     450.7188   1414.64417     706.2734     450.7188
   1414.62891     703.4409     449.8512   1414.62891     703.4409     449.8512
   1414.61365     700.7802     448.6430   1414.61365     700.7802     448.6430
   1414.59839     698.9703     447.3394   1414.59839     698.9703     447.3394
   1414.58313     695.1675     446.4720   1414.58313     695.1675     446.4720
   1414.56787     693.1942     446.4910   1414.56787     693.1942     446.4910
   1414.55261     691.4978     444.6297   1414.55261     691.4978     444.6297
   1414.53735     687.0207     443.3042   1414.53735     687.0207     443.3042
   1414.52209     686.3423     442.3404   1414.52209     686.3423     442.3404
   1414.50684     683.3244     441.8982   1414.50684     683.3244     441.8982
   1414.49158     681.3067     440.9655   1414.49158     681.3067     440.9655
   1414.47632     679.2147     439.9644   1414.47632     679.2147     439.9644
   1414.46106     676.6148     439.0375   1414.46106     676.6148     439.0375
   1414.44580     673.6151     438.1629   1414.44580     673.6151     438.1629
   1414.43054     670.9221     437.1629   1414.43054     670.9221     437.1629
   1414.41528     668.8898     436.3956   1414.41528     668.8898     436.3956
   1414.40002     665.2529     435.1415   1414.40002     665.2529     435.1415
   1414.38477     663.2092     433.8952   1414.38477     663.2092     433.8952
   1414.36951     660.9228     433.3313   1414.36951     660.9228     433.3313
   1414.35425     657.4947     432.2929   1414.35425     657.4947     432.2929
   1414.33899     654.5342     430.6687   1414.33899     654.5342     430.6687
   1414.32373     650.8649     429.3631   1414.32373     650.8649     429.3631
   1414.30847     651.0898     428.2591   1414.30847     651.0898     428.2591
   1414.29321     646.4292     427.4279   1414.29321     646.4292     427.4279
   1414.27795     642.8488     426.7921   1414.27795     642.8488     426.7921
   1414.26270     640.5936     424.3318   1414.26270     640.5936     424.3318
   1414.24744     638.8240     424.0428   1414.24744     638.8240     424.0428
   1414.23218     636.0445     422.8209   1414.23218     636.0445     422.8209
   1414.21692     631.9146     422.1257   1414.21692     631.9146     422.1257
   1414.20166     629.7499     420.6915   1414.20166     629.7499     420.6915
   1414.18640     626.8127     418.9393   1414.18640     626.8127     418.9393
   1414.17114     623.9917     417.4942   1414.17114     623.9917     417.4942
   1414.15588     621.6333     416.1214   1414.15588     621.6333     416.1214
   1414.14062     618.0228     415.6715   1414.14062     618.0228     415.6715
   1414.12537     613.9811     414.2765   1414.12537     613.9811     414.2765
   1414.11011     611.5688     413.0464   1414.11011     611.5688     413.0464
   1414.09485     608.9667     411.4939   1414.09485     608.9667     411.4939
   1414.07959     606.2560     410.4456   1414.07959     606.2560     410.4456
   1414.06433     603.5162     408.9765   1414.06433     603.5162     408.9765
   1414.04907     599.5460     407.1264   1414.04907     599.5460     407.1264
   1414.03381     597.2815     406.0283   1414.03381     597.2815     406.0283
   1414.01855     596.0575     405.1053   1414.01855     596.0575     405.1053
   1414.00330     617.1944     413.3084   1414.00330     617.1944     413.3084
   1413.98804     589.8976     402.7043   1413.98804     589.8976     402.7043
   1413.97278     584.8411     401.0716   1413.97278     584.8411     401.0716
   1413.95752     581.4904     398.9041   1413.95752     581.4904     398.9041
   1413.94226     578.8583     397.8363   1413.94226     578.8583     397.8363
   1413.92700     575.1949     396.4737   1413.92700     575.1949     396.4737
   1413.91174     572.1832     394.9079   1413.91174     572.1832     394.9079
   1413.89648     569.2139     393.7693   1413.89648     569.2139     393.7693
   1413.88123     566.5679     392.2954   1413.88123     566.5679     392.2954
   1413.86597     563.1708     391.1753   1413.86597     563.1708     391.1753
   1413.85071     559.8104     389.1611   1413.85071     559.8104     389.1611
   1413.83545     557.6755     387.6706   1413.83545     557.6755     387.6706
   1413.82019     553.6141     386.1613   1413.82019     553.6141     386.1613
   1413.80493     550.7173     385.0923   1413.80493     550.7173     385.0923
   1413.78967     546.5891     383.4494   1413.78967     546.5891     383.4494
   1413.77441     543.9915     381.5710   1413.77441     543.9915     381.5710
   1413.75916     542.0989     380.0764   1413.75916     542.0989     380.0764
   1413.74390     538.1620     379.0924   1413.74390     538.1620     379.0924
   1413.72864     534.9069     376.8138   1413.72864     534.9069     376.8138
   1413.71338     531.7519     375.6310   1413.71338     531.7519     375.6310
   1413.69812     528.8985     374.8172   1413.69812     528.8985     374.8172
   1413.68286     525.4830     371.8718   1413.68286     525.4830     371.8718
   1413.66760     522.7907     370.9898   1413.66760     522.7907     370.9898
   1413.65234     519.3087     369.5839   1413.65234     519.3087     369.5839
   1413.63708     516.0804     367.9819   1413.63708     516.0804     367.9819
   1413.62183     513.2987     366.0525   1413.62183     513.2987     366.0525
   1413.60657     509.9513     364.6747   1413.60657     509.9513     364.6747
   1413.59131     506.6833     363.6079   1413.59131     506.6833     363.6079
   1413.57605     503.6206     361.6516   1413.57605     503.6206     361.6516
   1413.56079     500.6093     360.6020   1413.56079     500.6093     360.6020
   1413.54553     497.9428     358.2714   1413.54553     497.9428     358.2714
   1413.53027     494.4562     356.8391   1413.53027     494.4562     356.8391
   1413.51501     491.4830     355.5633   1413.51501     491.4830     355.5633
   1413.49976     488.2914     353.8196   1413.49976     488.2914     353.8196
   1413.48450     485.4527     352.9542   1413.48450     485.4527     352.9542
   1413.46924     482.8416     350.2732   1413.46924     482.8416     350.2732
   1413.45398     479.9397     349.1826   1413.45398     479.9397     349.1826
   1413.43872     476.9728     347.7713   1413.43872     476.9728     347.7713
   1413.42346     473.4720     345.6422   1413.42346     473.4720     345.6422
   1413.40820     470.4197     344.6658   1413.40820     470.4197     344.6658
   1413.39294     467.3508     343.2173   1413.39294     467.3508     343.2173
   1413.37769     464.6988     341.3654   1413.37769     464.6988     341.3654
   1413.36243     462.8419     339.9629   1413.36243     462.8419     339.9629
   1413.34717     459.3076     338.6758   1413.34717     459.3076     338.6758
   1413.33191     457.0761     337.0588   1413.33191     457.0761     337.0588
   1413.31665     453.3633     335.1791   1413.31665     453.3633     335.1791
   1413.30139     451.2949     333.9700   1413.30139     451.2949     333.9700
   1413.28613     448.2151     332.3483   1413.28613     448.2151     332.3483
   1413.27087     445.3392     330.9365   1413.27087     445.3392     330.9365
   1413.25562     443.2903     328.6196   1413.25562     443.2903     328.6196
   1413.24036     440.2420     327.6319   1413.24036     440.2420     327.6319
   1413.22510     437.4451     326.2074   1413.22510     437.4451     326.2074
   1413.20984     435.0121     325.3487   1413.20984     435.0121     325.3487
   1413.19458     432.5298     323.9969   1413.19458     432.5298     323.9969
   1413.17932     430.0633     322.6356   1413.17932     430.0633     322.6356
   1413.16406     427.2756     320.8903   1413.16406     427.2756     320.8903
   1413.14880     425.2912     319.0582   1413.14880     425.2912     319.0582
   1413.13354     423.2197     317.7021   1413.13354     423.2197     317.7021
   1413.11829     420.0805     316.4541   1413.11829     420.0805     316.4541
   1413.10303     417.8990     314.9738   1413.10303     417.8990     314.9738
   1413.08777     415.7715     314.0895   1413.08777     415.7715     314.0895
   1413.07251     412.9480     312.7998   1413.07251     412.9480     312.7998
   1413.05725     411.2530     311.2555   1413.05725     411.2530     311.2555
   1413.04199     409.0451     309.6378   1413.04199     409.0451     309.6378
   1413.02673     406.7909     308.5493   1413.02673     406.7909     308.5493
   1413.01147     404.9469     307.5287   1413.01147     404.9469     307.5287
   1412.99622     402.4442     306.0812   1412.99622     402.4442     306.0812
   1412.98096     400.6230     305.1772   1412.98096     400.6230     305.1772
   1412.96570     398.2776     303.5202   1412.96570     398.2776     303.5202
   1412.95044     396.8000     302.6727   1412.95044     396.8000     302.6727
   1412.93518     395.1458     301.5866   1412.93518     395.1458     301.5866
   1412.91992     392.6797     300.1527   1412.91992     392.6797     300.1527
   1412.90466     390.6124     299.1337   1412.90466     390.6124     299.1337
   1412.88940     389.1697     298.2806   1412.88940     389.1697     298.2806
   1412.87415     386.9362     297.0787   1412.87415     386.9362     297.0787
   1412.85889     385.0804     296.1581   1412.85889     385.0804     296.1581
   1412.84363     383.6375     295.1969   1412.84363     383.6375     295.1969
   1412.82837     382.3295     293.8287   1412.82837     382.3295     293.8287
   1412.81311     381.7073     292.8118   1412.81311     381.7073     292.8118
   1412.79785     379.6807     291.8666   1412.79785     379.6807     291.8666
   1412.78259     378.1259     291.1823   1412.78259     378.1259     291.1823
   1412.76733     376.1013     289.9960   1412.76733     376.1013     289.9960
   1412.75208     374.7460     289.4002   1412.75208     374.7460     289.4002
   1412.73682     373.4568     288.5135   1412.73682     373.4568     288.5135
   1412.72156     371.7840     287.4953   1412.72156     371.7840     287.4953
   1412.70630     371.0376     286.6919   1412.70630     371.0376     286.6919
   1412.69104     370.0523     286.3453   1412.69104     370.0523     286.3453
   1412.67578     368.7408     285.2160   1412.67578     368.7408     285.2160
   1412.66052     367.6930     285.0215   1412.66052     367.6930     285.0215
   1412.64526     366.4587     284.2999   1412.64526     366.4587     284.2999
   1412.63000     366.3077     283.3891   1412.63000     366.3077     283.3891
   1412.61475     365.1656     282.9800   1412.61475     365.1656     282.9800
   1412.59949     363.5979     282.5080   1412.59949     363.5979     282.5080
   1412.58423     363.2291     281.5538   1412.58423     363.2291     281.5538
   1412.56897     363.0594     281.2491   1412.56897     363.0594     281.2491
   1412.55371     362.0326     280.7224   1412.55371     362.0326     280.7224
   1412.53845     361.5611     280.7198   1412.53845     361.5611     280.7198
   1412.52319     361.0328     280.1228   1412.52319     361.0328     280.1228
   1412.50793     360.2804     279.3351   1412.50793     360.2804     279.3351
   1412.49268     360.0750     279.3608   1412.49268     360.0750     279.3608
   1412.47742     359.4273     279.4372   1412.47742     359.4273     279.4372
   1412.46216     359.0059     279.1041   1412.46216     359.0059     279.1041
   1412.44690     358.7252     278.2188   1412.44690     358.7252     278.2188
   1412.43164     358.3919     277.9359   1412.43164     358.3919     277.9359
   1412.41638     357.8908     278.2274   1412.41638     357.8908     278.2274
   1412.40112     357.9952     278.1370   1412.40112     357.9952     278.1370
   1412.38586     358.3221     278.2105   1412.38586     358.3221     278.2105
   1412.37061     358.3279     278.2345   1412.37061     358.3279     278.2345
   1412.35535     357.9532     278.1364   1412.35535     357.9532     278.1364
   1412.34009     358.2859     278.2627   1412.34009     358.2859     278.2627
   1412.32483     358.3664     278.1379   1412.32483     358.3664     278.1379
   1412.30957     358.9083     278.0620   1412.30957     358.9083     278.0620
   1412.29431     358.6257     278.6516   1412.29431     358.6257     278.6516
   1412.27905     358.8561     278.7236   1412.27905     358.8561     278.7236
   1412.26379     359.3261     279.2289   1412.26379     359.3261     279.2289
   1412.24854     360.1638     279.3034   1412.24854     360.1638     279.3034
   1412.23328     360.0390     279.4355   1412.23328     360.0390     279.4355
   1412.21802     360.7006     280.3827   1412.21802     360.7006     280.3827
   1412.20276     361.4557     280.1719   1412.20276     361.4557     280.1719