#     FILENAME=!Skynet_57528_lach-hhg-141_20465_20965.cyb.fits
#     BASENAME=Skynet_57528_lach-hhg-141_20465_20965
#     SRC_NAME=lach-hhg-141
#     OBSERVER=hhgmadison16_9500
#     DATE_OBS=2016-05-20T17:19:30.750
#        OBSID=20465
#      SCANNUM=20965
#          MJD=57528.7229
#          UTC=62460
#     SCANTYPE=track
#     DATAMODE=HIRES
#     TUNEFREQ=1420.0000
# Actual_FREQ1=1420.0000
# Actual_FREQ2=1420.0000
#    LO1Tuning=6870.000
#     RFFILTER=1355_1435
#        OBSBW=-15.6250
#        NCHAN=1024 
#        FOCUS=37.0709
#           RA=03:13:47.85
#          DEC=57:47:25.94
#      RA(hrs)=3.230000
#     DEC(deg)=57.790500
#    AZIM(deg)=344.075
#    ELEV(deg)=69.419
#     IFattens=11.00, 10.00
#      WARNING=None
#    TCAL_XL1=7.9635
#    TCAL_YR1=9.1340
#    TCAL_XL2=7.9635
#    TCAL_YR2=9.1340
#     TRX_XL1=11.7060
#     TRX_YR1=11.7060
#     TRX_XL2=11.7060
#     TRX_YR2=11.7060
#        TAVE=1.0000
#Freq1(MHz)          XL1          YR1  Freq2(MHz)          XL2          YR2 

   1427.81250     299.3118     252.1338   1427.81250     299.3118     252.1338
   1427.79724     299.6245     253.2418   1427.79724     299.6245     253.2418
   1427.78198     300.3393     254.0449   1427.78198     300.3393     254.0449
   1427.76672     300.6078     255.5042   1427.76672     300.6078     255.5042
   1427.75146     301.4433     256.3307   1427.75146     301.4433     256.3307
   1427.73621     302.1927     257.0453   1427.73621     302.1927     257.0453
   1427.72095     302.8408     258.2709   1427.72095     302.8408     258.2709
   1427.70569     303.9892     259.4901   1427.70569     303.9892     259.4901
   1427.69043     304.4168     260.0388   1427.69043     304.4168     260.0388
   1427.67517     305.4988     261.3564   1427.67517     305.4988     261.3564
   1427.65991     306.3493     262.8920   1427.65991     306.3493     262.8920
   1427.64465     307.0192     263.7531   1427.64465     307.0192     263.7531
   1427.62939     308.3985     265.2508   1427.62939     308.3985     265.2508
   1427.61414     309.6810     266.5714   1427.61414     309.6810     266.5714
   1427.59888     310.0730     267.6195   1427.59888     310.0730     267.6195
   1427.58362     311.2230     269.5926   1427.58362     311.2230     269.5926
   1427.56836     312.5101     270.5376   1427.56836     312.5101     270.5376
   1427.55310     313.9475     271.8235   1427.55310     313.9475     271.8235
   1427.53784     315.2093     273.5190   1427.53784     315.2093     273.5190
   1427.52258     316.7445     274.7971   1427.52258     316.7445     274.7971
   1427.50732     317.3770     276.3848   1427.50732     317.3770     276.3848
   1427.49207     319.2033     277.7362   1427.49207     319.2033     277.7362
   1427.47681     320.9274     279.3894   1427.47681     320.9274     279.3894
   1427.46155     321.2426     281.3036   1427.46155     321.2426     281.3036
   1427.44629     323.2045     282.8718   1427.44629     323.2045     282.8718
   1427.43103     324.4795     284.1457   1427.43103     324.4795     284.1457
   1427.41577     326.2635     285.7209   1427.41577     326.2635     285.7209
   1427.40051     327.7347     287.2635   1427.40051     327.7347     287.2635
   1427.38525     329.3334     288.9269   1427.38525     329.3334     288.9269
   1427.37000     331.2915     290.4908   1427.37000     331.2915     290.4908
   1427.35474     332.8194     292.5675   1427.35474     332.8194     292.5675
   1427.33948     334.7389     294.7678   1427.33948     334.7389     294.7678
   1427.32422     336.2186     295.9552   1427.32422     336.2186     295.9552
   1427.30896     337.8172     297.7816   1427.30896     337.8172     297.7816
   1427.29370     339.8459     299.4013   1427.29370     339.8459     299.4013
   1427.27844     341.5717     301.6273   1427.27844     341.5717     301.6273
   1427.26318     343.6746     303.1782   1427.26318     343.6746     303.1782
   1427.24792     345.8058     305.0621   1427.24792     345.8058     305.0621
   1427.23267     347.9844     307.6613   1427.23267     347.9844     307.6613
   1427.21741     349.7900     308.2926   1427.21741     349.7900     308.2926
   1427.20215     351.8818     310.5618   1427.20215     351.8818     310.5618
   1427.18689     353.5015     312.2932   1427.18689     353.5015     312.2932
   1427.17163     355.0779     314.9847   1427.17163     355.0779     314.9847
   1427.15637     357.9362     316.3783   1427.15637     357.9362     316.3783
   1427.14111     359.3439     318.7898   1427.14111     359.3439     318.7898
   1427.12585     362.6323     320.0951   1427.12585     362.6323     320.0951
   1427.11060     363.9555     322.4052   1427.11060     363.9555     322.4052
   1427.09534     366.3921     324.2618   1427.09534     366.3921     324.2618
   1427.08008     368.4179     326.2461   1427.08008     368.4179     326.2461
   1427.06482     370.5874     328.3575   1427.06482     370.5874     328.3575
   1427.04956     372.9754     330.5305   1427.04956     372.9754     330.5305
   1427.03430     374.4158     332.6597   1427.03430     374.4158     332.6597
   1427.01904     377.0335     334.3300   1427.01904     377.0335     334.3300
   1427.00378     379.8825     336.8170   1427.00378     379.8825     336.8170
   1426.98853     382.0814     338.6750   1426.98853     382.0814     338.6750
   1426.97327     385.2074     340.7566   1426.97327     385.2074     340.7566
   1426.95801     386.9996     342.7892   1426.95801     386.9996     342.7892
   1426.94275     388.9429     345.0148   1426.94275     388.9429     345.0148
   1426.92749     391.3205     346.6039   1426.92749     391.3205     346.6039
   1426.91223     394.6951     348.5027   1426.91223     394.6951     348.5027
   1426.89697     397.5742     351.1205   1426.89697     397.5742     351.1205
   1426.88171     398.7623     352.8452   1426.88171     398.7623     352.8452
   1426.86646     401.6577     355.1456   1426.86646     401.6577     355.1456
   1426.85120     403.8444     356.9262   1426.85120     403.8444     356.9262
   1426.83594     406.4449     359.2594   1426.83594     406.4449     359.2594
   1426.82068     409.1378     361.0857   1426.82068     409.1378     361.0857
   1426.80542     411.9883     363.2503   1426.80542     411.9883     363.2503
   1426.79016     413.3232     364.8553   1426.79016     413.3232     364.8553
   1426.77490     416.2563     366.6263   1426.77490     416.2563     366.6263
   1426.75964     418.8840     368.8242   1426.75964     418.8840     368.8242
   1426.74438     421.9413     370.9553   1426.74438     421.9413     370.9553
   1426.72913     423.7521     372.8600   1426.72913     423.7521     372.8600
   1426.71387     426.2679     375.4896   1426.71387     426.2679     375.4896
   1426.69861     429.9434     377.1555   1426.69861     429.9434     377.1555
   1426.68335     431.8077     379.1465   1426.68335     431.8077     379.1465
   1426.66809     434.3828     381.1599   1426.66809     434.3828     381.1599
   1426.65283     436.7434     383.0514   1426.65283     436.7434     383.0514
   1426.63757     439.8204     385.2109   1426.63757     439.8204     385.2109
   1426.62231     442.6816     390.1683   1426.62231     442.6816     390.1683
   1426.60706     444.9394     389.6594   1426.60706     444.9394     389.6594
   1426.59180     446.5369     390.4306   1426.59180     446.5369     390.4306
   1426.57654     449.2029     392.9707   1426.57654     449.2029     392.9707
   1426.56128     452.1125     394.1975   1426.56128     452.1125     394.1975
   1426.54602     454.6533     396.4807   1426.54602     454.6533     396.4807
   1426.53076     457.3295     398.8977   1426.53076     457.3295     398.8977
   1426.51550     460.0002     399.8274   1426.51550     460.0002     399.8274
   1426.50024     461.8182     401.9465   1426.50024     461.8182     401.9465
   1426.48499     465.3510     404.1408   1426.48499     465.3510     404.1408
   1426.46973     467.3595     406.3462   1426.46973     467.3595     406.3462
   1426.45447     470.0864     407.5165   1426.45447     470.0864     407.5165
   1426.43921     472.1923     409.8610   1426.43921     472.1923     409.8610
   1426.42395     474.7834     411.3678   1426.42395     474.7834     411.3678
   1426.40869     477.1752     412.7418   1426.40869     477.1752     412.7418
   1426.39343     480.2644     414.7601   1426.39343     480.2644     414.7601
   1426.37817     482.8573     416.7990   1426.37817     482.8573     416.7990
   1426.36292     485.4556     418.1224   1426.36292     485.4556     418.1224
   1426.34766     487.3648     418.9211   1426.34766     487.3648     418.9211
   1426.33240     490.4639     421.3965   1426.33240     490.4639     421.3965
   1426.31714     492.4521     423.0219   1426.31714     492.4521     423.0219
   1426.30188     494.8340     425.7178   1426.30188     494.8340     425.7178
   1426.28662     497.7675     427.0699   1426.28662     497.7675     427.0699
   1426.27136     499.5552     428.8741   1426.27136     499.5552     428.8741
   1426.25610     501.1984     430.6118   1426.25610     501.1984     430.6118
   1426.24084     504.8649     431.5162   1426.24084     504.8649     431.5162
   1426.22559     506.2532     433.1212   1426.22559     506.2532     433.1212
   1426.21033     508.9570     434.2345   1426.21033     508.9570     434.2345
   1426.19507     511.2242     436.1443   1426.19507     511.2242     436.1443
   1426.17981     513.4177     438.3577   1426.17981     513.4177     438.3577
   1426.16455     515.3859     439.7411   1426.16455     515.3859     439.7411
   1426.14929     518.2808     441.0581   1426.14929     518.2808     441.0581
   1426.13403     520.8381     442.9184   1426.13403     520.8381     442.9184
   1426.11877     522.9380     443.2276   1426.11877     522.9380     443.2276
   1426.10352     524.6466     444.8811   1426.10352     524.6466     444.8811
   1426.08826     527.4164     446.4974   1426.08826     527.4164     446.4974
   1426.07300     529.4157     448.2009   1426.07300     529.4157     448.2009
   1426.05774     532.2325     450.1216   1426.05774     532.2325     450.1216
   1426.04248     533.4656     450.8097   1426.04248     533.4656     450.8097
   1426.02722     535.4142     452.7710   1426.02722     535.4142     452.7710
   1426.01196     538.0618     453.5596   1426.01196     538.0618     453.5596
   1425.99670     541.0140     454.6346   1425.99670     541.0140     454.6346
   1425.98145     542.0488     456.1969   1425.98145     542.0488     456.1969
   1425.96619     543.5953     457.4715   1425.96619     543.5953     457.4715
   1425.95093     546.2902     459.0386   1425.95093     546.2902     459.0386
   1425.93567     548.6236     459.4941   1425.93567     548.6236     459.4941
   1425.92041     550.5544     460.8106   1425.92041     550.5544     460.8106
   1425.90515     551.5624     462.2235   1425.90515     551.5624     462.2235
   1425.88989     554.6148     463.6766   1425.88989     554.6148     463.6766
   1425.87463     556.3372     465.0980   1425.87463     556.3372     465.0980
   1425.85938     557.1140     466.4795   1425.85938     557.1140     466.4795
   1425.84412     559.8738     466.7227   1425.84412     559.8738     466.7227
   1425.82886     560.9935     467.8724   1425.82886     560.9935     467.8724
   1425.81360     562.0058     468.6418   1425.81360     562.0058     468.6418
   1425.79834     565.3517     469.9310   1425.79834     565.3517     469.9310
   1425.78308     566.4351     470.8736   1425.78308     566.4351     470.8736
   1425.76782     567.4527     472.0267   1425.76782     567.4527     472.0267
   1425.75256     569.9164     473.2759   1425.75256     569.9164     473.2759
   1425.73730     571.0797     473.9495   1425.73730     571.0797     473.9495
   1425.72205     572.6442     474.1252   1425.72205     572.6442     474.1252
   1425.70679     575.7551     476.4595   1425.70679     575.7551     476.4595
   1425.69153     576.4125     476.2522   1425.69153     576.4125     476.2522
   1425.67627     577.6464     478.4688   1425.67627     577.6464     478.4688
   1425.66101     579.4102     478.1887   1425.66101     579.4102     478.1887
   1425.64575     580.6592     478.8121   1425.64575     580.6592     478.8121
   1425.63049     582.2574     480.7900   1425.63049     582.2574     480.7900
   1425.61523     584.2436     481.8249   1425.61523     584.2436     481.8249
   1425.59998     585.3104     482.3173   1425.59998     585.3104     482.3173
   1425.58472     586.1195     482.9617   1425.58472     586.1195     482.9617
   1425.56946     587.7958     483.7396   1425.56946     587.7958     483.7396
   1425.55420     589.5575     484.6834   1425.55420     589.5575     484.6834
   1425.53894     590.8765     484.8426   1425.53894     590.8765     484.8426
   1425.52368     591.7680     486.3238   1425.52368     591.7680     486.3238
   1425.50842     593.5895     486.3946   1425.50842     593.5895     486.3946
   1425.49316     593.5949     487.5938   1425.49316     593.5949     487.5938
   1425.47791     596.1198     488.4987   1425.47791     596.1198     488.4987
   1425.46265     597.0200     489.2972   1425.46265     597.0200     489.2972
   1425.44739     597.0355     489.6283   1425.44739     597.0355     489.6283
   1425.43213     598.6989     490.7875   1425.43213     598.6989     490.7875
   1425.41687     601.7172     490.8401   1425.41687     601.7172     490.8401
   1425.40161     600.7353     491.6530   1425.40161     600.7353     491.6530
   1425.38635     602.7680     492.3072   1425.38635     602.7680     492.3072
   1425.37109     602.8359     493.1597   1425.37109     602.8359     493.1597
   1425.35583     604.2106     493.7604   1425.35583     604.2106     493.7604
   1425.34058     604.4636     494.4090   1425.34058     604.4636     494.4090
   1425.32532     605.5895     495.3997   1425.32532     605.5895     495.3997
   1425.31006     607.1449     495.2833   1425.31006     607.1449     495.2833
   1425.29480     607.3677     496.5500   1425.29480     607.3677     496.5500
   1425.27954     608.5031     496.4026   1425.27954     608.5031     496.4026
   1425.26428     608.7928     496.5093   1425.26428     608.7928     496.5093
   1425.24902     610.6396     497.5765   1425.24902     610.6396     497.5765
   1425.23376     611.0241     498.2215   1425.23376     611.0241     498.2215
   1425.21851     612.4333     498.3727   1425.21851     612.4333     498.3727
   1425.20325     611.9655     499.7100   1425.20325     611.9655     499.7100
   1425.18799     612.4186     498.9263   1425.18799     612.4186     498.9263
   1425.17273     613.9026     499.6670   1425.17273     613.9026     499.6670
   1425.15747     614.9128     499.6293   1425.15747     614.9128     499.6293
   1425.14221     615.1411     500.2807   1425.14221     615.1411     500.2807
   1425.12695     614.7168     500.8418   1425.12695     614.7168     500.8418
   1425.11169     615.8823     502.0165   1425.11169     615.8823     502.0165
   1425.09644     616.3561     501.6291   1425.09644     616.3561     501.6291
   1425.08118     617.2458     502.1385   1425.08118     617.2458     502.1385
   1425.06592     616.7235     503.0393   1425.06592     616.7235     503.0393
   1425.05066     617.4538     503.0587   1425.05066     617.4538     503.0587
   1425.03540     619.0682     502.4359   1425.03540     619.0682     502.4359
   1425.02014     618.9114     503.1217   1425.02014     618.9114     503.1217
   1425.00488     619.6063     503.1578   1425.00488     619.6063     503.1578
   1424.98962     620.0863     504.3008   1424.98962     620.0863     504.3008
   1424.97437     619.5664     504.0681   1424.97437     619.5664     504.0681
   1424.95911     620.9646     504.9526   1424.95911     620.9646     504.9526
   1424.94385     620.3622     505.0783   1424.94385     620.3622     505.0783
   1424.92859     620.8651     504.7031   1424.92859     620.8651     504.7031
   1424.91333     621.3884     505.1027   1424.91333     621.3884     505.1027
   1424.89807     621.0701     506.1276   1424.89807     621.0701     506.1276
   1424.88281     622.8203     505.7743   1424.88281     622.8203     505.7743
   1424.86755     622.9597     506.2262   1424.86755     622.9597     506.2262
   1424.85229     622.2648     505.8970   1424.85229     622.2648     505.8970
   1424.83704     623.0485     506.6489   1424.83704     623.0485     506.6489
   1424.82178     622.7574     506.5837   1424.82178     622.7574     506.5837
   1424.80652     623.0391     507.0323   1424.80652     623.0391     507.0323
   1424.79126     622.3016     506.7925   1424.79126     622.3016     506.7925
   1424.77600     623.3470     507.3863   1424.77600     623.3470     507.3863
   1424.76074     623.1329     507.0002   1424.76074     623.1329     507.0002
   1424.74548     623.1041     507.6874   1424.74548     623.1041     507.6874
   1424.73022     623.3340     507.3348   1424.73022     623.3340     507.3348
   1424.71497     623.2667     506.9304   1424.71497     623.2667     506.9304
   1424.69971     623.1910     507.6623   1424.69971     623.1910     507.6623
   1424.68445     623.4183     508.2597   1424.68445     623.4183     508.2597
   1424.66919     624.5960     508.3591   1424.66919     624.5960     508.3591
   1424.65393     622.5863     508.5623   1424.65393     622.5863     508.5623
   1424.63867     623.2001     508.4115   1424.63867     623.2001     508.4115
   1424.62341     623.2402     509.1363   1424.62341     623.2402     509.1363
   1424.60815     622.0208     508.2820   1424.60815     622.0208     508.2820
   1424.59290     623.8160     507.9869   1424.59290     623.8160     507.9869
   1424.57764     622.7316     508.5627   1424.57764     622.7316     508.5627
   1424.56238     623.7351     508.6135   1424.56238     623.7351     508.6135
   1424.54712     622.1668     509.4028   1424.54712     622.1668     509.4028
   1424.53186     622.9752     508.6190   1424.53186     622.9752     508.6190
   1424.51660     622.5891     509.0551   1424.51660     622.5891     509.0551
   1424.50134     621.2664     508.5844   1424.50134     621.2664     508.5844
   1424.48608     622.3541     509.1857   1424.48608     622.3541     509.1857
   1424.47083     622.6893     508.7487   1424.47083     622.6893     508.7487
   1424.45557     622.3056     509.0894   1424.45557     622.3056     509.0894
   1424.44031     622.0925     508.7549   1424.44031     622.0925     508.7549
   1424.42505     621.2631     508.7635   1424.42505     621.2631     508.7635
   1424.40979     621.8745     509.3616   1424.40979     621.8745     509.3616
   1424.39453     620.9225     508.2188   1424.39453     620.9225     508.2188
   1424.37927     620.3195     509.3561   1424.37927     620.3195     509.3561
   1424.36401     620.9327     509.0064   1424.36401     620.9327     509.0064
   1424.34875     619.8760     508.5167   1424.34875     619.8760     508.5167
   1424.33350     619.7168     508.2854   1424.33350     619.7168     508.2854
   1424.31824     619.5009     509.2898   1424.31824     619.5009     509.2898
   1424.30298     618.9737     508.4739   1424.30298     618.9737     508.4739
   1424.28772     618.9351     508.0891   1424.28772     618.9351     508.0891
   1424.27246     618.3433     508.3625   1424.27246     618.3433     508.3625
   1424.25720     618.6805     508.6919   1424.25720     618.6805     508.6919
   1424.24194     616.3862     508.1176   1424.24194     616.3862     508.1176
   1424.22668     617.9575     507.9586   1424.22668     617.9575     507.9586
   1424.21143     617.9774     507.8699   1424.21143     617.9774     507.8699
   1424.19617     615.5837     507.8015   1424.19617     615.5837     507.8015
   1424.18091     615.9009     507.1060   1424.18091     615.9009     507.1060
   1424.16565     615.9376     507.9569   1424.16565     615.9376     507.9569
   1424.15039     616.8262     507.4859   1424.15039     616.8262     507.4859
   1424.13513     615.3621     507.6060   1424.13513     615.3621     507.6060
   1424.11987     615.5275     507.2910   1424.11987     615.5275     507.2910
   1424.10461     614.3858     507.0717   1424.10461     614.3858     507.0717
   1424.08936     614.0914     506.7163   1424.08936     614.0914     506.7163
   1424.07410     613.5270     506.3080   1424.07410     613.5270     506.3080
   1424.05884     613.3088     506.5567   1424.05884     613.3088     506.5567
   1424.04358     613.3830     506.7026   1424.04358     613.3830     506.7026
   1424.02832     612.5793     505.6603   1424.02832     612.5793     505.6603
   1424.01306     611.9207     505.8680   1424.01306     611.9207     505.8680
   1423.99780     610.3912     506.2538   1423.99780     610.3912     506.2538
   1423.98254     610.7407     505.3233   1423.98254     610.7407     505.3233
   1423.96729     610.6235     505.2482   1423.96729     610.6235     505.2482
   1423.95203     610.5092     504.7075   1423.95203     610.5092     504.7075
   1423.93677     610.2800     505.2390   1423.93677     610.2800     505.2390
   1423.92151     609.6012     504.2031   1423.92151     609.6012     504.2031
   1423.90625     609.5256     504.5417   1423.90625     609.5256     504.5417
   1423.89099     609.8452     504.3022   1423.89099     609.8452     504.3022
   1423.87573     607.8560     504.3969   1423.87573     607.8560     504.3969
   1423.86047     607.5024     503.6140   1423.86047     607.5024     503.6140
   1423.84521     606.3516     504.5356   1423.84521     606.3516     504.5356
   1423.82996     605.2207     503.6057   1423.82996     605.2207     503.6057
   1423.81470     606.2347     503.9185   1423.81470     606.2347     503.9185
   1423.79944     606.6896     502.7347   1423.79944     606.6896     502.7347
   1423.78418     605.5487     503.1546   1423.78418     605.5487     503.1546
   1423.76892     605.5856     502.7164   1423.76892     605.5856     502.7164
   1423.75366     604.8504     502.5002   1423.75366     604.8504     502.5002
   1423.73840     603.9069     501.9443   1423.73840     603.9069     501.9443
   1423.72314     603.2930     501.9398   1423.72314     603.2930     501.9398
   1423.70789     602.8556     500.9743   1423.70789     602.8556     500.9743
   1423.69263     602.7542     501.6565   1423.69263     602.7542     501.6565
   1423.67737     601.8033     500.6479   1423.67737     601.8033     500.6479
   1423.66211     601.5710     500.7340   1423.66211     601.5710     500.7340
   1423.64685     601.4363     500.5591   1423.64685     601.4363     500.5591
   1423.63159     600.9523     499.7198   1423.63159     600.9523     499.7198
   1423.61633     600.0044     498.9909   1423.61633     600.0044     498.9909
   1423.60107     599.3978     498.4919   1423.60107     599.3978     498.4919
   1423.58582     599.3411     499.2045   1423.58582     599.3411     499.2045
   1423.57056     598.9703     498.9861   1423.57056     598.9703     498.9861
   1423.55530     598.0981     497.1831   1423.55530     598.0981     497.1831
   1423.54004     598.4845     497.9346   1423.54004     598.4845     497.9346
   1423.52478     597.8627     497.4753   1423.52478     597.8627     497.4753
   1423.50952     596.8236     496.3669   1423.50952     596.8236     496.3669
   1423.49426     595.9496     496.3796   1423.49426     595.9496     496.3796
   1423.47900     596.4352     496.2217   1423.47900     596.4352     496.2217
   1423.46375     594.9562     495.6656   1423.46375     594.9562     495.6656
   1423.44849     595.5192     495.5075   1423.44849     595.5192     495.5075
   1423.43323     594.8848     494.4459   1423.43323     594.8848     494.4459
   1423.41797     593.9070     494.1189   1423.41797     593.9070     494.1189
   1423.40271     594.3536     493.3022   1423.40271     594.3536     493.3022
   1423.38745     592.9766     493.6061   1423.38745     592.9766     493.6061
   1423.37219     593.5527     493.1146   1423.37219     593.5527     493.1146
   1423.35693     592.8476     493.0074   1423.35693     592.8476     493.0074
   1423.34167     592.5125     491.7312   1423.34167     592.5125     491.7312
   1423.32642     591.4288     492.0837   1423.32642     591.4288     492.0837
   1423.31116     591.0842     491.7415   1423.31116     591.0842     491.7415
   1423.29590     591.1105     490.8159   1423.29590     591.1105     490.8159
   1423.28064     590.8099     490.1514   1423.28064     590.8099     490.1514
   1423.26538     590.7488     489.9403   1423.26538     590.7488     489.9403
   1423.25012     588.4305     489.0710   1423.25012     588.4305     489.0710
   1423.23486     588.4642     488.4460   1423.23486     588.4642     488.4460
   1423.21960     588.8978     488.2212   1423.21960     588.8978     488.2212
   1423.20435     588.2483     487.5801   1423.20435     588.2483     487.5801
   1423.18909     588.5933     487.0875   1423.18909     588.5933     487.0875
   1423.17383     588.3560     487.1263   1423.17383     588.3560     487.1263
   1423.15857     587.9573     486.1416   1423.15857     587.9573     486.1416
   1423.14331     587.4216     485.6754   1423.14331     587.4216     485.6754
   1423.12805     586.1489     484.5971   1423.12805     586.1489     484.5971
   1423.11279     585.5443     484.3369   1423.11279     585.5443     484.3369
   1423.09753     585.4441     483.3553   1423.09753     585.4441     483.3553
   1423.08228     585.3977     482.9852   1423.08228     585.3977     482.9852
   1423.06702     583.9729     482.9657   1423.06702     583.9729     482.9657
   1423.05176     583.7804     481.3387   1423.05176     583.7804     481.3387
   1423.03650     583.8776     481.5762   1423.03650     583.8776     481.5762
   1423.02124     583.9506     481.2422   1423.02124     583.9506     481.2422
   1423.00598     584.0268     479.9862   1423.00598     584.0268     479.9862
   1422.99072     582.5488     479.8056   1422.99072     582.5488     479.8056
   1422.97546     583.5742     479.5128   1422.97546     583.5742     479.5128
   1422.96021     581.8569     478.3789   1422.96021     581.8569     478.3789
   1422.94495     582.6255     477.4616   1422.94495     582.6255     477.4616
   1422.92969     581.4556     476.9941   1422.92969     581.4556     476.9941
   1422.91443     580.7576     476.3938   1422.91443     580.7576     476.3938
   1422.89917     580.6169     475.5933   1422.89917     580.6169     475.5933
   1422.88391     580.8015     475.0658   1422.88391     580.8015     475.0658
   1422.86865     580.0879     474.5248   1422.86865     580.0879     474.5248
   1422.85339     580.2176     474.3541   1422.85339     580.2176     474.3541
   1422.83813     579.9202     472.9221   1422.83813     579.9202     472.9221
   1422.82288     579.9837     472.9006   1422.82288     579.9837     472.9006
   1422.80762     578.3079     472.5534   1422.80762     578.3079     472.5534
   1422.79236     579.3802     471.2196   1422.79236     579.3802     471.2196
   1422.77710     578.0234     470.1083   1422.77710     578.0234     470.1083
   1422.76184     578.3478     470.0634   1422.76184     578.3478     470.0634
   1422.74658     577.5461     469.9156   1422.74658     577.5461     469.9156
   1422.73132     578.3973     468.5958   1422.73132     578.3973     468.5958
   1422.71606     576.5793     467.6460   1422.71606     576.5793     467.6460
   1422.70081     577.1349     467.8708   1422.70081     577.1349     467.8708
   1422.68555     577.3456     466.6498   1422.68555     577.3456     466.6498
   1422.67029     576.3507     465.4225   1422.67029     576.3507     465.4225
   1422.65503     576.1012     465.1817   1422.65503     576.1012     465.1817
   1422.63977     575.7510     464.7015   1422.63977     575.7510     464.7015
   1422.62451     575.7343     463.5938   1422.62451     575.7343     463.5938
   1422.60925     575.8194     462.3082   1422.60925     575.8194     462.3082
   1422.59399     574.5576     461.9315   1422.59399     574.5576     461.9315
   1422.57874     574.8593     461.0123   1422.57874     574.8593     461.0123
   1422.56348     574.5245     460.0856   1422.56348     574.5245     460.0856
   1422.54822     574.5093     459.1973   1422.54822     574.5093     459.1973
   1422.53296     574.3187     458.1607   1422.53296     574.3187     458.1607
   1422.51770     572.7966     457.8954   1422.51770     572.7966     457.8954
   1422.50244     574.4927     457.4959   1422.50244     574.4927     457.4959
   1422.48718     572.9983     456.3361   1422.48718     572.9983     456.3361
   1422.47192     573.1028     456.6056   1422.47192     573.1028     456.6056
   1422.45667     573.4647     455.0558   1422.45667     573.4647     455.0558
   1422.44141     572.3163     454.5806   1422.44141     572.3163     454.5806
   1422.42615     572.1071     454.3580   1422.42615     572.1071     454.3580
   1422.41089     571.6412     452.9456   1422.41089     571.6412     452.9456
   1422.39563     571.1601     452.1112   1422.39563     571.1601     452.1112
   1422.38037     571.4152     451.3219   1422.38037     571.4152     451.3219
   1422.36511     571.7390     450.6666   1422.36511     571.7390     450.6666
   1422.34985     572.0432     449.9342   1422.34985     572.0432     449.9342
   1422.33459     571.0773     448.7503   1422.33459     571.0773     448.7503
   1422.31934     571.2803     448.5043   1422.31934     571.2803     448.5043
   1422.30408     570.4429     447.3265   1422.30408     570.4429     447.3265
   1422.28882     570.6133     446.7828   1422.28882     570.6133     446.7828
   1422.27356     570.6740     445.3863   1422.27356     570.6740     445.3863
   1422.25830     570.7695     444.5654   1422.25830     570.7695     444.5654
   1422.24304     573.0223     444.8367   1422.24304     573.0223     444.8367
   1422.22778     570.8233     444.0330   1422.22778     570.8233     444.0330
   1422.21252     569.9949     442.2744   1422.21252     569.9949     442.2744
   1422.19727     571.2524     441.8818   1422.19727     571.2524     441.8818
   1422.18201     569.2424     440.8849   1422.18201     569.2424     440.8849
   1422.16675     570.1657     439.7932   1422.16675     570.1657     439.7932
   1422.15149     569.8431     439.4474   1422.15149     569.8431     439.4474
   1422.13623     569.2131     437.7117   1422.13623     569.2131     437.7117
   1422.12097     567.8235     437.4190   1422.12097     567.8235     437.4190
   1422.10571     569.0897     437.1261   1422.10571     569.0897     437.1261
   1422.09045     569.3702     436.1852   1422.09045     569.3702     436.1852
   1422.07520     568.2783     434.9186   1422.07520     568.2783     434.9186
   1422.05994     568.3594     433.6498   1422.05994     568.3594     433.6498
   1422.04468     568.1113     433.4583   1422.04468     568.1113     433.4583
   1422.02942     567.9836     431.8730   1422.02942     567.9836     431.8730
   1422.01416     567.8638     431.8039   1422.01416     567.8638     431.8039
   1421.99890     568.4046     431.2929   1421.99890     568.4046     431.2929
   1421.98364     567.6789     429.7864   1421.98364     567.6789     429.7864
   1421.96838     567.8907     429.3969   1421.96838     567.8907     429.3969
   1421.95312     567.7625     427.7284   1421.95312     567.7625     427.7284
   1421.93787     567.5017     427.5823   1421.93787     567.5017     427.5823
   1421.92261     566.7071     427.2663   1421.92261     566.7071     427.2663
   1421.90735     567.4907     425.4766   1421.90735     567.4907     425.4766
   1421.89209     567.9311     424.9888   1421.89209     567.9311     424.9888
   1421.87683     566.6478     423.8026   1421.87683     566.6478     423.8026
   1421.86157     566.6389     422.5795   1421.86157     566.6389     422.5795
   1421.84631     566.5038     421.8853   1421.84631     566.5038     421.8853
   1421.83105     566.2101     420.7550   1421.83105     566.2101     420.7550
   1421.81580     566.2991     420.5939   1421.81580     566.2991     420.5939
   1421.80054     565.4338     419.4882   1421.80054     565.4338     419.4882
   1421.78528     567.2386     418.9922   1421.78528     567.2386     418.9922
   1421.77002     566.1622     417.6009   1421.77002     566.1622     417.6009
   1421.75476     565.3531     417.1712   1421.75476     565.3531     417.1712
   1421.73950     565.6471     416.1503   1421.73950     565.6471     416.1503
   1421.72424     565.9946     414.9937   1421.72424     565.9946     414.9937
   1421.70898     564.8618     414.4516   1421.70898     564.8618     414.4516
   1421.69373     565.4969     413.1409   1421.69373     565.4969     413.1409
   1421.67847     565.3259     412.7715   1421.67847     565.3259     412.7715
   1421.66321     565.2374     412.1031   1421.66321     565.2374     412.1031
   1421.64795     564.6692     410.3411   1421.64795     564.6692     410.3411
   1421.63269     565.6356     410.2656   1421.63269     565.6356     410.2656
   1421.61743     564.9197     409.7497   1421.61743     564.9197     409.7497
   1421.60217     564.2736     408.3971   1421.60217     564.2736     408.3971
   1421.58691     564.7766     407.4192   1421.58691     564.7766     407.4192
   1421.57166     563.8473     406.1711   1421.57166     563.8473     406.1711
   1421.55640     563.3771     405.6349   1421.55640     563.3771     405.6349
   1421.54114     565.0025     404.8247   1421.54114     565.0025     404.8247
   1421.52588     563.6964     404.4468   1421.52588     563.6964     404.4468
   1421.51062     563.6754     403.6595   1421.51062     563.6754     403.6595
   1421.49536     564.0299     402.7535   1421.49536     564.0299     402.7535
   1421.48010     563.3828     401.0600   1421.48010     563.3828     401.0600
   1421.46484     563.3712     400.4326   1421.46484     563.3712     400.4326
   1421.44958     563.9742     399.7087   1421.44958     563.9742     399.7087
   1421.43433     562.8832     398.9441   1421.43433     562.8832     398.9441
   1421.41907     564.2255     398.7145   1421.41907     564.2255     398.7145
   1421.40381     563.2383     396.9518   1421.40381     563.2383     396.9518
   1421.38855     562.9855     395.9333   1421.38855     562.9855     395.9333
   1421.37329     563.0478     395.3853   1421.37329     563.0478     395.3853
   1421.35803     562.1645     394.6559   1421.35803     562.1645     394.6559
   1421.34277     562.6169     394.2279   1421.34277     562.6169     394.2279
   1421.32751     562.9421     393.2649   1421.32751     562.9421     393.2649
   1421.31226     563.3887     391.7247   1421.31226     563.3887     391.7247
   1421.29700     562.3668     390.7241   1421.29700     562.3668     390.7241
   1421.28174     561.7407     390.1590   1421.28174     561.7407     390.1590
   1421.26648     561.6848     389.8130   1421.26648     561.6848     389.8130
   1421.25122     562.6313     388.9025   1421.25122     562.6313     388.9025
   1421.23596     562.3480     388.6563   1421.23596     562.3480     388.6563
   1421.22070     561.8805     386.9082   1421.22070     561.8805     386.9082
   1421.20544     561.1237     386.3235   1421.20544     561.1237     386.3235
   1421.19019     561.2377     385.5942   1421.19019     561.2377     385.5942
   1421.17493     561.8945     384.7910   1421.17493     561.8945     384.7910
   1421.15967     562.8115     384.3603   1421.15967     562.8115     384.3603
   1421.14441     561.5930     383.5802   1421.14441     561.5930     383.5802
   1421.12915     562.4056     383.5497   1421.12915     562.4056     383.5497
   1421.11389     562.7823     383.2112   1421.11389     562.7823     383.2112
   1421.09863     563.4276     382.8379   1421.09863     563.4276     382.8379
   1421.08337     564.9512     383.1613   1421.08337     564.9512     383.1613
   1421.06812     566.7642     383.3879   1421.06812     566.7642     383.3879
   1421.05286     568.9088     383.4444   1421.05286     568.9088     383.4444
   1421.03760     568.9628     383.7000   1421.03760     568.9628     383.7000
   1421.02234     569.8632     382.9877   1421.02234     569.8632     382.9877
   1421.00708     568.9985     382.6555   1421.00708     568.9985     382.6555
   1420.99182     569.1302     380.7314   1420.99182     569.1302     380.7314
   1420.97656     569.0651     380.3817   1420.97656     569.0651     380.3817
   1420.96130     568.5977     378.5994   1420.96130     568.5977     378.5994
   1420.94604     568.2634     379.1724   1420.94604     568.2634     379.1724
   1420.93079     568.7979     378.3222   1420.93079     568.7979     378.3222
   1420.91553     570.6442     379.5542   1420.91553     570.6442     379.5542
   1420.90027     574.2996     380.7960   1420.90027     574.2996     380.7960
   1420.88501     583.1591     386.2159   1420.88501     583.1591     386.2159
   1420.86975     598.6379     394.3245   1420.86975     598.6379     394.3245
   1420.85449     619.9929     408.0854   1420.85449     619.9929     408.0854
   1420.83923     678.4582     444.6299   1420.83923     678.4582     444.6299
   1420.82397     779.0447     506.8808   1420.82397     779.0447     506.8808
   1420.80872     815.3345     531.2227   1420.80872     815.3345     531.2227
   1420.79346     764.5264     498.4472   1420.79346     764.5264     498.4472
   1420.77820     761.2004     494.8232   1420.77820     761.2004     494.8232
   1420.76294     782.3186     506.8496   1420.76294     782.3186     506.8496
   1420.74768     765.5007     495.3416   1420.74768     765.5007     495.3416
   1420.73242     709.2767     459.3672   1420.73242     709.2767     459.3672
   1420.71716     704.6125     455.5734   1420.71716     704.6125     455.5734
   1420.70190     766.9658     494.5710   1420.70190     766.9658     494.5710
   1420.68665     902.9332     577.8507   1420.68665     902.9332     577.8507
   1420.67139    1085.0999     690.9963   1420.67139    1085.0999     690.9963
   1420.65613    1272.8245     806.6562   1420.65613    1272.8245     806.6562
   1420.64087    1603.3599    1009.1818   1420.64087    1603.3599    1009.1818
   1420.62561    1855.7457    1166.0349   1420.62561    1855.7457    1166.0349
   1420.61035    2012.4603    1261.3989   1420.61035    2012.4603    1261.3989
   1420.59509    2061.6370    1290.5059   1420.59509    2061.6370    1290.5059
   1420.57983    1972.4231    1234.9596   1420.57983    1972.4231    1234.9596
   1420.56458    1711.7528    1068.0684   1420.56458    1711.7528    1068.0684
   1420.54932    1326.0328     830.2433   1420.54932    1326.0328     830.2433
   1420.53406    1119.8774     702.6064   1420.53406    1119.8774     702.6064
   1420.51880    1259.5695     785.5633   1420.51880    1259.5695     785.5633
   1420.50354    1427.4165     889.5361   1420.50354    1427.4165     889.5361
   1420.48828    1522.1399     947.6954   1420.48828    1522.1399     947.6954
   1420.47302    1509.7191     935.6280   1420.47302    1509.7191     935.6280
   1420.45776    1286.3680     798.7217   1420.45776    1286.3680     798.7217
   1420.44250    1243.6671     772.1069   1420.44250    1243.6671     772.1069
   1420.42725    1490.3704     916.5005   1420.42725    1490.3704     916.5005
   1420.41199    1484.3231     911.5319   1420.41199    1484.3231     911.5319
   1420.39673    1282.9133     789.5964   1420.39673    1282.9133     789.5964
   1420.38147    1010.5220     624.0745   1420.38147    1010.5220     624.0745
   1420.36621     732.4672     454.5055   1420.36621     732.4672     454.5055
   1420.35095     617.8243     385.4046   1420.35095     617.8243     385.4046
   1420.33569     588.7017     366.1176   1420.33569     588.7017     366.1176
   1420.32043     576.2812     358.8000   1420.32043     576.2812     358.8000
   1420.30518     568.6466     354.3362   1420.30518     568.6466     354.3362
   1420.28992     566.4257     351.5481   1420.28992     566.4257     351.5481
   1420.27466     562.9911     350.6503   1420.27466     562.9911     350.6503
   1420.25940     561.7586     348.6035   1420.25940     561.7586     348.6035
   1420.24414     560.7838     346.4576   1420.24414     560.7838     346.4576
   1420.22888     559.2835     346.3673   1420.22888     559.2835     346.3673
   1420.21362     558.6078     344.7793   1420.21362     558.6078     344.7793
   1420.19836     557.6574     343.7742   1420.19836     557.6574     343.7742
   1420.18311     556.3328     342.7297   1420.18311     556.3328     342.7297
   1420.16785     556.4926     342.2667   1420.16785     556.4926     342.2667
   1420.15259     555.6378     341.4454   1420.15259     555.6378     341.4454
   1420.13733     555.1656     340.9188   1420.13733     555.1656     340.9188
   1420.12207     553.1680     340.0564   1420.12207     553.1680     340.0564
   1420.10681     553.3633     339.3527   1420.10681     553.3633     339.3527
   1420.09155     553.0717     338.5305   1420.09155     553.0717     338.5305
   1420.07629     552.9239     337.5303   1420.07629     552.9239     337.5303
   1420.06104     552.6172     337.3618   1420.06104     552.6172     337.3618
   1420.04578     552.2278     337.2224   1420.04578     552.2278     337.2224
   1420.03052     551.6507     336.7025   1420.03052     551.6507     336.7025
   1420.01526     552.9483     337.8109   1420.01526     552.9483     337.8109
   1420.00000     554.0369     338.3644   1420.00000     554.0369     338.3644
   1419.98474     555.1255     338.9180   1419.98474     555.1255     338.9180
   1419.96948     554.3576     336.6545   1419.96948     554.3576     336.6545
   1419.95422     552.0561     334.7796   1419.95422     552.0561     334.7796
   1419.93896     551.9047     334.0531   1419.93896     551.9047     334.0531
   1419.92371     551.7005     333.8696   1419.92371     551.7005     333.8696
   1419.90845     551.4642     333.0095   1419.90845     551.4642     333.0095
   1419.89319     552.3544     332.8121   1419.89319     552.3544     332.8121
   1419.87793     550.9740     332.7914   1419.87793     550.9740     332.7914
   1419.86267     552.2443     332.6180   1419.86267     552.2443     332.6180
   1419.84741     551.7443     331.8846   1419.84741     551.7443     331.8846
   1419.83215     552.3518     331.8380   1419.83215     552.3518     331.8380
   1419.81689     553.1525     331.9428   1419.81689     553.1525     331.9428
   1419.80164     552.0779     331.4619   1419.80164     552.0779     331.4619
   1419.78638     551.8392     331.7907   1419.78638     551.8392     331.7907
   1419.77112     552.5614     331.0929   1419.77112     552.5614     331.0929
   1419.75586     553.4607     330.8144   1419.75586     553.4607     330.8144
   1419.74060     551.9677     331.0166   1419.74060     551.9677     331.0166
   1419.72534     553.5821     330.8060   1419.72534     553.5821     330.8060
   1419.71008     553.4531     330.4649   1419.71008     553.4531     330.4649
   1419.69482     553.5469     330.5254   1419.69482     553.5469     330.5254
   1419.67957     553.9451     330.4027   1419.67957     553.9451     330.4027
   1419.66431     553.0903     329.7313   1419.66431     553.0903     329.7313
   1419.64905     553.0762     329.9684   1419.64905     553.0762     329.9684
   1419.63379     553.9687     329.6511   1419.63379     553.9687     329.6511
   1419.61853     553.6111     329.1013   1419.61853     553.6111     329.1013
   1419.60327     554.1488     329.4256   1419.60327     554.1488     329.4256
   1419.58801     554.1721     329.3845   1419.58801     554.1721     329.3845
   1419.57275     554.3176     329.3891   1419.57275     554.3176     329.3891
   1419.55750     555.1122     329.5517   1419.55750     555.1122     329.5517
   1419.54224     555.1112     329.1578   1419.54224     555.1112     329.1578
   1419.52698     554.3889     328.9236   1419.52698     554.3889     328.9236
   1419.51172     555.0278     329.5523   1419.51172     555.0278     329.5523
   1419.49646     556.3228     328.9018   1419.49646     556.3228     328.9018
   1419.48120     555.3431     328.4474   1419.48120     555.3431     328.4474
   1419.46594     556.2679     329.1726   1419.46594     556.2679     329.1726
   1419.45068     557.3904     328.7773   1419.45068     557.3904     328.7773
   1419.43542     557.5787     329.2464   1419.43542     557.5787     329.2464
   1419.42017     557.0469     329.1934   1419.42017     557.0469     329.1934
   1419.40491     556.7986     328.8666   1419.40491     556.7986     328.8666
   1419.38965     557.3026     329.7114   1419.38965     557.3026     329.7114
   1419.37439     557.9299     329.4154   1419.37439     557.9299     329.4154
   1419.35913     557.8981     329.3706   1419.35913     557.8981     329.3706
   1419.34387     558.1667     329.4973   1419.34387     558.1667     329.4973
   1419.32861     558.9866     329.6331   1419.32861     558.9866     329.6331
   1419.31335     557.9872     329.3752   1419.31335     557.9872     329.3752
   1419.29810     559.1180     329.2099   1419.29810     559.1180     329.2099
   1419.28284     559.6932     329.3566   1419.28284     559.6932     329.3566
   1419.26758     559.7538     330.1270   1419.26758     559.7538     330.1270
   1419.25232     559.5277     329.5081   1419.25232     559.5277     329.5081
   1419.23706     560.1115     329.6974   1419.23706     560.1115     329.6974
   1419.22180     560.0677     330.5030   1419.22180     560.0677     330.5030
   1419.20654     560.6530     329.9886   1419.20654     560.6530     329.9886
   1419.19128     561.7104     330.2044   1419.19128     561.7104     330.2044
   1419.17603     561.7585     330.4145   1419.17603     561.7585     330.4145
   1419.16077     562.2527     330.7718   1419.16077     562.2527     330.7718
   1419.14551     563.3327     330.9571   1419.14551     563.3327     330.9571
   1419.13025     563.3749     331.1590   1419.13025     563.3749     331.1590
   1419.11499     562.5946     331.1483   1419.11499     562.5946     331.1483
   1419.09973     563.2528     331.1998   1419.09973     563.2528     331.1998
   1419.08447     563.5708     331.8684   1419.08447     563.5708     331.8684
   1419.06921     564.0064     331.7320   1419.06921     564.0064     331.7320
   1419.05396     564.3170     332.4708   1419.05396     564.3170     332.4708
   1419.03870     565.8453     332.8918   1419.03870     565.8453     332.8918
   1419.02344     566.1415     332.6912   1419.02344     566.1415     332.6912
   1419.00818     565.9192     333.0269   1419.00818     565.9192     333.0269
   1418.99292     566.2580     333.1871   1418.99292     566.2580     333.1871
   1418.97766     566.2741     334.0695   1418.97766     566.2741     334.0695
   1418.96240     567.3993     333.7910   1418.96240     567.3993     333.7910
   1418.94714     568.6779     333.6316   1418.94714     568.6779     333.6316
   1418.93188     567.2756     334.3927   1418.93188     567.2756     334.3927
   1418.91663     568.4147     334.6633   1418.91663     568.4147     334.6633
   1418.90137     570.0001     335.0917   1418.90137     570.0001     335.0917
   1418.88611     569.1568     335.2384   1418.88611     569.1568     335.2384
   1418.87085     570.0990     335.1391   1418.87085     570.0990     335.1391
   1418.85559     570.1552     336.1790   1418.85559     570.1552     336.1790
   1418.84033     569.9588     336.6145   1418.84033     569.9588     336.6145
   1418.82507     570.9448     336.4078   1418.82507     570.9448     336.4078
   1418.80981     571.4261     336.7574   1418.80981     571.4261     336.7574
   1418.79456     571.8126     337.2542   1418.79456     571.8126     337.2542
   1418.77930     572.4288     337.5089   1418.77930     572.4288     337.5089
   1418.76404     574.2809     337.9706   1418.76404     574.2809     337.9706
   1418.74878     574.3917     338.0242   1418.74878     574.3917     338.0242
   1418.73352     573.6669     338.7834   1418.73352     573.6669     338.7834
   1418.71826     575.7268     339.3983   1418.71826     575.7268     339.3983
   1418.70300     575.1566     339.4619   1418.70300     575.1566     339.4619
   1418.68774     576.0450     340.5411   1418.68774     576.0450     340.5411
   1418.67249     576.4633     341.0631   1418.67249     576.4633     341.0631
   1418.65723     576.8979     341.0493   1418.65723     576.8979     341.0493
   1418.64197     578.2055     342.0464   1418.64197     578.2055     342.0464
   1418.62671     577.2725     342.2066   1418.62671     577.2725     342.2066
   1418.61145     578.2348     342.2972   1418.61145     578.2348     342.2972
   1418.59619     578.6634     343.3590   1418.59619     578.6634     343.3590
   1418.58093     578.4031     343.2285   1418.58093     578.4031     343.2285
   1418.56567     579.7432     344.0517   1418.56567     579.7432     344.0517
   1418.55042     580.5740     344.5854   1418.55042     580.5740     344.5854
   1418.53516     581.2738     345.2833   1418.53516     581.2738     345.2833
   1418.51990     581.8970     346.1041   1418.51990     581.8970     346.1041
   1418.50464     582.6902     346.3275   1418.50464     582.6902     346.3275
   1418.48938     582.9866     347.2477   1418.48938     582.9866     347.2477
   1418.47412     582.8290     347.0529   1418.47412     582.8290     347.0529
   1418.45886     584.0837     347.8240   1418.45886     584.0837     347.8240
   1418.44360     584.8586     348.8537   1418.44360     584.8586     348.8537
   1418.42834     586.2426     348.7994   1418.42834     586.2426     348.7994
   1418.41309     586.5117     349.6259   1418.41309     586.5117     349.6259
   1418.39783     585.7719     350.4917   1418.39783     585.7719     350.4917
   1418.38257     587.6704     350.9061   1418.38257     587.6704     350.9061
   1418.36731     588.6588     351.6942   1418.36731     588.6588     351.6942
   1418.35205     589.3121     352.3398   1418.35205     589.3121     352.3398
   1418.33679     589.8453     352.8022   1418.33679     589.8453     352.8022
   1418.32153     590.1003     353.2567   1418.32153     590.1003     353.2567
   1418.30627     591.9993     353.4793   1418.30627     591.9993     353.4793
   1418.29102     591.4742     354.1989   1418.29102     591.4742     354.1989
   1418.27576     592.0298     355.4421   1418.27576     592.0298     355.4421
   1418.26050     592.2207     356.4499   1418.26050     592.2207     356.4499
   1418.24524     593.7241     356.7006   1418.24524     593.7241     356.7006
   1418.22998     593.3510     357.8308   1418.22998     593.3510     357.8308
   1418.21472     594.3437     358.3545   1418.21472     594.3437     358.3545
   1418.19946     595.8807     359.3056   1418.19946     595.8807     359.3056
   1418.18420     595.0617     359.8201   1418.18420     595.0617     359.8201
   1418.16895     596.9956     360.5833   1418.16895     596.9956     360.5833
   1418.15369     597.5991     360.8543   1418.15369     597.5991     360.8543
   1418.13843     598.5090     361.8264   1418.13843     598.5090     361.8264
   1418.12317     599.8307     362.6302   1418.12317     599.8307     362.6302
   1418.10791     599.5246     363.2748   1418.10791     599.5246     363.2748
   1418.09265     599.8211     364.1065   1418.09265     599.8211     364.1065
   1418.07739     600.2383     364.7622   1418.07739     600.2383     364.7622
   1418.06213     601.7155     365.6838   1418.06213     601.7155     365.6838
   1418.04688     602.8799     366.2927   1418.04688     602.8799     366.2927
   1418.03162     602.6633     367.0768   1418.03162     602.6633     367.0768
   1418.01636     603.7132     368.1838   1418.01636     603.7132     368.1838
   1418.00110     605.0493     368.4955   1418.00110     605.0493     368.4955
   1417.98584     605.1031     368.9364   1417.98584     605.1031     368.9364
   1417.97058     604.9639     370.5693   1417.97058     604.9639     370.5693
   1417.95532     607.7796     370.9312   1417.95532     607.7796     370.9312
   1417.94006     607.8442     371.4149   1417.94006     607.8442     371.4149
   1417.92480     608.6094     372.7171   1417.92480     608.6094     372.7171
   1417.90955     607.8930     373.5910   1417.90955     607.8930     373.5910
   1417.89429     608.9598     374.6147   1417.89429     608.9598     374.6147
   1417.87903     610.1962     375.6241   1417.87903     610.1962     375.6241
   1417.86377     611.9245     376.0743   1417.86377     611.9245     376.0743
   1417.84851     612.5272     376.7389   1417.84851     612.5272     376.7389
   1417.83325     612.5687     377.5394   1417.83325     612.5687     377.5394
   1417.81799     612.7678     379.0755   1417.81799     612.7678     379.0755
   1417.80273     614.3636     379.1590   1417.80273     614.3636     379.1590
   1417.78748     613.4400     380.4291   1417.78748     613.4400     380.4291
   1417.77222     615.1332     381.4170   1417.77222     615.1332     381.4170
   1417.75696     615.6915     382.3792   1417.75696     615.6915     382.3792
   1417.74170     617.4033     382.9291   1417.74170     617.4033     382.9291
   1417.72644     617.2939     384.1834   1417.72644     617.2939     384.1834
   1417.71118     618.7212     384.7130   1417.71118     618.7212     384.7130
   1417.69592     619.3413     385.5253   1417.69592     619.3413     385.5253
   1417.68066     619.9440     385.8224   1417.68066     619.9440     385.8224
   1417.66541     620.0265     386.8096   1417.66541     620.0265     386.8096
   1417.65015     621.1229     388.0204   1417.65015     621.1229     388.0204
   1417.63489     622.4176     388.9482   1417.63489     622.4176     388.9482
   1417.61963     622.2910     390.4009   1417.61963     622.2910     390.4009
   1417.60437     622.2460     391.0800   1417.60437     622.2460     391.0800
   1417.58911     623.2283     392.4393   1417.58911     623.2283     392.4393
   1417.57385     624.8034     393.0508   1417.57385     624.8034     393.0508
   1417.55859     625.5535     394.0379   1417.55859     625.5535     394.0379
   1417.54333     626.4559     395.1281   1417.54333     626.4559     395.1281
   1417.52808     627.0577     395.8404   1417.52808     627.0577     395.8404
   1417.51282     628.2253     396.2195   1417.51282     628.2253     396.2195
   1417.49756     628.2776     397.7436   1417.49756     628.2776     397.7436
   1417.48230     629.1221     398.3181   1417.48230     629.1221     398.3181
   1417.46704     630.1678     399.3091   1417.46704     630.1678     399.3091
   1417.45178     629.9950     400.2847   1417.45178     629.9950     400.2847
   1417.43652     630.9793     401.5162   1417.43652     630.9793     401.5162
   1417.42126     631.0520     402.1951   1417.42126     631.0520     402.1951
   1417.40601     632.3079     402.8490   1417.40601     632.3079     402.8490
   1417.39075     632.7735     404.1051   1417.39075     632.7735     404.1051
   1417.37549     633.9932     405.2185   1417.37549     633.9932     405.2185
   1417.36023     633.8714     405.4324   1417.36023     633.8714     405.4324
   1417.34497     634.7386     407.4298   1417.34497     634.7386     407.4298
   1417.32971     635.3408     408.3111   1417.32971     635.3408     408.3111
   1417.31445     636.6384     408.6815   1417.31445     636.6384     408.6815
   1417.29919     637.7473     409.7746   1417.29919     637.7473     409.7746
   1417.28394     638.0292     410.6882   1417.28394     638.0292     410.6882
   1417.26868     638.3268     411.8926   1417.26868     638.3268     411.8926
   1417.25342     638.0432     412.7492   1417.25342     638.0432     412.7492
   1417.23816     638.3603     412.7793   1417.23816     638.3603     412.7793
   1417.22290     641.0460     414.9223   1417.22290     641.0460     414.9223
   1417.20764     640.2751     414.9011   1417.20764     640.2751     414.9011
   1417.19238     640.4467     416.7433   1417.19238     640.4467     416.7433
   1417.17712     641.8320     417.3275   1417.17712     641.8320     417.3275
   1417.16187     643.0809     418.0291   1417.16187     643.0809     418.0291
   1417.14661     642.0821     419.3862   1417.14661     642.0821     419.3862
   1417.13135     644.4078     420.0709   1417.13135     644.4078     420.0709
   1417.11609     643.2777     420.6525   1417.11609     643.2777     420.6525
   1417.10083     644.6810     421.5823   1417.10083     644.6810     421.5823
   1417.08557     644.5011     422.4196   1417.08557     644.5011     422.4196
   1417.07031     645.4982     424.2398   1417.07031     645.4982     424.2398
   1417.05505     645.9933     424.4454   1417.05505     645.9933     424.4454
   1417.03979     646.4058     425.3352   1417.03979     646.4058     425.3352
   1417.02454     646.4228     426.1650   1417.02454     646.4228     426.1650
   1417.00928     646.3910     426.6823   1417.00928     646.3910     426.6823
   1416.99402     647.5726     427.6532   1416.99402     647.5726     427.6532
   1416.97876     647.7469     427.8768   1416.97876     647.7469     427.8768
   1416.96350     648.2513     429.3066   1416.96350     648.2513     429.3066
   1416.94824     648.5371     429.3849   1416.94824     648.5371     429.3849
   1416.93298     649.2288     430.4295   1416.93298     649.2288     430.4295
   1416.91772     649.7883     431.5258   1416.91772     649.7883     431.5258
   1416.90247     651.1995     431.7749   1416.90247     651.1995     431.7749
   1416.88721     650.0317     432.3607   1416.88721     650.0317     432.3607
   1416.87195     649.7704     433.7467   1416.87195     649.7704     433.7467
   1416.85669     650.9820     433.9135   1416.85669     650.9820     433.9135
   1416.84143     650.6884     435.5907   1416.84143     650.6884     435.5907
   1416.82617     652.5262     435.6728   1416.82617     652.5262     435.6728
   1416.81091     652.6380     435.7928   1416.81091     652.6380     435.7928
   1416.79565     652.1763     436.0455   1416.79565     652.1763     436.0455
   1416.78040     651.9023     437.1841   1416.78040     651.9023     437.1841
   1416.76514     652.3394     437.6878   1416.76514     652.3394     437.6878
   1416.74988     653.0533     439.1668   1416.74988     653.0533     439.1668
   1416.73462     653.7224     439.2788   1416.73462     653.7224     439.2788
   1416.71936     653.1599     439.2959   1416.71936     653.1599     439.2959
   1416.70410     653.9043     439.8017   1416.70410     653.9043     439.8017
   1416.68884     654.3358     440.6938   1416.68884     654.3358     440.6938
   1416.67358     653.6390     441.4395   1416.67358     653.6390     441.4395
   1416.65833     653.8624     441.7837   1416.65833     653.8624     441.7837
   1416.64307     653.9523     442.7628   1416.64307     653.9523     442.7628
   1416.62781     654.5510     442.3849   1416.62781     654.5510     442.3849
   1416.61255     655.6505     442.8973   1416.61255     655.6505     442.8973
   1416.59729     654.8741     443.1402   1416.59729     654.8741     443.1402
   1416.58203     654.5389     443.0183   1416.58203     654.5389     443.0183
   1416.56677     654.3080     443.9958   1416.56677     654.3080     443.9958
   1416.55151     654.8148     444.2566   1416.55151     654.8148     444.2566
   1416.53625     653.7848     444.9913   1416.53625     653.7848     444.9913
   1416.52100     655.2427     445.1461   1416.52100     655.2427     445.1461
   1416.50574     654.7282     445.6992   1416.50574     654.7282     445.6992
   1416.49048     653.5638     445.7846   1416.49048     653.5638     445.7846
   1416.47522     655.1172     445.8953   1416.47522     655.1172     445.8953
   1416.45996     653.6154     446.6380   1416.45996     653.6154     446.6380
   1416.44470     654.6951     446.8239   1416.44470     654.6951     446.8239
   1416.42944     654.1039     446.4662   1416.42944     654.1039     446.4662
   1416.41418     654.1012     447.0340   1416.41418     654.1012     447.0340
   1416.39893     653.4820     447.4005   1416.39893     653.4820     447.4005
   1416.38367     653.3882     447.5071   1416.38367     653.3882     447.5071
   1416.36841     652.7925     446.9997   1416.36841     652.7925     446.9997
   1416.35315     653.6725     446.7837   1416.35315     653.6725     446.7837
   1416.33789     654.1482     447.1642   1416.33789     654.1482     447.1642
   1416.32263     652.9201     447.1129   1416.32263     652.9201     447.1129
   1416.30737     652.1223     447.5713   1416.30737     652.1223     447.5713
   1416.29211     652.0940     447.5360   1416.29211     652.0940     447.5360
   1416.27686     653.1005     446.8192   1416.27686     653.1005     446.8192
   1416.26160     652.3719     447.0547   1416.26160     652.3719     447.0547
   1416.24634     650.9874     447.4953   1416.24634     650.9874     447.4953
   1416.23108     651.1628     447.6723   1416.23108     651.1628     447.6723
   1416.21582     652.2161     447.1094   1416.21582     652.2161     447.1094
   1416.20056     650.9669     447.4396   1416.20056     650.9669     447.4396
   1416.18530     650.2972     447.0163   1416.18530     650.2972     447.0163
   1416.17004     649.7134     447.2484   1416.17004     649.7134     447.2484
   1416.15479     649.6431     446.7989   1416.15479     649.6431     446.7989
   1416.13953     649.3088     446.7930   1416.13953     649.3088     446.7930
   1416.12427     649.6183     446.1194   1416.12427     649.6183     446.1194
   1416.10901     649.2052     445.7519   1416.10901     649.2052     445.7519
   1416.09375     648.8702     446.7346   1416.09375     648.8702     446.7346
   1416.07849     648.2447     446.3792   1416.07849     648.2447     446.3792
   1416.06323     647.6592     445.8802   1416.06323     647.6592     445.8802
   1416.04797     646.4778     445.6248   1416.04797     646.4778     445.6248
   1416.03271     647.6447     445.7339   1416.03271     647.6447     445.7339
   1416.01746     645.8390     445.0469   1416.01746     645.8390     445.0469
   1416.00220     645.1168     444.5625   1416.00220     645.1168     444.5625
   1415.98694     645.0220     445.3940   1415.98694     645.0220     445.3940
   1415.97168     643.7355     444.2329   1415.97168     643.7355     444.2329
   1415.95642     645.0172     444.7695   1415.95642     645.0172     444.7695
   1415.94116     643.5072     443.5000   1415.94116     643.5072     443.5000
   1415.92590     642.9501     443.3601   1415.92590     642.9501     443.3601
   1415.91064     641.5954     444.0942   1415.91064     641.5954     444.0942
   1415.89539     641.7934     442.7804   1415.89539     641.7934     442.7804
   1415.88013     641.2149     442.3525   1415.88013     641.2149     442.3525
   1415.86487     640.3048     441.6350   1415.86487     640.3048     441.6350
   1415.84961     640.8109     441.7605   1415.84961     640.8109     441.7605
   1415.83435     640.2700     441.8578   1415.83435     640.2700     441.8578
   1415.81909     638.7837     440.6372   1415.81909     638.7837     440.6372
   1415.80383     637.9014     440.5060   1415.80383     637.9014     440.5060
   1415.78857     638.2818     440.1333   1415.78857     638.2818     440.1333
   1415.77332     636.4221     439.2166   1415.77332     636.4221     439.2166
   1415.75806     635.8721     439.0743   1415.75806     635.8721     439.0743
   1415.74280     635.6498     437.8867   1415.74280     635.6498     437.8867
   1415.72754     634.8284     437.7644   1415.72754     634.8284     437.7644
   1415.71228     633.5081     437.7910   1415.71228     633.5081     437.7910
   1415.69702     632.9230     436.9937   1415.69702     632.9230     436.9937
   1415.68176     633.1620     437.0570   1415.68176     633.1620     437.0570
   1415.66650     632.1307     437.2853   1415.66650     632.1307     437.2853
   1415.65125     631.7724     436.2625   1415.65125     631.7724     436.2625
   1415.63599     631.6977     434.9343   1415.63599     631.6977     434.9343
   1415.62073     631.2187     435.3285   1415.62073     631.2187     435.3285
   1415.60547     629.6371     434.2900   1415.60547     629.6371     434.2900
   1415.59021     627.2423     433.3270   1415.59021     627.2423     433.3270
   1415.57495     628.8007     433.2052   1415.57495     628.8007     433.2052
   1415.55969     626.9384     432.4352   1415.55969     626.9384     432.4352
   1415.54443     625.7618     432.2014   1415.54443     625.7618     432.2014
   1415.52917     625.3639     432.0265   1415.52917     625.3639     432.0265
   1415.51392     625.4617     432.0784   1415.51392     625.4617     432.0784
   1415.49866     623.3941     431.3113   1415.49866     623.3941     431.3113
   1415.48340     623.6913     431.0548   1415.48340     623.6913     431.0548
   1415.46814     622.2578     429.9224   1415.46814     622.2578     429.9224
   1415.45288     621.7383     429.7011   1415.45288     621.7383     429.7011
   1415.43762     619.8768     429.1330   1415.43762     619.8768     429.1330
   1415.42236     619.7778     428.5095   1415.42236     619.7778     428.5095
   1415.40710     618.9567     427.4628   1415.40710     618.9567     427.4628
   1415.39185     617.8763     426.7702   1415.39185     617.8763     426.7702
   1415.37659     616.6961     425.9413   1415.37659     616.6961     425.9413
   1415.36133     615.6239     426.3666   1415.36133     615.6239     426.3666
   1415.34607     615.3055     425.5994   1415.34607     615.3055     425.5994
   1415.33081     614.0605     424.7127   1415.33081     614.0605     424.7127
   1415.31555     613.3435     424.3156   1415.31555     613.3435     424.3156
   1415.30029     611.8554     424.3947   1415.30029     611.8554     424.3947
   1415.28503     611.7004     422.9575   1415.28503     611.7004     422.9575
   1415.26978     609.3748     422.6967   1415.26978     609.3748     422.6967
   1415.25452     608.7964     421.0748   1415.25452     608.7964     421.0748
   1415.23926     608.2894     420.4643   1415.23926     608.2894     420.4643
   1415.22400     606.8447     419.9122   1415.22400     606.8447     419.9122
   1415.20874     606.2641     419.6065   1415.20874     606.2641     419.6065
   1415.19348     604.0656     418.6683   1415.19348     604.0656     418.6683
   1415.17822     603.9581     418.3972   1415.17822     603.9581     418.3972
   1415.16296     602.5042     417.2318   1415.16296     602.5042     417.2318
   1415.14771     600.9703     417.4660   1415.14771     600.9703     417.4660
   1415.13245     600.1352     416.5787   1415.13245     600.1352     416.5787
   1415.11719     599.7794     415.4673   1415.11719     599.7794     415.4673
   1415.10193     597.5561     415.1027   1415.10193     597.5561     415.1027
   1415.08667     596.4980     414.4596   1415.08667     596.4980     414.4596
   1415.07141     596.4966     413.1224   1415.07141     596.4966     413.1224
   1415.05615     594.2603     412.1815   1415.05615     594.2603     412.1815
   1415.04089     592.5950     411.2692   1415.04089     592.5950     411.2692
   1415.02563     591.2512     411.1028   1415.02563     591.2512     411.1028
   1415.01038     590.7888     410.1229   1415.01038     590.7888     410.1229
   1414.99512     589.3505     409.4023   1414.99512     589.3505     409.4023
   1414.97986     588.1737     408.7054   1414.97986     588.1737     408.7054
   1414.96460     586.1707     408.1873   1414.96460     586.1707     408.1873
   1414.94934     585.3437     407.0452   1414.94934     585.3437     407.0452
   1414.93408     584.1176     406.1344   1414.93408     584.1176     406.1344
   1414.91882     582.7877     404.6517   1414.91882     582.7877     404.6517
   1414.90356     581.9865     404.4223   1414.90356     581.9865     404.4223
   1414.88831     579.7010     403.4253   1414.88831     579.7010     403.4253
   1414.87305     578.2532     402.6537   1414.87305     578.2532     402.6537
   1414.85779     577.1533     401.9143   1414.85779     577.1533     401.9143
   1414.84253     575.2780     400.2898   1414.84253     575.2780     400.2898
   1414.82727     574.3207     399.4536   1414.82727     574.3207     399.4536
   1414.81201     572.8431     399.1281   1414.81201     572.8431     399.1281
   1414.79675     572.0902     398.6744   1414.79675     572.0902     398.6744
   1414.78149     568.3909     397.8144   1414.78149     568.3909     397.8144
   1414.76624     568.2874     396.8470   1414.76624     568.2874     396.8470
   1414.75098     565.7069     395.4830   1414.75098     565.7069     395.4830
   1414.73572     564.4492     394.2560   1414.73572     564.4492     394.2560
   1414.72046     563.2297     393.3308   1414.72046     563.2297     393.3308
   1414.70520     562.3042     392.7114   1414.70520     562.3042     392.7114
   1414.68994     559.9975     391.4878   1414.68994     559.9975     391.4878
   1414.67468     557.5795     390.0666   1414.67468     557.5795     390.0666
   1414.65942     556.7537     389.8318   1414.65942     556.7537     389.8318
   1414.64417     555.6318     388.3430   1414.64417     555.6318     388.3430
   1414.62891     553.6454     387.9055   1414.62891     553.6454     387.9055
   1414.61365     551.7499     386.6896   1414.61365     551.7499     386.6896
   1414.59839     550.1500     385.8026   1414.59839     550.1500     385.8026
   1414.58313     548.3216     384.9847   1414.58313     548.3216     384.9847
   1414.56787     547.0030     383.2550   1414.56787     547.0030     383.2550
   1414.55261     545.4149     382.7151   1414.55261     545.4149     382.7151
   1414.53735     543.7513     381.7758   1414.53735     543.7513     381.7758
   1414.52209     542.2087     379.9049   1414.52209     542.2087     379.9049
   1414.50684     539.5180     378.9343   1414.50684     539.5180     378.9343
   1414.49158     538.4636     377.9436   1414.49158     538.4636     377.9436
   1414.47632     536.1412     376.5501   1414.47632     536.1412     376.5501
   1414.46106     533.9775     376.4287   1414.46106     533.9775     376.4287
   1414.44580     531.7142     374.1666   1414.44580     531.7142     374.1666
   1414.43054     530.8416     372.9138   1414.43054     530.8416     372.9138
   1414.41528     528.2145     373.2243   1414.41528     528.2145     373.2243
   1414.40002     526.5779     371.2579   1414.40002     526.5779     371.2579
   1414.38477     525.2434     369.7763   1414.38477     525.2434     369.7763
   1414.36951     523.5187     368.7485   1414.36951     523.5187     368.7485
   1414.35425     521.1820     367.9392   1414.35425     521.1820     367.9392
   1414.33899     520.1180     366.4857   1414.33899     520.1180     366.4857
   1414.32373     518.0786     365.0389   1414.32373     518.0786     365.0389
   1414.30847     515.3749     364.2811   1414.30847     515.3749     364.2811
   1414.29321     512.9868     362.9205   1414.29321     512.9868     362.9205
   1414.27795     511.1580     361.5339   1414.27795     511.1580     361.5339
   1414.26270     508.4050     360.2184   1414.26270     508.4050     360.2184
   1414.24744     507.4128     358.4728   1414.24744     507.4128     358.4728
   1414.23218     505.8778     358.3560   1414.23218     505.8778     358.3560
   1414.21692     503.2415     356.9679   1414.21692     503.2415     356.9679
   1414.20166     501.4586     355.1322   1414.20166     501.4586     355.1322
   1414.18640     498.4699     354.2048   1414.18640     498.4699     354.2048
   1414.17114     496.5564     352.3888   1414.17114     496.5564     352.3888
   1414.15588     495.3698     351.6752   1414.15588     495.3698     351.6752
   1414.14062     492.7241     349.6844   1414.14062     492.7241     349.6844
   1414.12537     490.1296     348.5453   1414.12537     490.1296     348.5453
   1414.11011     488.4281     347.0594   1414.11011     488.4281     347.0594
   1414.09485     486.8400     346.5324   1414.09485     486.8400     346.5324
   1414.07959     483.1933     345.2376   1414.07959     483.1933     345.2376
   1414.06433     481.3449     343.4820   1414.06433     481.3449     343.4820
   1414.04907     480.8358     341.7755   1414.04907     480.8358     341.7755
   1414.03381     477.5661     340.9300   1414.03381     477.5661     340.9300
   1414.01855     477.2310     339.2568   1414.01855     477.2310     339.2568
   1414.00330     501.8410     347.0497   1414.00330     501.8410     347.0497
   1413.98804     473.7031     337.4005   1413.98804     473.7031     337.4005
   1413.97278     468.5219     335.3268   1413.97278     468.5219     335.3268
   1413.95752     466.4043     334.0317   1413.95752     466.4043     334.0317
   1413.94226     464.1606     332.4018   1413.94226     464.1606     332.4018
   1413.92700     462.4822     331.3564   1413.92700     462.4822     331.3564
   1413.91174     460.3805     330.2455   1413.91174     460.3805     330.2455
   1413.89648     457.3633     328.1230   1413.89648     457.3633     328.1230
   1413.88123     455.7797     326.5003   1413.88123     455.7797     326.5003
   1413.86597     452.8910     325.7187   1413.86597     452.8910     325.7187
   1413.85071     450.4375     324.1322   1413.85071     450.4375     324.1322
   1413.83545     448.3641     323.0014   1413.83545     448.3641     323.0014
   1413.82019     446.1770     321.9081   1413.82019     446.1770     321.9081
   1413.80493     443.8975     320.2784   1413.80493     443.8975     320.2784
   1413.78967     441.7380     318.4075   1413.78967     441.7380     318.4075
   1413.77441     439.5656     317.0418   1413.77441     439.5656     317.0418
   1413.75916     437.1076     316.3058   1413.75916     437.1076     316.3058
   1413.74390     434.8586     314.5710   1413.74390     434.8586     314.5710
   1413.72864     432.3670     313.2542   1413.72864     432.3670     313.2542
   1413.71338     430.0924     311.4037   1413.71338     430.0924     311.4037
   1413.69812     427.5567     310.3286   1413.69812     427.5567     310.3286
   1413.68286     425.5396     308.7746   1413.68286     425.5396     308.7746
   1413.66760     423.2894     307.0363   1413.66760     423.2894     307.0363
   1413.65234     421.8925     306.0621   1413.65234     421.8925     306.0621
   1413.63708     418.7322     304.6584   1413.63708     418.7322     304.6584
   1413.62183     416.4115     302.9625   1413.62183     416.4115     302.9625
   1413.60657     414.3699     301.7129   1413.60657     414.3699     301.7129
   1413.59131     411.8374     299.8173   1413.59131     411.8374     299.8173
   1413.57605     409.1513     299.3140   1413.57605     409.1513     299.3140
   1413.56079     406.5913     297.5141   1413.56079     406.5913     297.5141
   1413.54553     405.5878     296.3298   1413.54553     405.5878     296.3298
   1413.53027     402.4136     294.8841   1413.53027     402.4136     294.8841
   1413.51501     400.4290     293.6003   1413.51501     400.4290     293.6003
   1413.49976     398.3267     292.4869   1413.49976     398.3267     292.4869
   1413.48450     396.1533     290.9207   1413.48450     396.1533     290.9207
   1413.46924     394.3830     289.7612   1413.46924     394.3830     289.7612
   1413.45398     391.4972     288.6998   1413.45398     391.4972     288.6998
   1413.43872     389.6145     286.4074   1413.43872     389.6145     286.4074
   1413.42346     387.3796     285.6747   1413.42346     387.3796     285.6747
   1413.40820     385.2707     284.3123   1413.40820     385.2707     284.3123
   1413.39294     383.0485     282.8946   1413.39294     383.0485     282.8946
   1413.37769     381.0508     281.8219   1413.37769     381.0508     281.8219
   1413.36243     378.8703     280.5485   1413.36243     378.8703     280.5485
   1413.34717     376.7037     279.1546   1413.34717     376.7037     279.1546
   1413.33191     374.5933     278.2232   1413.33191     374.5933     278.2232
   1413.31665     372.7225     277.0831   1413.31665     372.7225     277.0831
   1413.30139     370.2128     275.2401   1413.30139     370.2128     275.2401
   1413.28613     368.9169     273.7536   1413.28613     368.9169     273.7536
   1413.27087     366.3954     272.9185   1413.27087     366.3954     272.9185
   1413.25562     364.7034     271.4842   1413.25562     364.7034     271.4842
   1413.24036     362.4597     270.7803   1413.24036     362.4597     270.7803
   1413.22510     359.7538     269.7842   1413.22510     359.7538     269.7842
   1413.20984     357.8214     268.2729   1413.20984     357.8214     268.2729
   1413.19458     355.9049     267.4392   1413.19458     355.9049     267.4392
   1413.17932     353.8951     266.2744   1413.17932     353.8951     266.2744
   1413.16406     352.6842     265.1425   1413.16406     352.6842     265.1425
   1413.14880     350.6523     263.6894   1413.14880     350.6523     263.6894
   1413.13354     348.7479     262.9066   1413.13354     348.7479     262.9066
   1413.11829     346.8224     262.2444   1413.11829     346.8224     262.2444
   1413.10303     344.7213     260.6722   1413.10303     344.7213     260.6722
   1413.08777     343.0821     260.0640   1413.08777     343.0821     260.0640
   1413.07251     341.5560     258.8488   1413.07251     341.5560     258.8488
   1413.05725     339.1128     257.9085   1413.05725     339.1128     257.9085
   1413.04199     337.8520     257.2401   1413.04199     337.8520     257.2401
   1413.02673     335.6526     256.0924   1413.02673     335.6526     256.0924
   1413.01147     334.6827     255.6492   1413.01147     334.6827     255.6492
   1412.99622     332.8681     254.6692   1412.99622     332.8681     254.6692
   1412.98096     331.4600     253.5903   1412.98096     331.4600     253.5903
   1412.96570     329.4637     252.9290   1412.96570     329.4637     252.9290
   1412.95044     327.8741     252.0646   1412.95044     327.8741     252.0646
   1412.93518     326.5696     251.2525   1412.93518     326.5696     251.2525
   1412.91992     324.9489     250.6881   1412.91992     324.9489     250.6881
   1412.90466     323.7330     249.9613   1412.90466     323.7330     249.9613
   1412.88940     322.4572     249.1463   1412.88940     322.4572     249.1463
   1412.87415     320.3807     248.7273   1412.87415     320.3807     248.7273
   1412.85889     319.1517     248.0224   1412.85889     319.1517     248.0224
   1412.84363     318.4321     247.4598   1412.84363     318.4321     247.4598
   1412.82837     317.0171     246.9684   1412.82837     317.0171     246.9684
   1412.81311     315.7119     246.1321   1412.81311     315.7119     246.1321
   1412.79785     314.4557     245.3840   1412.79785     314.4557     245.3840
   1412.78259     313.1617     245.2332   1412.78259     313.1617     245.2332
   1412.76733     312.3744     244.7581   1412.76733     312.3744     244.7581
   1412.75208     311.0838     244.3156   1412.75208     311.0838     244.3156
   1412.73682     309.9990     243.7113   1412.73682     309.9990     243.7113
   1412.72156     308.4980     243.6600   1412.72156     308.4980     243.6600
   1412.70630     308.0755     243.0803   1412.70630     308.0755     243.0803
   1412.69104     307.3926     242.7262   1412.69104     307.3926     242.7262
   1412.67578     305.6859     242.6740   1412.67578     305.6859     242.6740
   1412.66052     305.0004     242.4525   1412.66052     305.0004     242.4525
   1412.64526     304.6646     241.9687   1412.64526     304.6646     241.9687
   1412.63000     303.9634     242.0016   1412.63000     303.9634     242.0016
   1412.61475     302.2091     241.6170   1412.61475     302.2091     241.6170
   1412.59949     302.0547     241.6147   1412.59949     302.0547     241.6147
   1412.58423     301.5638     241.8755   1412.58423     301.5638     241.8755
   1412.56897     301.0521     241.8299   1412.56897     301.0521     241.8299
   1412.55371     300.3910     241.4980   1412.55371     300.3910     241.4980
   1412.53845     299.8579     241.4551   1412.53845     299.8579     241.4551
   1412.52319     299.0697     242.0680   1412.52319     299.0697     242.0680
   1412.50793     298.9283     241.9004   1412.50793     298.9283     241.9004
   1412.49268     298.5238     241.9783   1412.49268     298.5238     241.9783
   1412.47742     298.6023     242.5206   1412.47742     298.6023     242.5206
   1412.46216     297.1693     242.6563   1412.46216     297.1693     242.6563
   1412.44690     297.5700     242.9076   1412.44690     297.5700     242.9076
   1412.43164     296.9837     242.9007   1412.43164     296.9837     242.9007
   1412.41638     296.9055     243.0741   1412.41638     296.9055     243.0741
   1412.40112     296.7151     243.9298   1412.40112     296.7151     243.9298
   1412.38586     296.6292     244.2880   1412.38586     296.6292     244.2880
   1412.37061     296.9256     244.1293   1412.37061     296.9256     244.1293
   1412.35535     296.7640     244.7020   1412.35535     296.7640     244.7020
   1412.34009     296.7292     245.3145   1412.34009     296.7292     245.3145
   1412.32483     296.7586     245.6710   1412.32483     296.7586     245.6710
   1412.30957     296.7718     246.2151   1412.30957     296.7718     246.2151
   1412.29431     297.1936     247.5893   1412.29431     297.1936     247.5893
   1412.27905     297.0557     248.1089   1412.27905     297.0557     248.1089
   1412.26379     297.4806     248.3423   1412.26379     297.4806     248.3423
   1412.24854     297.9382     249.0711   1412.24854     297.9382     249.0711
   1412.23328     297.7794     249.7920   1412.23328     297.7794     249.7920
   1412.21802     298.5623     251.0680   1412.21802     298.5623     251.0680
   1412.20276     298.7811     251.5951   1412.20276     298.7811     251.5951