#     FILENAME=!Skynet_57528_lach-cc-187_20580_21010.cyb.fits
#     BASENAME=Skynet_57528_lach-cc-187_20580_21010
#     SRC_NAME=lach-cc-187
#     OBSERVER=ccmadison16_9505
#     DATE_OBS=2016-05-20T18:54:15.680
#        OBSID=20580
#      SCANNUM=21010
#          MJD=57528.7887
#          UTC=68144
#     SCANTYPE=track
#     DATAMODE=HIRES
#     TUNEFREQ=1420.0000
# Actual_FREQ1=1420.0000
# Actual_FREQ2=1420.0000
#    LO1Tuning=6870.000
#     RFFILTER=1355_1435
#        OBSBW=-15.6250
#        NCHAN=1024 
#        FOCUS=37.0709
#           RA=06:01:23.92
#          DEC=22:54:14.67
#      RA(hrs)=6.023300
#     DEC(deg)=22.904100
#    AZIM(deg)=153.447
#    ELEV(deg)=72.913
#     IFattens=11.00, 9.00
#      WARNING=None
#    TCAL_XL1=7.9635
#    TCAL_YR1=9.1340
#    TCAL_XL2=7.9635
#    TCAL_YR2=9.1340
#     TRX_XL1=11.7060
#     TRX_YR1=11.7060
#     TRX_XL2=11.7060
#     TRX_YR2=11.7060
#        TAVE=1.0000
#Freq1(MHz)          XL1          YR1  Freq2(MHz)          XL2          YR2 

   1427.81250     381.5540     279.7927   1427.81250     381.5540     279.7927
   1427.79724     381.8648     281.2168   1427.79724     381.8648     281.2168
   1427.78198     382.4367     281.6605   1427.78198     382.4367     281.6605
   1427.76672     382.9945     283.1397   1427.76672     382.9945     283.1397
   1427.75146     384.3851     284.2153   1427.75146     384.3851     284.2153
   1427.73621     385.2510     285.6645   1427.73621     385.2510     285.6645
   1427.72095     386.0013     286.9541   1427.72095     386.0013     286.9541
   1427.70569     386.7620     287.9228   1427.70569     386.7620     287.9228
   1427.69043     388.4944     289.5295   1427.69043     388.4944     289.5295
   1427.67517     388.8039     290.3661   1427.67517     388.8039     290.3661
   1427.65991     389.3792     291.9167   1427.65991     389.3792     291.9167
   1427.64465     390.7857     293.0905   1427.64465     390.7857     293.0905
   1427.62939     392.1884     294.5940   1427.62939     392.1884     294.5940
   1427.61414     393.7748     295.7385   1427.61414     393.7748     295.7385
   1427.59888     394.5245     297.0102   1427.59888     394.5245     297.0102
   1427.58362     395.4777     298.7867   1427.58362     395.4777     298.7867
   1427.56836     396.8803     300.2655   1427.56836     396.8803     300.2655
   1427.55310     399.0647     301.6826   1427.55310     399.0647     301.6826
   1427.53784     400.6988     303.2190   1427.53784     400.6988     303.2190
   1427.52258     402.4945     304.1827   1427.52258     402.4945     304.1827
   1427.50732     402.7176     306.2376   1427.50732     402.7176     306.2376
   1427.49207     405.0718     307.4798   1427.49207     405.0718     307.4798
   1427.47681     406.6316     309.5151   1427.47681     406.6316     309.5151
   1427.46155     409.1394     311.2781   1427.46155     409.1394     311.2781
   1427.44629     410.4077     312.4401   1427.44629     410.4077     312.4401
   1427.43103     412.2838     314.2143   1427.43103     412.2838     314.2143
   1427.41577     414.5140     315.3231   1427.41577     414.5140     315.3231
   1427.40051     415.4731     316.8927   1427.40051     415.4731     316.8927
   1427.38525     418.0216     318.7385   1427.38525     418.0216     318.7385
   1427.37000     419.6477     321.4534   1427.37000     419.6477     321.4534
   1427.35474     421.6061     322.3003   1427.35474     421.6061     322.3003
   1427.33948     424.7174     324.9366   1427.33948     424.7174     324.9366
   1427.32422     425.5881     326.0008   1427.32422     425.5881     326.0008
   1427.30896     428.2697     327.4507   1427.30896     428.2697     327.4507
   1427.29370     430.3062     329.5613   1427.29370     430.3062     329.5613
   1427.27844     433.0110     330.9601   1427.27844     433.0110     330.9601
   1427.26318     434.8717     333.3843   1427.26318     434.8717     333.3843
   1427.24792     437.3091     335.3161   1427.24792     437.3091     335.3161
   1427.23267     439.3785     336.7161   1427.23267     439.3785     336.7161
   1427.21741     441.7668     338.4605   1427.21741     441.7668     338.4605
   1427.20215     445.2625     340.3348   1427.20215     445.2625     340.3348
   1427.18689     446.8436     341.6561   1427.18689     446.8436     341.6561
   1427.17163     449.3290     344.3823   1427.17163     449.3290     344.3823
   1427.15637     452.3202     345.9006   1427.15637     452.3202     345.9006
   1427.14111     455.0475     348.0828   1427.14111     455.0475     348.0828
   1427.12585     456.6490     349.1337   1427.12585     456.6490     349.1337
   1427.11060     460.5081     351.0285   1427.11060     460.5081     351.0285
   1427.09534     462.8194     353.9908   1427.09534     462.8194     353.9908
   1427.08008     464.5692     355.1161   1427.08008     464.5692     355.1161
   1427.06482     468.5620     356.8612   1427.06482     468.5620     356.8612
   1427.04956     470.9348     358.9625   1427.04956     470.9348     358.9625
   1427.03430     473.9261     360.6710   1427.03430     473.9261     360.6710
   1427.01904     476.2549     362.5564   1427.01904     476.2549     362.5564
   1427.00378     479.4668     364.4403   1427.00378     479.4668     364.4403
   1426.98853     481.7528     366.2137   1426.98853     481.7528     366.2137
   1426.97327     485.0176     368.0816   1426.97327     485.0176     368.0816
   1426.95801     487.2700     370.0717   1426.95801     487.2700     370.0717
   1426.94275     490.7692     371.9784   1426.94275     490.7692     371.9784
   1426.92749     493.6698     374.0276   1426.92749     493.6698     374.0276
   1426.91223     496.5788     375.4255   1426.91223     496.5788     375.4255
   1426.89697     499.2335     377.2652   1426.89697     499.2335     377.2652
   1426.88171     502.8044     378.8130   1426.88171     502.8044     378.8130
   1426.86646     506.0908     380.7062   1426.86646     506.0908     380.7062
   1426.85120     508.3623     382.4903   1426.85120     508.3623     382.4903
   1426.83594     511.2407     385.0599   1426.83594     511.2407     385.0599
   1426.82068     513.7274     386.2205   1426.82068     513.7274     386.2205
   1426.80542     518.3630     388.2781   1426.80542     518.3630     388.2781
   1426.79016     520.6434     389.4489   1426.79016     520.6434     389.4489
   1426.77490     523.6562     392.4575   1426.77490     523.6562     392.4575
   1426.75964     526.3317     393.5225   1426.75964     526.3317     393.5225
   1426.74438     530.7865     395.4642   1426.74438     530.7865     395.4642
   1426.72913     532.6884     397.3582   1426.72913     532.6884     397.3582
   1426.71387     536.9230     399.0657   1426.71387     536.9230     399.0657
   1426.69861     539.5460     401.3919   1426.69861     539.5460     401.3919
   1426.68335     543.1933     402.7268   1426.68335     543.1933     402.7268
   1426.66809     545.5467     404.6707   1426.66809     545.5467     404.6707
   1426.65283     549.2802     406.3516   1426.65283     549.2802     406.3516
   1426.63757     552.4570     407.8578   1426.63757     552.4570     407.8578
   1426.62231     555.5758     411.8621   1426.62231     555.5758     411.8621
   1426.60706     557.5190     411.8831   1426.60706     557.5190     411.8831
   1426.59180     561.2474     413.7517   1426.59180     561.2474     413.7517
   1426.57654     564.4865     414.8846   1426.57654     564.4865     414.8846
   1426.56128     567.9411     416.8291   1426.56128     567.9411     416.8291
   1426.54602     571.4143     418.0301   1426.54602     571.4143     418.0301
   1426.53076     574.4700     420.5817   1426.53076     574.4700     420.5817
   1426.51550     577.2656     421.3995   1426.51550     577.2656     421.3995
   1426.50024     579.8543     423.6291   1426.50024     579.8543     423.6291
   1426.48499     583.1305     424.9652   1426.48499     583.1305     424.9652
   1426.46973     585.6572     426.3202   1426.46973     585.6572     426.3202
   1426.45447     590.2607     428.2955   1426.45447     590.2607     428.2955
   1426.43921     592.6983     429.4737   1426.43921     592.6983     429.4737
   1426.42395     595.1391     432.1431   1426.42395     595.1391     432.1431
   1426.40869     597.8127     432.9946   1426.40869     597.8127     432.9946
   1426.39343     601.6822     434.1356   1426.39343     601.6822     434.1356
   1426.37817     604.4915     436.9913   1426.37817     604.4915     436.9913
   1426.36292     606.7998     437.3342   1426.36292     606.7998     437.3342
   1426.34766     610.9645     439.0061   1426.34766     610.9645     439.0061
   1426.33240     613.8594     440.7042   1426.33240     613.8594     440.7042
   1426.31714     616.3741     441.1978   1426.31714     616.3741     441.1978
   1426.30188     619.8427     444.0958   1426.30188     619.8427     444.0958
   1426.28662     623.0254     445.4252   1426.28662     623.0254     445.4252
   1426.27136     624.9278     447.1089   1426.27136     624.9278     447.1089
   1426.25610     627.7197     448.1835   1426.25610     627.7197     448.1835
   1426.24084     632.2748     449.6886   1426.24084     632.2748     449.6886
   1426.22559     634.2391     451.8853   1426.22559     634.2391     451.8853
   1426.21033     637.2257     452.2593   1426.21033     637.2257     452.2593
   1426.19507     640.1014     454.6394   1426.19507     640.1014     454.6394
   1426.17981     643.8464     455.2376   1426.17981     643.8464     455.2376
   1426.16455     645.6600     456.6061   1426.16455     645.6600     456.6061
   1426.14929     648.2465     458.1741   1426.14929     648.2465     458.1741
   1426.13403     651.0919     458.7107   1426.13403     651.0919     458.7107
   1426.11877     655.0701     460.7873   1426.11877     655.0701     460.7873
   1426.10352     657.0914     462.0194   1426.10352     657.0914     462.0194
   1426.08826     658.6867     463.6475   1426.08826     658.6867     463.6475
   1426.07300     662.2089     464.4671   1426.07300     662.2089     464.4671
   1426.05774     665.1533     466.3565   1426.05774     665.1533     466.3565
   1426.04248     667.8879     467.4155   1426.04248     667.8879     467.4155
   1426.02722     670.9897     469.0428   1426.02722     670.9897     469.0428
   1426.01196     672.8853     470.2595   1426.01196     672.8853     470.2595
   1425.99670     675.8270     471.4202   1425.99670     675.8270     471.4202
   1425.98145     678.0740     472.8966   1425.98145     678.0740     472.8966
   1425.96619     680.1570     473.5942   1425.96619     680.1570     473.5942
   1425.95093     683.8955     475.7023   1425.95093     683.8955     475.7023
   1425.93567     685.4371     476.2882   1425.93567     685.4371     476.2882
   1425.92041     687.6790     477.0888   1425.92041     687.6790     477.0888
   1425.90515     689.4977     478.2454   1425.90515     689.4977     478.2454
   1425.88989     693.1039     479.7833   1425.88989     693.1039     479.7833
   1425.87463     696.7191     480.4752   1425.87463     696.7191     480.4752
   1425.85938     697.4921     481.1977   1425.85938     697.4921     481.1977
   1425.84412     698.3005     483.3878   1425.84412     698.3005     483.3878
   1425.82886     701.4627     484.3714   1425.82886     701.4627     484.3714
   1425.81360     703.2243     484.8621   1425.81360     703.2243     484.8621
   1425.79834     706.1429     486.7216   1425.79834     706.1429     486.7216
   1425.78308     706.9572     486.3116   1425.78308     706.9572     486.3116
   1425.76782     710.0237     487.4070   1425.76782     710.0237     487.4070
   1425.75256     711.9927     488.6410   1425.75256     711.9927     488.6410
   1425.73730     713.6729     489.4381   1425.73730     713.6729     489.4381
   1425.72205     716.1371     490.4613   1425.72205     716.1371     490.4613
   1425.70679     717.9542     491.8135   1425.70679     717.9542     491.8135
   1425.69153     719.9748     491.3981   1425.69153     719.9748     491.3981
   1425.67627     722.1396     492.7657   1425.67627     722.1396     492.7657
   1425.66101     724.1013     494.0352   1425.66101     724.1013     494.0352
   1425.64575     726.9714     495.1353   1425.64575     726.9714     495.1353
   1425.63049     727.8287     495.2190   1425.63049     727.8287     495.2190
   1425.61523     729.5974     496.7027   1425.61523     729.5974     496.7027
   1425.59998     730.2615     497.8716   1425.59998     730.2615     497.8716
   1425.58472     731.7880     498.4080   1425.58472     731.7880     498.4080
   1425.56946     735.1407     499.1568   1425.56946     735.1407     499.1568
   1425.55420     737.5713     499.4907   1425.55420     737.5713     499.4907
   1425.53894     738.1986     499.8727   1425.53894     738.1986     499.8727
   1425.52368     739.6096     500.8512   1425.52368     739.6096     500.8512
   1425.50842     740.8075     501.4658   1425.50842     740.8075     501.4658
   1425.49316     740.7989     502.9301   1425.49316     740.7989     502.9301
   1425.47791     743.3209     503.2242   1425.47791     743.3209     503.2242
   1425.46265     744.9886     503.0429   1425.46265     744.9886     503.0429
   1425.44739     747.0010     504.3421   1425.44739     747.0010     504.3421
   1425.43213     746.1509     504.7923   1425.43213     746.1509     504.7923
   1425.41687     750.3279     505.7175   1425.41687     750.3279     505.7175
   1425.40161     751.8248     506.5575   1425.40161     751.8248     506.5575
   1425.38635     753.8386     506.8374   1425.38635     753.8386     506.8374
   1425.37109     753.6506     507.5958   1425.37109     753.6506     507.5958
   1425.35583     755.0516     507.8672   1425.35583     755.0516     507.8672
   1425.34058     756.7238     508.8161   1425.34058     756.7238     508.8161
   1425.32532     757.5255     508.9590   1425.32532     757.5255     508.9590
   1425.31006     757.5374     509.2825   1425.31006     757.5374     509.2825
   1425.29480     759.0024     510.3042   1425.29480     759.0024     510.3042
   1425.27954     760.4850     510.0316   1425.27954     760.4850     510.0316
   1425.26428     761.1002     510.6377   1425.26428     761.1002     510.6377
   1425.24902     762.6536     511.8645   1425.24902     762.6536     511.8645
   1425.23376     763.3090     511.9372   1425.23376     763.3090     511.9372
   1425.21851     765.7986     512.2357   1425.21851     765.7986     512.2357
   1425.20325     764.0623     512.4678   1425.20325     764.0623     512.4678
   1425.18799     766.4807     513.2726   1425.18799     766.4807     513.2726
   1425.17273     767.4903     513.1417   1425.17273     767.4903     513.1417
   1425.15747     768.9548     513.2295   1425.15747     768.9548     513.2295
   1425.14221     768.2982     514.2538   1425.14221     768.2982     514.2538
   1425.12695     769.2825     514.4066   1425.12695     769.2825     514.4066
   1425.11169     769.3370     514.7092   1425.11169     769.3370     514.7092
   1425.09644     770.8946     515.6445   1425.09644     770.8946     515.6445
   1425.08118     771.7831     515.3369   1425.08118     771.7831     515.3369
   1425.06592     771.9084     515.8517   1425.06592     771.9084     515.8517
   1425.05066     772.7756     515.7683   1425.05066     772.7756     515.7683
   1425.03540     772.1357     515.1473   1425.03540     772.1357     515.1473
   1425.02014     774.1680     517.0282   1425.02014     774.1680     517.0282
   1425.00488     774.6755     516.7226   1425.00488     774.6755     516.7226
   1424.98962     775.5904     515.8329   1424.98962     775.5904     515.8329
   1424.97437     776.0555     516.4138   1424.97437     776.0555     516.4138
   1424.95911     775.8086     516.5232   1424.95911     775.8086     516.5232
   1424.94385     775.5483     516.9739   1424.94385     775.5483     516.9739
   1424.92859     776.4178     516.4545   1424.92859     776.4178     516.4545
   1424.91333     777.1920     516.3953   1424.91333     777.1920     516.3953
   1424.89807     777.3945     517.1295   1424.89807     777.3945     517.1295
   1424.88281     777.5802     517.3576   1424.88281     777.5802     517.3576
   1424.86755     777.7002     516.9702   1424.86755     777.7002     516.9702
   1424.85229     778.7720     516.7304   1424.85229     778.7720     516.7304
   1424.83704     777.9926     516.8954   1424.83704     777.9926     516.8954
   1424.82178     777.4208     516.8913   1424.82178     777.4208     516.8913
   1424.80652     778.0133     517.1766   1424.80652     778.0133     517.1766
   1424.79126     779.3555     517.1942   1424.79126     779.3555     517.1942
   1424.77600     778.0513     517.7939   1424.77600     778.0513     517.7939
   1424.76074     779.7103     517.1129   1424.76074     779.7103     517.1129
   1424.74548     780.2132     517.3803   1424.74548     780.2132     517.3803
   1424.73022     779.2105     516.6948   1424.73022     779.2105     516.6948
   1424.71497     779.9060     516.8384   1424.71497     779.9060     516.8384
   1424.69971     779.2958     517.0766   1424.69971     779.2958     517.0766
   1424.68445     781.0092     517.1089   1424.68445     781.0092     517.1089
   1424.66919     779.8917     516.8541   1424.66919     779.8917     516.8541
   1424.65393     780.0845     516.9059   1424.65393     780.0845     516.9059
   1424.63867     779.2443     516.9861   1424.63867     779.2443     516.9861
   1424.62341     780.5355     516.4636   1424.62341     780.5355     516.4636
   1424.60815     780.2152     516.1805   1424.60815     780.2152     516.1805
   1424.59290     779.7446     515.7009   1424.59290     779.7446     515.7009
   1424.57764     779.4759     515.8491   1424.57764     779.4759     515.8491
   1424.56238     780.0440     515.7330   1424.56238     780.0440     515.7330
   1424.54712     779.6885     515.8596   1424.54712     779.6885     515.8596
   1424.53186     779.4208     516.3284   1424.53186     779.4208     516.3284
   1424.51660     779.4130     514.8427   1424.51660     779.4130     514.8427
   1424.50134     778.6099     515.1382   1424.50134     778.6099     515.1382
   1424.48608     779.9290     514.7272   1424.48608     779.9290     514.7272
   1424.47083     778.8329     514.5129   1424.47083     778.8329     514.5129
   1424.45557     777.1602     514.0336   1424.45557     777.1602     514.0336
   1424.44031     776.6761     514.8015   1424.44031     776.6761     514.8015
   1424.42505     777.7115     513.7720   1424.42505     777.7115     513.7720
   1424.40979     777.1106     514.1519   1424.40979     777.1106     514.1519
   1424.39453     778.5294     513.6314   1424.39453     778.5294     513.6314
   1424.37927     777.2344     513.6886   1424.37927     777.2344     513.6886
   1424.36401     777.1036     512.5390   1424.36401     777.1036     512.5390
   1424.34875     775.5173     512.4621   1424.34875     775.5173     512.4621
   1424.33350     777.1868     512.3581   1424.33350     777.1868     512.3581
   1424.31824     775.4531     511.8470   1424.31824     775.4531     511.8470
   1424.30298     776.0088     510.8404   1424.30298     776.0088     510.8404
   1424.28772     775.9456     510.1846   1424.28772     775.9456     510.1846
   1424.27246     775.4069     510.1990   1424.27246     775.4069     510.1990
   1424.25720     774.3969     510.3810   1424.25720     774.3969     510.3810
   1424.24194     773.1575     511.2205   1424.24194     773.1575     511.2205
   1424.22668     774.0896     509.6336   1424.22668     774.0896     509.6336
   1424.21143     773.9547     508.4353   1424.21143     773.9547     508.4353
   1424.19617     772.8533     508.4313   1424.19617     772.8533     508.4313
   1424.18091     773.4361     507.0386   1424.18091     773.4361     507.0386
   1424.16565     771.5121     507.8213   1424.16565     771.5121     507.8213
   1424.15039     771.9507     507.6762   1424.15039     771.9507     507.6762
   1424.13513     772.0131     506.8718   1424.13513     772.0131     506.8718
   1424.11987     770.9838     505.9993   1424.11987     770.9838     505.9993
   1424.10461     769.8179     506.5034   1424.10461     769.8179     506.5034
   1424.08936     769.1386     506.0840   1424.08936     769.1386     506.0840
   1424.07410     770.5343     505.4035   1424.07410     770.5343     505.4035
   1424.05884     769.4656     504.2570   1424.05884     769.4656     504.2570
   1424.04358     768.5886     504.5591   1424.04358     768.5886     504.5591
   1424.02832     768.1342     503.9754   1424.02832     768.1342     503.9754
   1424.01306     767.9856     503.6920   1424.01306     767.9856     503.6920
   1423.99780     767.4404     502.8140   1423.99780     767.4404     502.8140
   1423.98254     767.5645     502.5337   1423.98254     767.5645     502.5337
   1423.96729     766.4792     501.5488   1423.96729     766.4792     501.5488
   1423.95203     766.4275     501.3166   1423.95203     766.4275     501.3166
   1423.93677     765.3940     501.1011   1423.93677     765.3940     501.1011
   1423.92151     764.9960     500.1803   1423.92151     764.9960     500.1803
   1423.90625     764.0891     499.8106   1423.90625     764.0891     499.8106
   1423.89099     763.5265     498.6674   1423.89099     763.5265     498.6674
   1423.87573     763.6666     498.3451   1423.87573     763.6666     498.3451
   1423.86047     762.2324     498.0288   1423.86047     762.2324     498.0288
   1423.84521     763.6030     496.9004   1423.84521     763.6030     496.9004
   1423.82996     762.1812     495.9672   1423.82996     762.1812     495.9672
   1423.81470     761.5189     496.4494   1423.81470     761.5189     496.4494
   1423.79944     760.6616     495.0564   1423.79944     760.6616     495.0564
   1423.78418     760.3621     494.9070   1423.78418     760.3621     494.9070
   1423.76892     760.0615     494.0611   1423.76892     760.0615     494.0611
   1423.75366     758.6799     493.5337   1423.75366     758.6799     493.5337
   1423.73840     759.0868     492.3735   1423.73840     759.0868     492.3735
   1423.72314     759.2447     492.4840   1423.72314     759.2447     492.4840
   1423.70789     757.4005     491.6112   1423.70789     757.4005     491.6112
   1423.69263     756.2919     490.2873   1423.69263     756.2919     490.2873
   1423.67737     755.9069     490.7273   1423.67737     755.9069     490.7273
   1423.66211     756.4553     489.9205   1423.66211     756.4553     489.9205
   1423.64685     754.8661     488.9749   1423.64685     754.8661     488.9749
   1423.63159     754.9206     488.6080   1423.63159     754.9206     488.6080
   1423.61633     755.1290     487.9059   1423.61633     755.1290     487.9059
   1423.60107     754.6786     487.3218   1423.60107     754.6786     487.3218
   1423.58582     754.1031     486.9468   1423.58582     754.1031     486.9468
   1423.57056     754.5334     485.6811   1423.57056     754.5334     485.6811
   1423.55530     753.3326     485.1745   1423.55530     753.3326     485.1745
   1423.54004     752.4229     484.9955   1423.54004     752.4229     484.9955
   1423.52478     751.5154     484.0066   1423.52478     751.5154     484.0066
   1423.50952     751.1511     482.6138   1423.50952     751.1511     482.6138
   1423.49426     751.6756     482.1605   1423.49426     751.6756     482.1605
   1423.47900     750.9003     481.3654   1423.47900     750.9003     481.3654
   1423.46375     748.9349     481.5890   1423.46375     748.9349     481.5890
   1423.44849     748.6913     480.0917   1423.44849     748.6913     480.0917
   1423.43323     749.0739     479.6512   1423.43323     749.0739     479.6512
   1423.41797     748.5514     479.0521   1423.41797     748.5514     479.0521
   1423.40271     748.2192     477.4530   1423.40271     748.2192     477.4530
   1423.38745     748.6007     477.7810   1423.38745     748.6007     477.7810
   1423.37219     747.4455     476.9260   1423.37219     747.4455     476.9260
   1423.35693     747.1077     476.5773   1423.35693     747.1077     476.5773
   1423.34167     745.6589     476.0134   1423.34167     745.6589     476.0134
   1423.32642     745.5818     474.4938   1423.32642     745.5818     474.4938
   1423.31116     745.2148     474.3797   1423.31116     745.2148     474.3797
   1423.29590     744.8209     472.6542   1423.29590     744.8209     472.6542
   1423.28064     744.8205     472.0540   1423.28064     744.8205     472.0540
   1423.26538     742.9215     471.8525   1423.26538     742.9215     471.8525
   1423.25012     744.3329     470.6026   1423.25012     744.3329     470.6026
   1423.23486     743.5002     469.8719   1423.23486     743.5002     469.8719
   1423.21960     742.9819     468.6535   1423.21960     742.9819     468.6535
   1423.20435     742.0179     468.1271   1423.20435     742.0179     468.1271
   1423.18909     742.5253     467.9306   1423.18909     742.5253     467.9306
   1423.17383     742.1417     467.8477   1423.17383     742.1417     467.8477
   1423.15857     741.7702     465.9658   1423.15857     741.7702     465.9658
   1423.14331     740.2477     464.9506   1423.14331     740.2477     464.9506
   1423.12805     740.6595     464.2413   1423.12805     740.6595     464.2413
   1423.11279     739.4831     464.6417   1423.11279     739.4831     464.6417
   1423.09753     740.1830     462.7051   1423.09753     740.1830     462.7051
   1423.08228     738.5403     462.3977   1423.08228     738.5403     462.3977
   1423.06702     739.3929     461.9438   1423.06702     739.3929     461.9438
   1423.05176     738.5103     460.8059   1423.05176     738.5103     460.8059
   1423.03650     737.6598     460.0927   1423.03650     737.6598     460.0927
   1423.02124     736.2796     460.4363   1423.02124     736.2796     460.4363
   1423.00598     737.0453     458.6401   1423.00598     737.0453     458.6401
   1422.99072     737.9601     457.9668   1422.99072     737.9601     457.9668
   1422.97546     735.9695     457.4704   1422.97546     735.9695     457.4704
   1422.96021     736.1869     455.6549   1422.96021     736.1869     455.6549
   1422.94495     735.4932     456.0991   1422.94495     735.4932     456.0991
   1422.92969     735.4430     454.8888   1422.92969     735.4430     454.8888
   1422.91443     735.1981     453.7017   1422.91443     735.1981     453.7017
   1422.89917     735.3690     453.1662   1422.89917     735.3690     453.1662
   1422.88391     735.2849     452.0298   1422.88391     735.2849     452.0298
   1422.86865     734.5767     451.4131   1422.86865     734.5767     451.4131
   1422.85339     734.1976     450.8791   1422.85339     734.1976     450.8791
   1422.83813     734.9785     450.9725   1422.83813     734.9785     450.9725
   1422.82288     733.6863     449.1241   1422.82288     733.6863     449.1241
   1422.80762     732.3567     448.1260   1422.80762     732.3567     448.1260
   1422.79236     733.8260     447.4912   1422.79236     733.8260     447.4912
   1422.77710     732.2660     446.4907   1422.77710     732.2660     446.4907
   1422.76184     732.3090     445.9912   1422.76184     732.3090     445.9912
   1422.74658     732.3912     444.5961   1422.74658     732.3912     444.5961
   1422.73132     732.0123     444.3312   1422.73132     732.0123     444.3312
   1422.71606     730.2531     443.6599   1422.71606     730.2531     443.6599
   1422.70081     731.7247     442.8343   1422.70081     731.7247     442.8343
   1422.68555     731.6826     442.0406   1422.68555     731.6826     442.0406
   1422.67029     730.4578     441.2450   1422.67029     730.4578     441.2450
   1422.65503     730.5167     441.1898   1422.65503     730.5167     441.1898
   1422.63977     729.9420     439.6222   1422.63977     729.9420     439.6222
   1422.62451     729.5579     438.9375   1422.62451     729.5579     438.9375
   1422.60925     730.8633     438.5616   1422.60925     730.8633     438.5616
   1422.59399     730.1420     437.5714   1422.59399     730.1420     437.5714
   1422.57874     729.7166     437.0302   1422.57874     729.7166     437.0302
   1422.56348     729.2166     435.3717   1422.56348     729.2166     435.3717
   1422.54822     729.6450     435.3951   1422.54822     729.6450     435.3951
   1422.53296     729.9777     434.3279   1422.53296     729.9777     434.3279
   1422.51770     728.2481     433.5385   1422.51770     728.2481     433.5385
   1422.50244     728.9081     433.7623   1422.50244     728.9081     433.7623
   1422.48718     727.1616     432.0784   1422.48718     727.1616     432.0784
   1422.47192     728.6174     430.8198   1422.47192     728.6174     430.8198
   1422.45667     727.2723     430.5012   1422.45667     727.2723     430.5012
   1422.44141     727.1626     429.8742   1422.44141     727.1626     429.8742
   1422.42615     727.8568     428.5039   1422.42615     727.8568     428.5039
   1422.41089     728.9114     427.7671   1422.41089     728.9114     427.7671
   1422.39563     726.5947     427.9647   1422.39563     726.5947     427.9647
   1422.38037     726.9568     426.7549   1422.38037     726.9568     426.7549
   1422.36511     726.7825     425.7695   1422.36511     726.7825     425.7695
   1422.34985     727.6158     426.0999   1422.34985     727.6158     426.0999
   1422.33459     726.1716     424.8359   1422.33459     726.1716     424.8359
   1422.31934     726.5435     423.6284   1422.31934     726.5435     423.6284
   1422.30408     726.1532     423.1724   1422.30408     726.1532     423.1724
   1422.28882     725.7570     422.2479   1422.28882     725.7570     422.2479
   1422.27356     726.5358     421.5550   1422.27356     726.5358     421.5550
   1422.25830     727.1120     420.5631   1422.25830     727.1120     420.5631
   1422.24304     726.9999     419.4553   1422.24304     726.9999     419.4553
   1422.22778     725.8569     419.2077   1422.22778     725.8569     419.2077
   1422.21252     725.7534     418.4437   1422.21252     725.7534     418.4437
   1422.19727     725.7118     417.2805   1422.19727     725.7118     417.2805
   1422.18201     725.2949     416.7982   1422.18201     725.2949     416.7982
   1422.16675     725.5940     416.3164   1422.16675     725.5940     416.3164
   1422.15149     725.9629     415.5937   1422.15149     725.9629     415.5937
   1422.13623     725.8311     415.1153   1422.13623     725.8311     415.1153
   1422.12097     725.6542     413.4738   1422.12097     725.6542     413.4738
   1422.10571     725.0295     413.1261   1422.10571     725.0295     413.1261
   1422.09045     724.1485     412.3217   1422.09045     724.1485     412.3217
   1422.07520     725.1254     411.8392   1422.07520     725.1254     411.8392
   1422.05994     723.5450     410.5065   1422.05994     723.5450     410.5065
   1422.04468     723.7257     409.7622   1422.04468     723.7257     409.7622
   1422.02942     725.4193     408.8835   1422.02942     725.4193     408.8835
   1422.01416     723.4036     407.7420   1422.01416     723.4036     407.7420
   1421.99890     724.3074     408.0434   1421.99890     724.3074     408.0434
   1421.98364     723.5083     406.4789   1421.98364     723.5083     406.4789
   1421.96838     723.0087     406.0737   1421.96838     723.0087     406.0737
   1421.95312     724.4964     405.4378   1421.95312     724.4964     405.4378
   1421.93787     722.7938     404.3004   1421.93787     722.7938     404.3004
   1421.92261     723.8007     404.7062   1421.92261     723.8007     404.7062
   1421.90735     723.2087     403.1340   1421.90735     723.2087     403.1340
   1421.89209     723.1940     402.9906   1421.89209     723.1940     402.9906
   1421.87683     724.2232     402.0383   1421.87683     724.2232     402.0383
   1421.86157     723.1398     401.7382   1421.86157     723.1398     401.7382
   1421.84631     723.0827     400.3510   1421.84631     723.0827     400.3510
   1421.83105     722.1964     400.4696   1421.83105     722.1964     400.4696
   1421.81580     721.7362     398.4251   1421.81580     721.7362     398.4251
   1421.80054     721.9211     398.8345   1421.80054     721.9211     398.8345
   1421.78528     722.7499     397.3773   1421.78528     722.7499     397.3773
   1421.77002     722.7509     398.0201   1421.77002     722.7509     398.0201
   1421.75476     722.2243     396.2477   1421.75476     722.2243     396.2477
   1421.73950     722.1971     395.1444   1421.73950     722.1971     395.1444
   1421.72424     721.6735     395.2764   1421.72424     721.6735     395.2764
   1421.70898     721.6070     394.3003   1421.70898     721.6070     394.3003
   1421.69373     720.5799     393.2596   1421.69373     720.5799     393.2596
   1421.67847     720.4377     392.2081   1421.67847     720.4377     392.2081
   1421.66321     721.5342     391.3664   1421.66321     721.5342     391.3664
   1421.64795     720.8842     391.2838   1421.64795     720.8842     391.2838
   1421.63269     721.2729     390.3928   1421.63269     721.2729     390.3928
   1421.61743     720.0273     389.0366   1421.61743     720.0273     389.0366
   1421.60217     720.9786     388.5703   1421.60217     720.9786     388.5703
   1421.58691     720.1552     388.2697   1421.58691     720.1552     388.2697
   1421.57166     719.6106     387.9648   1421.57166     719.6106     387.9648
   1421.55640     719.4725     386.1654   1421.55640     719.4725     386.1654
   1421.54114     720.2722     386.0051   1421.54114     720.2722     386.0051
   1421.52588     720.0539     385.3713   1421.52588     720.0539     385.3713
   1421.51062     719.0469     384.7334   1421.51062     719.0469     384.7334
   1421.49536     719.5654     384.2311   1421.49536     719.5654     384.2311
   1421.48010     719.3689     382.7357   1421.48010     719.3689     382.7357
   1421.46484     719.0657     382.3242   1421.46484     719.0657     382.3242
   1421.44958     718.8916     381.8296   1421.44958     718.8916     381.8296
   1421.43433     719.3326     381.2553   1421.43433     719.3326     381.2553
   1421.41907     719.2388     379.9073   1421.41907     719.2388     379.9073
   1421.40381     719.1481     379.4491   1421.40381     719.1481     379.4491
   1421.38855     719.2776     378.9165   1421.38855     719.2776     378.9165
   1421.37329     718.6227     378.7072   1421.37329     718.6227     378.7072
   1421.35803     718.6376     378.0768   1421.35803     718.6376     378.0768
   1421.34277     719.4122     376.9888   1421.34277     719.4122     376.9888
   1421.32751     718.8386     376.3442   1421.32751     718.8386     376.3442
   1421.31226     717.2520     375.6497   1421.31226     717.2520     375.6497
   1421.29700     717.2645     374.4471   1421.29700     717.2645     374.4471
   1421.28174     719.3632     374.3937   1421.28174     719.3632     374.3937
   1421.26648     716.9606     373.2829   1421.26648     716.9606     373.2829
   1421.25122     716.3661     372.6557   1421.25122     716.3661     372.6557
   1421.23596     716.3922     371.6021   1421.23596     716.3922     371.6021
   1421.22070     716.2170     371.3253   1421.22070     716.2170     371.3253
   1421.20544     715.8140     370.5274   1421.20544     715.8140     370.5274
   1421.19019     714.9507     369.3148   1421.19019     714.9507     369.3148
   1421.17493     716.2453     369.0244   1421.17493     716.2453     369.0244
   1421.15967     715.7913     367.9717   1421.15967     715.7913     367.9717
   1421.14441     714.8745     368.2300   1421.14441     714.8745     368.2300
   1421.12915     715.1372     366.8827   1421.12915     715.1372     366.8827
   1421.11389     714.9714     366.4968   1421.11389     714.9714     366.4968
   1421.09863     715.2867     365.8216   1421.09863     715.2867     365.8216
   1421.08337     714.0604     365.2739   1421.08337     714.0604     365.2739
   1421.06812     714.4368     364.2765   1421.06812     714.4368     364.2765
   1421.05286     713.4583     363.7649   1421.05286     713.4583     363.7649
   1421.03760     713.6159     362.8545   1421.03760     713.6159     362.8545
   1421.02234     713.7927     361.9378   1421.02234     713.7927     361.9378
   1421.00708     714.4789     362.2483   1421.00708     714.4789     362.2483
   1420.99182     713.3381     360.8763   1420.99182     713.3381     360.8763
   1420.97656     712.6838     360.3150   1420.97656     712.6838     360.3150
   1420.96130     713.4020     359.7020   1420.96130     713.4020     359.7020
   1420.94604     712.3196     359.3434   1420.94604     712.3196     359.3434
   1420.93079     712.6259     358.8283   1420.93079     712.6259     358.8283
   1420.91553     711.7622     358.1727   1420.91553     711.7622     358.1727
   1420.90027     712.3961     357.1425   1420.90027     712.3961     357.1425
   1420.88501     711.0326     356.7090   1420.88501     711.0326     356.7090
   1420.86975     711.3831     356.4547   1420.86975     711.3831     356.4547
   1420.85449     711.8262     355.3835   1420.85449     711.8262     355.3835
   1420.83923     711.7732     354.7792   1420.83923     711.7732     354.7792
   1420.82397     711.7446     354.6950   1420.82397     711.7446     354.6950
   1420.80872     711.2496     353.5042   1420.80872     711.2496     353.5042
   1420.79346     711.7699     353.6812   1420.79346     711.7699     353.6812
   1420.77820     711.0606     352.8721   1420.77820     711.0606     352.8721
   1420.76294     711.3148     352.2803   1420.76294     711.3148     352.2803
   1420.74768     711.1171     352.1446   1420.74768     711.1171     352.1446
   1420.73242     710.1747     350.8784   1420.73242     710.1747     350.8784
   1420.71716     711.7930     351.1476   1420.71716     711.7930     351.1476
   1420.70190     711.5190     350.3955   1420.70190     711.5190     350.3955
   1420.68665     709.6656     350.1262   1420.68665     709.6656     350.1262
   1420.67139     710.9160     349.5329   1420.67139     710.9160     349.5329
   1420.65613     710.7833     349.0616   1420.65613     710.7833     349.0616
   1420.64087     710.8907     348.1523   1420.64087     710.8907     348.1523
   1420.62561     710.6004     347.6234   1420.62561     710.6004     347.6234
   1420.61035     711.5332     347.6740   1420.61035     711.5332     347.6740
   1420.59509     711.5323     348.0685   1420.59509     711.5323     348.0685
   1420.57983     715.1969     347.3026   1420.57983     715.1969     347.3026
   1420.56458     712.6960     347.6903   1420.56458     712.6960     347.6903
   1420.54932     716.1500     346.8895   1420.54932     716.1500     346.8895
   1420.53406     715.0974     347.6094   1420.53406     715.0974     347.6094
   1420.51880     717.4950     347.3405   1420.51880     717.4950     347.3405
   1420.50354     719.4630     347.5279   1420.50354     719.4630     347.5279
   1420.48828     719.1609     348.2658   1420.48828     719.1609     348.2658
   1420.47302     720.3055     348.2607   1420.47302     720.3055     348.2607
   1420.45776     723.5697     349.5464   1420.45776     723.5697     349.5464
   1420.44250     728.0248     351.2037   1420.44250     728.0248     351.2037
   1420.42725     734.5909     353.1894   1420.42725     734.5909     353.1894
   1420.41199     744.1710     356.4650   1420.41199     744.1710     356.4650
   1420.39673     755.2150     361.4886   1420.39673     755.2150     361.4886
   1420.38147     774.8453     370.0011   1420.38147     774.8453     370.0011
   1420.36621     805.1361     383.2235   1420.36621     805.1361     383.2235
   1420.35095     861.0748     408.0471   1420.35095     861.0748     408.0471
   1420.33569     981.8139     464.0525   1420.33569     981.8139     464.0525
   1420.32043    1202.0747     564.7806   1420.32043    1202.0747     564.7806
   1420.30518    1557.2092     727.9540   1420.30518    1557.2092     727.9540
   1420.28992    2112.1379     978.0204   1420.28992    2112.1379     978.0204
   1420.27466    2507.9099    1160.4508   1420.27466    2507.9099    1160.4508
   1420.25940    2818.6895    1298.4657   1420.25940    2818.6895    1298.4657
   1420.24414    2770.6038    1279.6396   1420.24414    2770.6038    1279.6396
   1420.22888    2412.5808    1113.0648   1420.22888    2412.5808    1113.0648
   1420.21362    1953.8125     903.4939   1420.21362    1953.8125     903.4939
   1420.19836    1562.6069     723.4780   1420.19836    1562.6069     723.4780
   1420.18311    1109.7312     518.1659   1420.18311    1109.7312     518.1659
   1420.16785     865.8207     407.3664   1420.16785     865.8207     407.3664
   1420.15259     783.1241     369.0066   1420.15259     783.1241     369.0066
   1420.13733     746.5527     351.6833   1420.13733     746.5527     351.6833
   1420.12207     727.8597     342.9885   1420.12207     727.8597     342.9885
   1420.10681     717.5715     338.7995   1420.10681     717.5715     338.7995
   1420.09155     712.0561     334.2107   1420.09155     712.0561     334.2107
   1420.07629     708.7577     332.3455   1420.07629     708.7577     332.3455
   1420.06104     704.9138     331.2211   1420.06104     704.9138     331.2211
   1420.04578     704.2012     330.4436   1420.04578     704.2012     330.4436
   1420.03052     702.9529     329.0336   1420.03052     702.9529     329.0336
   1420.01526     702.8650     329.8201   1420.01526     702.8650     329.8201
   1420.00000     703.1435     330.2929   1420.00000     703.1435     330.2929
   1419.98474     703.4221     330.7659   1419.98474     703.4221     330.7659
   1419.96948     703.2604     328.0352   1419.96948     703.2604     328.0352
   1419.95422     698.8331     326.6436   1419.95422     698.8331     326.6436
   1419.93896     699.0027     326.0411   1419.93896     699.0027     326.0411
   1419.92371     698.4214     326.1198   1419.92371     698.4214     326.1198
   1419.90845     698.1559     325.0395   1419.90845     698.1559     325.0395
   1419.89319     697.9138     324.9198   1419.89319     697.9138     324.9198
   1419.87793     697.9354     324.2304   1419.87793     697.9354     324.2304
   1419.86267     696.9509     323.9455   1419.86267     696.9509     323.9455
   1419.84741     697.6113     323.7805   1419.84741     697.6113     323.7805
   1419.83215     697.7322     323.5135   1419.83215     697.7322     323.5135
   1419.81689     698.6273     323.4043   1419.81689     698.6273     323.4043
   1419.80164     697.3239     322.5287   1419.80164     697.3239     322.5287
   1419.78638     696.6619     322.7813   1419.78638     696.6619     322.7813
   1419.77112     697.5402     322.0887   1419.77112     697.5402     322.0887
   1419.75586     696.9791     322.2411   1419.75586     696.9791     322.2411
   1419.74060     696.4395     321.6593   1419.74060     696.4395     321.6593
   1419.72534     697.1434     321.5430   1419.72534     697.1434     321.5430
   1419.71008     696.4621     321.0470   1419.71008     696.4621     321.0470
   1419.69482     697.3123     321.3310   1419.69482     697.3123     321.3310
   1419.67957     697.5279     321.3543   1419.67957     697.5279     321.3543
   1419.66431     696.5408     320.8283   1419.66431     696.5408     320.8283
   1419.64905     698.4273     320.6253   1419.64905     698.4273     320.6253
   1419.63379     698.3602     320.6205   1419.63379     698.3602     320.6205
   1419.61853     697.6732     320.1779   1419.61853     697.6732     320.1779
   1419.60327     698.4251     320.3041   1419.60327     698.4251     320.3041
   1419.58801     697.1334     320.0551   1419.58801     697.1334     320.0551
   1419.57275     697.7003     320.1418   1419.57275     697.7003     320.1418
   1419.55750     697.7966     320.0942   1419.55750     697.7966     320.0942
   1419.54224     699.2894     320.2607   1419.54224     699.2894     320.2607
   1419.52698     698.8403     319.8849   1419.52698     698.8403     319.8849
   1419.51172     698.6309     320.0538   1419.51172     698.6309     320.0538
   1419.49646     699.1639     319.8401   1419.49646     699.1639     319.8401
   1419.48120     698.2374     319.7462   1419.48120     698.2374     319.7462
   1419.46594     699.7443     319.8750   1419.46594     699.7443     319.8750
   1419.45068     699.5234     319.2997   1419.45068     699.5234     319.2997
   1419.43542     700.3179     319.4614   1419.43542     700.3179     319.4614
   1419.42017     700.4189     319.6825   1419.42017     700.4189     319.6825
   1419.40491     700.3221     319.0781   1419.40491     700.3221     319.0781
   1419.38965     700.1341     320.1336   1419.38965     700.1341     320.1336
   1419.37439     700.2506     319.6390   1419.37439     700.2506     319.6390
   1419.35913     701.0124     319.3579   1419.35913     701.0124     319.3579
   1419.34387     701.5979     319.3934   1419.34387     701.5979     319.3934
   1419.32861     701.9313     319.8425   1419.32861     701.9313     319.8425
   1419.31335     703.8169     319.4612   1419.31335     703.8169     319.4612
   1419.29810     700.9026     319.6795   1419.29810     700.9026     319.6795
   1419.28284     702.5110     319.8467   1419.28284     702.5110     319.8467
   1419.26758     704.2787     319.5934   1419.26758     704.2787     319.5934
   1419.25232     703.4505     320.1012   1419.25232     703.4505     320.1012
   1419.23706     703.8684     319.9116   1419.23706     703.8684     319.9116
   1419.22180     705.3734     320.0063   1419.22180     705.3734     320.0063
   1419.20654     703.6925     320.7794   1419.20654     703.6925     320.7794
   1419.19128     705.5520     321.1286   1419.19128     705.5520     321.1286
   1419.17603     705.2755     320.3183   1419.17603     705.2755     320.3183
   1419.16077     705.6824     319.9671   1419.16077     705.6824     319.9671
   1419.14551     705.6808     320.6608   1419.14551     705.6808     320.6608
   1419.13025     707.2992     320.5483   1419.13025     707.2992     320.5483
   1419.11499     706.7557     320.8912   1419.11499     706.7557     320.8912
   1419.09973     707.2648     321.6621   1419.09973     707.2648     321.6621
   1419.08447     707.8965     321.6700   1419.08447     707.8965     321.6700
   1419.06921     708.5375     321.9969   1419.06921     708.5375     321.9969
   1419.05396     708.5953     322.0915   1419.05396     708.5953     322.0915
   1419.03870     708.7124     322.3325   1419.03870     708.7124     322.3325
   1419.02344     709.8445     322.2029   1419.02344     709.8445     322.2029
   1419.00818     710.9938     322.3986   1419.00818     710.9938     322.3986
   1418.99292     710.4601     322.4041   1418.99292     710.4601     322.4041
   1418.97766     711.6971     323.0125   1418.97766     711.6971     323.0125
   1418.96240     710.8580     323.3763   1418.96240     710.8580     323.3763
   1418.94714     712.6285     323.6500   1418.94714     712.6285     323.6500
   1418.93188     712.8866     323.7239   1418.93188     712.8866     323.7239
   1418.91663     712.6868     324.6181   1418.91663     712.6868     324.6181
   1418.90137     713.7923     324.0700   1418.90137     713.7923     324.0700
   1418.88611     712.7751     324.8186   1418.88611     712.7751     324.8186
   1418.87085     715.4518     325.3311   1418.87085     715.4518     325.3311
   1418.85559     716.1684     325.4914   1418.85559     716.1684     325.4914
   1418.84033     715.6298     326.3830   1418.84033     715.6298     326.3830
   1418.82507     716.3174     325.6255   1418.82507     716.3174     325.6255
   1418.80981     716.7213     326.4953   1418.80981     716.7213     326.4953
   1418.79456     717.7234     327.2802   1418.79456     717.7234     327.2802
   1418.77930     718.4922     327.3994   1418.77930     718.4922     327.3994
   1418.76404     718.6949     327.1434   1418.76404     718.6949     327.1434
   1418.74878     718.6429     327.7536   1418.74878     718.6429     327.7536
   1418.73352     720.2816     328.6011   1418.73352     720.2816     328.6011
   1418.71826     721.8617     329.2600   1418.71826     721.8617     329.2600
   1418.70300     721.1048     329.1114   1418.70300     721.1048     329.1114
   1418.68774     722.4141     329.8630   1418.68774     722.4141     329.8630
   1418.67249     723.0362     329.7270   1418.67249     723.0362     329.7270
   1418.65723     723.2171     330.3065   1418.65723     723.2171     330.3065
   1418.64197     725.3082     331.2635   1418.64197     725.3082     331.2635
   1418.62671     725.6514     331.5824   1418.62671     725.6514     331.5824
   1418.61145     725.1735     331.8326   1418.61145     725.1735     331.8326
   1418.59619     726.0611     332.8665   1418.59619     726.0611     332.8665
   1418.58093     728.2926     332.8376   1418.58093     728.2926     332.8376
   1418.56567     728.7170     333.2970   1418.56567     728.7170     333.2970
   1418.55042     728.5749     333.3600   1418.55042     728.5749     333.3600
   1418.53516     730.6407     334.5466   1418.53516     730.6407     334.5466
   1418.51990     730.2728     335.4454   1418.51990     730.2728     335.4454
   1418.50464     731.6567     335.6006   1418.50464     731.6567     335.6006
   1418.48938     731.2635     335.5811   1418.48938     731.2635     335.5811
   1418.47412     732.3649     336.7348   1418.47412     732.3649     336.7348
   1418.45886     732.3458     337.2366   1418.45886     732.3458     337.2366
   1418.44360     732.7628     337.6144   1418.44360     732.7628     337.6144
   1418.42834     735.4005     338.1457   1418.42834     735.4005     338.1457
   1418.41309     734.7718     339.5068   1418.41309     734.7718     339.5068
   1418.39783     735.5936     340.1644   1418.39783     735.5936     340.1644
   1418.38257     737.5167     340.5688   1418.38257     737.5167     340.5688
   1418.36731     736.7780     340.9047   1418.36731     736.7780     340.9047
   1418.35205     737.4643     341.7193   1418.35205     737.4643     341.7193
   1418.33679     739.2042     341.6406   1418.33679     739.2042     341.6406
   1418.32153     739.0689     342.4098   1418.32153     739.0689     342.4098
   1418.30627     740.1320     343.2066   1418.30627     740.1320     343.2066
   1418.29102     740.4863     344.0048   1418.29102     740.4863     344.0048
   1418.27576     742.3054     344.5780   1418.27576     742.3054     344.5780
   1418.26050     744.8552     344.9787   1418.26050     744.8552     344.9787
   1418.24524     745.1713     346.0689   1418.24524     745.1713     346.0689
   1418.22998     745.0498     346.3575   1418.22998     745.0498     346.3575
   1418.21472     746.3956     347.4940   1418.21472     746.3956     347.4940
   1418.19946     746.6968     347.8421   1418.19946     746.6968     347.8421
   1418.18420     746.8339     349.1758   1418.18420     746.8339     349.1758
   1418.16895     749.1986     349.1416   1418.16895     749.1986     349.1416
   1418.15369     751.1661     349.9295   1418.15369     751.1661     349.9295
   1418.13843     750.5648     350.2504   1418.13843     750.5648     350.2504
   1418.12317     751.0598     351.7428   1418.12317     751.0598     351.7428
   1418.10791     751.4403     352.4393   1418.10791     751.4403     352.4393
   1418.09265     753.6971     353.2155   1418.09265     753.6971     353.2155
   1418.07739     754.7037     354.3713   1418.07739     754.7037     354.3713
   1418.06213     755.7628     354.8246   1418.06213     755.7628     354.8246
   1418.04688     756.4990     355.8503   1418.04688     756.4990     355.8503
   1418.03162     756.4841     356.5574   1418.03162     756.4841     356.5574
   1418.01636     756.8602     357.2334   1418.01636     756.8602     357.2334
   1418.00110     757.8010     358.2473   1418.00110     757.8010     358.2473
   1417.98584     759.1594     358.5085   1417.98584     759.1594     358.5085
   1417.97058     760.8495     358.7935   1417.97058     760.8495     358.7935
   1417.95532     761.3892     360.2759   1417.95532     761.3892     360.2759
   1417.94006     761.8146     361.1790   1417.94006     761.8146     361.1790
   1417.92480     762.6072     361.5515   1417.92480     762.6072     361.5515
   1417.90955     764.4747     362.6556   1417.90955     764.4747     362.6556
   1417.89429     763.7229     363.6152   1417.89429     763.7229     363.6152
   1417.87903     765.7482     364.6787   1417.87903     765.7482     364.6787
   1417.86377     767.0450     365.0067   1417.86377     767.0450     365.0067
   1417.84851     767.5343     366.1520   1417.84851     767.5343     366.1520
   1417.83325     768.6225     366.7958   1417.83325     768.6225     366.7958
   1417.81799     769.0120     367.2759   1417.81799     769.0120     367.2759
   1417.80273     770.9684     368.8565   1417.80273     770.9684     368.8565
   1417.78748     772.2852     369.5146   1417.78748     772.2852     369.5146
   1417.77222     772.0699     370.6500   1417.77222     772.0699     370.6500
   1417.75696     773.7825     371.3663   1417.75696     773.7825     371.3663
   1417.74170     772.6159     372.3687   1417.74170     772.6159     372.3687
   1417.72644     775.1963     372.4629   1417.72644     775.1963     372.4629
   1417.71118     775.6520     373.8925   1417.71118     775.6520     373.8925
   1417.69592     775.9463     375.1720   1417.69592     775.9463     375.1720
   1417.68066     777.8195     376.0024   1417.68066     777.8195     376.0024
   1417.66541     779.3097     376.4665   1417.66541     779.3097     376.4665
   1417.65015     779.2874     377.3502   1417.65015     779.2874     377.3502
   1417.63489     779.7578     378.2337   1417.63489     779.7578     378.2337
   1417.61963     780.8006     379.9395   1417.61963     780.8006     379.9395
   1417.60437     782.5778     380.1219   1417.60437     782.5778     380.1219
   1417.58911     783.1908     381.1381   1417.58911     783.1908     381.1381
   1417.57385     783.2578     382.2321   1417.57385     783.2578     382.2321
   1417.55859     785.0997     382.7721   1417.55859     785.0997     382.7721
   1417.54333     785.2803     383.3159   1417.54333     785.2803     383.3159
   1417.52808     787.0950     384.9266   1417.52808     787.0950     384.9266
   1417.51282     787.4937     385.4261   1417.51282     787.4937     385.4261
   1417.49756     788.6094     386.7368   1417.49756     788.6094     386.7368
   1417.48230     787.4896     387.5903   1417.48230     787.4896     387.5903
   1417.46704     789.0521     388.2065   1417.46704     789.0521     388.2065
   1417.45178     790.0618     389.4674   1417.45178     790.0618     389.4674
   1417.43652     791.2120     390.0608   1417.43652     791.2120     390.0608
   1417.42126     791.5932     391.3041   1417.42126     791.5932     391.3041
   1417.40601     792.7869     392.1491   1417.40601     792.7869     392.1491
   1417.39075     793.5627     392.9651   1417.39075     793.5627     392.9651
   1417.37549     794.4114     394.4390   1417.37549     794.4114     394.4390
   1417.36023     794.7866     394.6537   1417.36023     794.7866     394.6537
   1417.34497     795.9927     396.2599   1417.34497     795.9927     396.2599
   1417.32971     795.1674     396.8430   1417.32971     795.1674     396.8430
   1417.31445     796.4200     397.5576   1417.31445     796.4200     397.5576
   1417.29919     797.5549     398.5668   1417.29919     797.5549     398.5668
   1417.28394     798.2671     399.4105   1417.28394     798.2671     399.4105
   1417.26868     798.0157     400.5238   1417.26868     798.0157     400.5238
   1417.25342     798.4642     401.4732   1417.25342     798.4642     401.4732
   1417.23816     799.9417     401.5776   1417.23816     799.9417     401.5776
   1417.22290     801.6283     402.7922   1417.22290     801.6283     402.7922
   1417.20764     801.6765     403.8089   1417.20764     801.6765     403.8089
   1417.19238     801.7690     404.8045   1417.19238     801.7690     404.8045
   1417.17712     802.1331     406.1353   1417.17712     802.1331     406.1353
   1417.16187     803.2903     406.6089   1417.16187     803.2903     406.6089
   1417.14661     804.6558     407.4166   1417.14661     804.6558     407.4166
   1417.13135     804.3557     408.7428   1417.13135     804.3557     408.7428
   1417.11609     804.4900     409.3514   1417.11609     804.4900     409.3514
   1417.10083     804.5280     409.5861   1417.10083     804.5280     409.5861
   1417.08557     807.0878     411.1490   1417.08557     807.0878     411.1490
   1417.07031     806.1581     412.0028   1417.07031     806.1581     412.0028
   1417.05505     805.4683     412.7342   1417.05505     805.4683     412.7342
   1417.03979     807.4398     413.8863   1417.03979     807.4398     413.8863
   1417.02454     807.4050     414.1193   1417.02454     807.4050     414.1193
   1417.00928     807.8123     414.8635   1417.00928     807.8123     414.8635
   1416.99402     808.3008     416.1172   1416.99402     808.3008     416.1172
   1416.97876     808.3880     416.5537   1416.97876     808.3880     416.5537
   1416.96350     808.2113     417.3600   1416.96350     808.2113     417.3600
   1416.94824     810.7821     418.1354   1416.94824     810.7821     418.1354
   1416.93298     810.3257     419.1413   1416.93298     810.3257     419.1413
   1416.91772     810.8450     419.3951   1416.91772     810.8450     419.3951
   1416.90247     810.0866     420.1762   1416.90247     810.0866     420.1762
   1416.88721     810.4395     421.3076   1416.88721     810.4395     421.3076
   1416.87195     810.2094     421.6818   1416.87195     810.2094     421.6818
   1416.85669     812.1339     422.1664   1416.85669     812.1339     422.1664
   1416.84143     810.9276     423.2653   1416.84143     810.9276     423.2653
   1416.82617     810.5196     423.9361   1416.82617     810.5196     423.9361
   1416.81091     812.8188     424.4746   1416.81091     812.8188     424.4746
   1416.79565     812.7595     425.5125   1416.79565     812.7595     425.5125
   1416.78040     812.2985     426.2891   1416.78040     812.2985     426.2891
   1416.76514     812.3564     426.2215   1416.76514     812.3564     426.2215
   1416.74988     812.8636     426.2375   1416.74988     812.8636     426.2375
   1416.73462     813.2905     427.2141   1416.73462     813.2905     427.2141
   1416.71936     812.3372     427.5014   1416.71936     812.3372     427.5014
   1416.70410     813.9135     428.8470   1416.70410     813.9135     428.8470
   1416.68884     813.9870     429.6631   1416.68884     813.9870     429.6631
   1416.67358     813.8620     429.7050   1416.67358     813.8620     429.7050
   1416.65833     812.3104     430.8297   1416.65833     812.3104     430.8297
   1416.64307     812.6791     430.9719   1416.64307     812.6791     430.9719
   1416.62781     812.6891     430.9953   1416.62781     812.6891     430.9953
   1416.61255     813.1158     431.8920   1416.61255     813.1158     431.8920
   1416.59729     813.4871     432.3433   1416.59729     813.4871     432.3433
   1416.58203     811.9594     431.8063   1416.58203     811.9594     431.8063
   1416.56677     811.9344     432.9307   1416.56677     811.9344     432.9307
   1416.55151     811.2736     433.4149   1416.55151     811.2736     433.4149
   1416.53625     811.9764     434.2304   1416.53625     811.9764     434.2304
   1416.52100     811.0699     434.0386   1416.52100     811.0699     434.0386
   1416.50574     811.5646     433.9644   1416.50574     811.5646     433.9644
   1416.49048     812.1447     434.5031   1416.49048     812.1447     434.5031
   1416.47522     810.6544     434.3211   1416.47522     810.6544     434.3211
   1416.45996     811.1473     434.9355   1416.45996     811.1473     434.9355
   1416.44470     810.6913     435.6249   1416.44470     810.6913     435.6249
   1416.42944     811.2281     436.0994   1416.42944     811.2281     436.0994
   1416.41418     810.4579     436.1726   1416.41418     810.4579     436.1726
   1416.39893     809.0761     436.2281   1416.39893     809.0761     436.2281
   1416.38367     809.4770     436.4514   1416.38367     809.4770     436.4514
   1416.36841     809.0183     436.8069   1416.36841     809.0183     436.8069
   1416.35315     807.3889     437.3972   1416.35315     807.3889     437.3972
   1416.33789     807.9028     437.0318   1416.33789     807.9028     437.0318
   1416.32263     808.7574     437.2447   1416.32263     808.7574     437.2447
   1416.30737     807.1383     437.9828   1416.30737     807.1383     437.9828
   1416.29211     807.3730     437.7495   1416.29211     807.3730     437.7495
   1416.27686     805.7545     437.1398   1416.27686     805.7545     437.1398
   1416.26160     806.0917     437.1896   1416.26160     806.0917     437.1896
   1416.24634     806.2852     437.4161   1416.24634     806.2852     437.4161
   1416.23108     804.5567     437.7899   1416.23108     804.5567     437.7899
   1416.21582     806.3123     437.8127   1416.21582     806.3123     437.8127
   1416.20056     803.8027     438.3418   1416.20056     803.8027     438.3418
   1416.18530     802.0072     437.6221   1416.18530     802.0072     437.6221
   1416.17004     804.2416     438.1944   1416.17004     804.2416     438.1944
   1416.15479     801.3445     437.6342   1416.15479     801.3445     437.6342
   1416.13953     802.3881     437.9077   1416.13953     802.3881     437.9077
   1416.12427     799.7339     438.3668   1416.12427     799.7339     438.3668
   1416.10901     800.7219     438.1745   1416.10901     800.7219     438.1745
   1416.09375     800.4669     437.9796   1416.09375     800.4669     437.9796
   1416.07849     801.0767     436.9396   1416.07849     801.0767     436.9396
   1416.06323     799.0025     438.1814   1416.06323     799.0025     438.1814
   1416.04797     798.3917     438.1189   1416.04797     798.3917     438.1189
   1416.03271     797.9919     436.7254   1416.03271     797.9919     436.7254
   1416.01746     796.2923     437.0821   1416.01746     796.2923     437.0821
   1416.00220     794.9747     437.0688   1416.00220     794.9747     437.0688
   1415.98694     795.9706     437.7620   1415.98694     795.9706     437.7620
   1415.97168     794.4160     437.1346   1415.97168     794.4160     437.1346
   1415.95642     793.1684     436.4174   1415.95642     793.1684     436.4174
   1415.94116     792.6641     436.8821   1415.94116     792.6641     436.8821
   1415.92590     792.0720     436.9021   1415.92590     792.0720     436.9021
   1415.91064     791.3896     436.9016   1415.91064     791.3896     436.9016
   1415.89539     790.1663     435.4348   1415.89539     790.1663     435.4348
   1415.88013     790.4874     436.5622   1415.88013     790.4874     436.5622
   1415.86487     790.3652     435.8472   1415.86487     790.3652     435.8472
   1415.84961     787.3222     435.4490   1415.84961     787.3222     435.4490
   1415.83435     788.0935     435.6589   1415.83435     788.0935     435.6589
   1415.81909     786.4705     435.5584   1415.81909     786.4705     435.5584
   1415.80383     785.5948     435.4462   1415.80383     785.5948     435.4462
   1415.78857     785.7278     435.2844   1415.78857     785.7278     435.2844
   1415.77332     783.8516     434.6323   1415.77332     783.8516     434.6323
   1415.75806     783.3935     434.1555   1415.75806     783.3935     434.1555
   1415.74280     782.5711     434.7851   1415.74280     782.5711     434.7851
   1415.72754     781.1276     434.3419   1415.72754     781.1276     434.3419
   1415.71228     781.5305     433.6851   1415.71228     781.5305     433.6851
   1415.69702     779.9899     433.5862   1415.69702     779.9899     433.5862
   1415.68176     777.9098     433.3967   1415.68176     777.9098     433.3967
   1415.66650     777.7654     432.4287   1415.66650     777.7654     432.4287
   1415.65125     776.1939     431.9595   1415.65125     776.1939     431.9595
   1415.63599     775.9691     432.7749   1415.63599     775.9691     432.7749
   1415.62073     774.9326     432.0655   1415.62073     774.9326     432.0655
   1415.60547     773.8096     430.9865   1415.60547     773.8096     430.9865
   1415.59021     772.2891     431.3625   1415.59021     772.2891     431.3625
   1415.57495     772.4203     431.4797   1415.57495     772.4203     431.4797
   1415.55969     771.3055     431.2016   1415.55969     771.3055     431.2016
   1415.54443     769.9571     431.3772   1415.54443     769.9571     431.3772
   1415.52917     768.1047     430.5193   1415.52917     768.1047     430.5193
   1415.51392     767.3904     429.9118   1415.51392     767.3904     429.9118
   1415.49866     766.7463     429.5816   1415.49866     766.7463     429.5816
   1415.48340     765.2969     429.3015   1415.48340     765.2969     429.3015
   1415.46814     765.7578     428.6306   1415.46814     765.7578     428.6306
   1415.45288     765.2771     429.4335   1415.45288     765.2771     429.4335
   1415.43762     762.5446     428.3697   1415.43762     762.5446     428.3697
   1415.42236     760.3773     427.5218   1415.42236     760.3773     427.5218
   1415.40710     760.5767     428.0710   1415.40710     760.5767     428.0710
   1415.39185     759.5168     427.6830   1415.39185     759.5168     427.6830
   1415.37659     758.2803     426.7983   1415.37659     758.2803     426.7983
   1415.36133     757.3290     426.6346   1415.36133     757.3290     426.6346
   1415.34607     756.3791     426.3651   1415.34607     756.3791     426.3651
   1415.33081     754.2360     426.6068   1415.33081     754.2360     426.6068
   1415.31555     753.3380     424.8554   1415.31555     753.3380     424.8554
   1415.30029     752.7029     424.7153   1415.30029     752.7029     424.7153
   1415.28503     750.2131     424.9746   1415.28503     750.2131     424.9746
   1415.26978     749.7438     424.4596   1415.26978     749.7438     424.4596
   1415.25452     747.9394     423.6031   1415.25452     747.9394     423.6031
   1415.23926     747.9830     423.3660   1415.23926     747.9830     423.3660
   1415.22400     746.7449     422.0548   1415.22400     746.7449     422.0548
   1415.20874     743.9871     422.0204   1415.20874     743.9871     422.0204
   1415.19348     743.5325     421.3586   1415.19348     743.5325     421.3586
   1415.17822     742.6390     421.6405   1415.17822     742.6390     421.6405
   1415.16296     741.0264     420.9156   1415.16296     741.0264     420.9156
   1415.14771     738.8962     420.1896   1415.14771     738.8962     420.1896
   1415.13245     737.8625     419.9671   1415.13245     737.8625     419.9671
   1415.11719     736.4163     419.0309   1415.11719     736.4163     419.0309
   1415.10193     734.3834     419.3091   1415.10193     734.3834     419.3091
   1415.08667     732.9130     418.5519   1415.08667     732.9130     418.5519
   1415.07141     732.6339     417.9699   1415.07141     732.6339     417.9699
   1415.05615     730.2739     417.2783   1415.05615     730.2739     417.2783
   1415.04089     729.0394     416.8611   1415.04089     729.0394     416.8611
   1415.02563     728.3647     416.4173   1415.02563     728.3647     416.4173
   1415.01038     726.2194     415.5681   1415.01038     726.2194     415.5681
   1414.99512     724.3611     415.8088   1414.99512     724.3611     415.8088
   1414.97986     722.8887     414.4052   1414.97986     722.8887     414.4052
   1414.96460     722.9269     414.1071   1414.96460     722.9269     414.1071
   1414.94934     720.6135     413.4960   1414.94934     720.6135     413.4960
   1414.93408     719.9884     412.2895   1414.93408     719.9884     412.2895
   1414.91882     717.1710     412.4668   1414.91882     717.1710     412.4668
   1414.90356     715.8990     411.8077   1414.90356     715.8990     411.8077
   1414.88831     713.0915     410.4598   1414.88831     713.0915     410.4598
   1414.87305     713.6423     409.7515   1414.87305     713.6423     409.7515
   1414.85779     709.9864     409.5633   1414.85779     709.9864     409.5633
   1414.84253     707.9669     408.7129   1414.84253     707.9669     408.7129
   1414.82727     706.5811     407.1631   1414.82727     706.5811     407.1631
   1414.81201     705.4451     406.8418   1414.81201     705.4451     406.8418
   1414.79675     704.0555     406.5357   1414.79675     704.0555     406.5357
   1414.78149     702.9753     406.5105   1414.78149     702.9753     406.5105
   1414.76624     699.7711     405.4089   1414.76624     699.7711     405.4089
   1414.75098     697.1409     404.2657   1414.75098     697.1409     404.2657
   1414.73572     696.0178     403.3228   1414.73572     696.0178     403.3228
   1414.72046     695.3281     403.0690   1414.72046     695.3281     403.0690
   1414.70520     693.3382     402.3033   1414.70520     693.3382     402.3033
   1414.68994     690.6108     401.7100   1414.68994     690.6108     401.7100
   1414.67468     689.0323     401.0565   1414.67468     689.0323     401.0565
   1414.65942     686.9810     400.6416   1414.65942     686.9810     400.6416
   1414.64417     685.1304     399.1384   1414.64417     685.1304     399.1384
   1414.62891     682.6161     398.6120   1414.62891     682.6161     398.6120
   1414.61365     681.3148     397.3273   1414.61365     681.3148     397.3273
   1414.59839     680.8365     397.2325   1414.59839     680.8365     397.2325
   1414.58313     678.4661     395.3432   1414.58313     678.4661     395.3432
   1414.56787     675.0639     395.0414   1414.56787     675.0639     395.0414
   1414.55261     673.4098     394.1517   1414.55261     673.4098     394.1517
   1414.53735     671.7635     392.4679   1414.53735     671.7635     392.4679
   1414.52209     669.7704     392.4879   1414.52209     669.7704     392.4879
   1414.50684     667.0671     391.7989   1414.50684     667.0671     391.7989
   1414.49158     665.5446     389.8308   1414.49158     665.5446     389.8308
   1414.47632     663.1123     389.7203   1414.47632     663.1123     389.7203
   1414.46106     661.1774     388.0448   1414.46106     661.1774     388.0448
   1414.44580     658.9244     386.9971   1414.44580     658.9244     386.9971
   1414.43054     656.4564     386.5807   1414.43054     656.4564     386.5807
   1414.41528     655.5106     385.5524   1414.41528     655.5106     385.5524
   1414.40002     651.9592     384.4807   1414.40002     651.9592     384.4807
   1414.38477     650.0694     383.2895   1414.38477     650.0694     383.2895
   1414.36951     647.1583     382.2308   1414.36951     647.1583     382.2308
   1414.35425     645.6105     381.3570   1414.35425     645.6105     381.3570
   1414.33899     643.8469     380.4985   1414.33899     643.8469     380.4985
   1414.32373     641.3134     379.0546   1414.32373     641.3134     379.0546
   1414.30847     638.9267     378.2684   1414.30847     638.9267     378.2684
   1414.29321     635.5957     377.3422   1414.29321     635.5957     377.3422
   1414.27795     634.9168     375.7613   1414.27795     634.9168     375.7613
   1414.26270     631.4346     374.8665   1414.26270     631.4346     374.8665
   1414.24744     628.5563     373.0281   1414.24744     628.5563     373.0281
   1414.23218     626.9963     372.0372   1414.23218     626.9963     372.0372
   1414.21692     625.4595     371.1709   1414.21692     625.4595     371.1709
   1414.20166     621.6202     370.5919   1414.20166     621.6202     370.5919
   1414.18640     618.7607     369.1205   1414.18640     618.7607     369.1205
   1414.17114     617.3279     368.1058   1414.17114     617.3279     368.1058
   1414.15588     615.4233     366.5276   1414.15588     615.4233     366.5276
   1414.14062     612.5918     365.4018   1414.14062     612.5918     365.4018
   1414.12537     610.1640     363.7881   1414.12537     610.1640     363.7881
   1414.11011     607.9877     363.3286   1414.11011     607.9877     363.3286
   1414.09485     604.9074     362.3808   1414.09485     604.9074     362.3808
   1414.07959     603.3859     360.6580   1414.07959     603.3859     360.6580
   1414.06433     600.0469     359.6457   1414.06433     600.0469     359.6457
   1414.04907     597.0190     358.1919   1414.04907     597.0190     358.1919
   1414.03381     595.3306     357.2475   1414.03381     595.3306     357.2475
   1414.01855     592.6348     355.8277   1414.01855     592.6348     355.8277
   1414.00330     609.2432     360.6922   1414.00330     609.2432     360.6922
   1413.98804     588.5250     353.2720   1413.98804     588.5250     353.2720
   1413.97278     584.5375     351.9862   1413.97278     584.5375     351.9862
   1413.95752     581.9709     350.4544   1413.95752     581.9709     350.4544
   1413.94226     579.2379     349.4189   1413.94226     579.2379     349.4189
   1413.92700     575.9048     348.1012   1413.92700     575.9048     348.1012
   1413.91174     573.0463     347.0171   1413.91174     573.0463     347.0171
   1413.89648     572.2687     345.3221   1413.89648     572.2687     345.3221
   1413.88123     569.2258     343.9340   1413.88123     569.2258     343.9340
   1413.86597     566.0295     343.0164   1413.86597     566.0295     343.0164
   1413.85071     562.0005     341.5278   1413.85071     562.0005     341.5278
   1413.83545     560.3110     340.2074   1413.83545     560.3110     340.2074
   1413.82019     556.9772     339.0556   1413.82019     556.9772     339.0556
   1413.80493     555.3669     337.3941   1413.80493     555.3669     337.3941
   1413.78967     551.5153     335.8245   1413.78967     551.5153     335.8245
   1413.77441     549.6412     335.1665   1413.77441     549.6412     335.1665
   1413.75916     546.7037     333.5410   1413.75916     546.7037     333.5410
   1413.74390     543.8630     332.1571   1413.74390     543.8630     332.1571
   1413.72864     541.9629     330.7391   1413.72864     541.9629     330.7391
   1413.71338     538.3038     328.9004   1413.71338     538.3038     328.9004
   1413.69812     535.7480     328.0992   1413.69812     535.7480     328.0992
   1413.68286     533.1420     326.7167   1413.68286     533.1420     326.7167
   1413.66760     530.5546     324.8499   1413.66760     530.5546     324.8499
   1413.65234     527.7816     323.1104   1413.65234     527.7816     323.1104
   1413.63708     524.9865     322.9188   1413.63708     524.9865     322.9188
   1413.62183     522.7272     321.0471   1413.62183     522.7272     321.0471
   1413.60657     519.8605     320.3823   1413.60657     519.8605     320.3823
   1413.59131     516.5917     318.2925   1413.59131     516.5917     318.2925
   1413.57605     513.9760     317.3820   1413.57605     513.9760     317.3820
   1413.56079     511.4268     315.7010   1413.56079     511.4268     315.7010
   1413.54553     508.9854     314.3783   1413.54553     508.9854     314.3783
   1413.53027     505.5184     313.2459   1413.53027     505.5184     313.2459
   1413.51501     503.4686     312.6405   1413.51501     503.4686     312.6405
   1413.49976     501.0385     311.0184   1413.49976     501.0385     311.0184
   1413.48450     497.7060     309.7807   1413.48450     497.7060     309.7807
   1413.46924     495.1950     307.7351   1413.46924     495.1950     307.7351
   1413.45398     492.5568     306.7499   1413.45398     492.5568     306.7499
   1413.43872     490.1452     305.3234   1413.43872     490.1452     305.3234
   1413.42346     487.7899     303.9144   1413.42346     487.7899     303.9144
   1413.40820     485.0651     303.3086   1413.40820     485.0651     303.3086
   1413.39294     481.8270     301.5006   1413.39294     481.8270     301.5006
   1413.37769     480.0571     300.2850   1413.37769     480.0571     300.2850
   1413.36243     477.4659     299.3988   1413.36243     477.4659     299.3988
   1413.34717     474.6265     297.7392   1413.34717     474.6265     297.7392
   1413.33191     472.6741     297.0244   1413.33191     472.6741     297.0244
   1413.31665     469.8071     295.3161   1413.31665     469.8071     295.3161
   1413.30139     467.2846     294.2077   1413.30139     467.2846     294.2077
   1413.28613     464.1489     292.8379   1413.28613     464.1489     292.8379
   1413.27087     462.2453     292.0892   1413.27087     462.2453     292.0892
   1413.25562     459.3323     290.9345   1413.25562     459.3323     290.9345
   1413.24036     456.9197     289.8507   1413.24036     456.9197     289.8507
   1413.22510     455.4347     288.6274   1413.22510     455.4347     288.6274
   1413.20984     451.9663     287.8286   1413.20984     451.9663     287.8286
   1413.19458     449.4852     286.3129   1413.19458     449.4852     286.3129
   1413.17932     447.1510     285.1874   1413.17932     447.1510     285.1874
   1413.16406     444.9161     283.8683   1413.16406     444.9161     283.8683
   1413.14880     442.6034     283.3174   1413.14880     442.6034     283.3174
   1413.13354     440.6376     282.2249   1413.13354     440.6376     282.2249
   1413.11829     438.8279     281.3855   1413.11829     438.8279     281.3855
   1413.10303     437.3364     280.3048   1413.10303     437.3364     280.3048
   1413.08777     434.1547     279.4295   1413.08777     434.1547     279.4295
   1413.07251     431.5727     278.3952   1413.07251     431.5727     278.3952
   1413.05725     430.5436     277.3004   1413.05725     430.5436     277.3004
   1413.04199     428.7318     276.6688   1413.04199     428.7318     276.6688
   1413.02673     425.4710     276.1340   1413.02673     425.4710     276.1340
   1413.01147     424.4487     275.2083   1413.01147     424.4487     275.2083
   1412.99622     421.7517     273.9968   1412.99622     421.7517     273.9968
   1412.98096     420.1891     273.3012   1412.98096     420.1891     273.3012
   1412.96570     417.9361     272.9859   1412.96570     417.9361     272.9859
   1412.95044     415.7481     272.2918   1412.95044     415.7481     272.2918
   1412.93518     414.4601     271.9753   1412.93518     414.4601     271.9753
   1412.91992     412.4872     270.8434   1412.91992     412.4872     270.8434
   1412.90466     411.3680     270.1776   1412.90466     411.3680     270.1776
   1412.88940     409.2082     269.3606   1412.88940     409.2082     269.3606
   1412.87415     407.0647     269.0471   1412.87415     407.0647     269.0471
   1412.85889     405.2917     268.7165   1412.85889     405.2917     268.7165
   1412.84363     403.9994     267.8860   1412.84363     403.9994     267.8860
   1412.82837     401.8750     267.8137   1412.82837     401.8750     267.8137
   1412.81311     401.1171     267.2195   1412.81311     401.1171     267.2195
   1412.79785     399.4502     266.7599   1412.79785     399.4502     266.7599
   1412.78259     398.1683     266.2697   1412.78259     398.1683     266.2697
   1412.76733     396.8727     266.0443   1412.76733     396.8727     266.0443
   1412.75208     394.9665     265.7330   1412.75208     394.9665     265.7330
   1412.73682     393.5401     265.4169   1412.73682     393.5401     265.4169
   1412.72156     393.0781     265.4686   1412.72156     393.0781     265.4686
   1412.70630     391.3194     265.0631   1412.70630     391.3194     265.0631
   1412.69104     390.4007     264.6050   1412.69104     390.4007     264.6050
   1412.67578     389.1378     264.8112   1412.67578     389.1378     264.8112
   1412.66052     388.0515     264.4857   1412.66052     388.0515     264.4857
   1412.64526     387.3261     264.7971   1412.64526     387.3261     264.7971
   1412.63000     386.3101     264.5841   1412.63000     386.3101     264.5841
   1412.61475     385.8042     264.9361   1412.61475     385.8042     264.9361
   1412.59949     384.5554     264.4146   1412.59949     384.5554     264.4146
   1412.58423     383.7432     264.4492   1412.58423     383.7432     264.4492
   1412.56897     383.1475     264.5270   1412.56897     383.1475     264.5270
   1412.55371     383.0525     264.8828   1412.55371     383.0525     264.8828
   1412.53845     381.4283     265.5360   1412.53845     381.4283     265.5360
   1412.52319     381.8178     265.5929   1412.52319     381.8178     265.5929
   1412.50793     380.7635     265.6540   1412.50793     380.7635     265.6540
   1412.49268     379.2010     265.8279   1412.49268     379.2010     265.8279
   1412.47742     379.6078     266.1612   1412.47742     379.6078     266.1612
   1412.46216     379.0388     267.0767   1412.46216     379.0388     267.0767
   1412.44690     378.4695     266.9212   1412.44690     378.4695     266.9212
   1412.43164     378.4387     267.8137   1412.43164     378.4387     267.8137
   1412.41638     377.9772     268.3419   1412.41638     377.9772     268.3419
   1412.40112     377.5603     268.7691   1412.40112     377.5603     268.7691
   1412.38586     377.7733     269.2013   1412.38586     377.7733     269.2013
   1412.37061     377.6938     269.8400   1412.37061     377.6938     269.8400
   1412.35535     377.7444     270.8009   1412.35535     377.7444     270.8009
   1412.34009     377.7935     271.0808   1412.34009     377.7935     271.0808
   1412.32483     377.8522     271.8149   1412.32483     377.8522     271.8149
   1412.30957     378.0807     272.7491   1412.30957     378.0807     272.7491
   1412.29431     378.8568     273.7236   1412.29431     378.8568     273.7236
   1412.27905     378.4457     273.9595   1412.27905     378.4457     273.9595
   1412.26379     378.6689     275.1676   1412.26379     378.6689     275.1676
   1412.24854     379.5328     275.9356   1412.24854     379.5328     275.9356
   1412.23328     379.4544     277.5273   1412.23328     379.4544     277.5273
   1412.21802     379.2771     277.8515   1412.21802     379.2771     277.8515
   1412.20276     380.4420     278.9625   1412.20276     380.4420     278.9625