#     FILENAME=!Skynet_57528_lach-hhg-107_20367_20914.cyb.fits
#     BASENAME=Skynet_57528_lach-hhg-107_20367_20914
#     SRC_NAME=lach-hhg-107
#     OBSERVER=hhgmadison16_9500
#     DATE_OBS=2016-05-20T15:37:24.500
#        OBSID=20367
#      SCANNUM=20914
#          MJD=57528.6520
#          UTC=56334
#     SCANTYPE=track
#     DATAMODE=HIRES
#     TUNEFREQ=1420.0000
# Actual_FREQ1=1420.0000
# Actual_FREQ2=1420.0000
#    LO1Tuning=6870.000
#     RFFILTER=1355_1435
#        OBSBW=-15.6250
#        NCHAN=1024 
#        FOCUS=37.0709
#           RA=22:43:19.73
#          DEC=58:50:54.59
#      RA(hrs)=22.722100
#     DEC(deg)=58.848500
#    AZIM(deg)=318.776
#    ELEV(deg)=51.139
#     IFattens=10.00, 9.00
#      WARNING=None
#    TCAL_XL1=7.9635
#    TCAL_YR1=9.1340
#    TCAL_XL2=7.9635
#    TCAL_YR2=9.1340
#     TRX_XL1=11.7060
#     TRX_YR1=11.7060
#     TRX_XL2=11.7060
#     TRX_YR2=11.7060
#        TAVE=1.0000
#Freq1(MHz)          XL1          YR1  Freq2(MHz)          XL2          YR2 

   1427.81250     375.2050     287.0545   1427.81250     375.2050     287.0545
   1427.79724     376.5778     287.9376   1427.79724     376.5778     287.9376
   1427.78198     376.3339     288.1226   1427.78198     376.3339     288.1226
   1427.76672     376.6463     289.6203   1427.76672     376.6463     289.6203
   1427.75146     378.1456     290.2470   1427.75146     378.1456     290.2470
   1427.73621     379.2574     291.3493   1427.73621     379.2574     291.3493
   1427.72095     380.2905     292.5012   1427.72095     380.2905     292.5012
   1427.70569     381.1108     293.5557   1427.70569     381.1108     293.5557
   1427.69043     381.8389     294.1295   1427.69043     381.8389     294.1295
   1427.67517     382.4729     295.8868   1427.67517     382.4729     295.8868
   1427.65991     383.9150     296.6829   1427.65991     383.9150     296.6829
   1427.64465     385.5378     297.9598   1427.64465     385.5378     297.9598
   1427.62939     387.2810     299.2195   1427.62939     387.2810     299.2195
   1427.61414     387.9419     300.6377   1427.61414     387.9419     300.6377
   1427.59888     389.4204     301.7764   1427.59888     389.4204     301.7764
   1427.58362     390.3865     302.9662   1427.58362     390.3865     302.9662
   1427.56836     392.5854     304.0824   1427.56836     392.5854     304.0824
   1427.55310     393.6165     305.6525   1427.55310     393.6165     305.6525
   1427.53784     394.9769     307.0643   1427.53784     394.9769     307.0643
   1427.52258     396.0511     308.3056   1427.52258     396.0511     308.3056
   1427.50732     399.0947     309.9307   1427.50732     399.0947     309.9307
   1427.49207     400.0107     311.3286   1427.49207     400.0107     311.3286
   1427.47681     402.2251     313.5137   1427.47681     402.2251     313.5137
   1427.46155     403.7950     315.0540   1427.46155     403.7950     315.0540
   1427.44629     405.9429     316.2199   1427.44629     405.9429     316.2199
   1427.43103     407.2638     317.3967   1427.43103     407.2638     317.3967
   1427.41577     409.7196     320.0952   1427.41577     409.7196     320.0952
   1427.40051     411.8733     321.6326   1427.40051     411.8733     321.6326
   1427.38525     413.4187     323.8873   1427.38525     413.4187     323.8873
   1427.37000     414.7573     324.5984   1427.37000     414.7573     324.5984
   1427.35474     417.8113     326.7952   1427.35474     417.8113     326.7952
   1427.33948     419.9684     328.7899   1427.33948     419.9684     328.7899
   1427.32422     421.8408     330.8326   1427.32422     421.8408     330.8326
   1427.30896     424.7877     332.1204   1427.30896     424.7877     332.1204
   1427.29370     426.0706     334.2369   1427.29370     426.0706     334.2369
   1427.27844     428.4120     336.3376   1427.27844     428.4120     336.3376
   1427.26318     430.4721     337.9524   1427.26318     430.4721     337.9524
   1427.24792     433.7812     340.2803   1427.24792     433.7812     340.2803
   1427.23267     435.8452     342.0730   1427.23267     435.8452     342.0730
   1427.21741     438.2501     343.9773   1427.21741     438.2501     343.9773
   1427.20215     441.0139     346.2992   1427.20215     441.0139     346.2992
   1427.18689     443.1310     348.3243   1427.18689     443.1310     348.3243
   1427.17163     445.6645     350.5894   1427.17163     445.6645     350.5894
   1427.15637     448.4449     352.6140   1427.15637     448.4449     352.6140
   1427.14111     451.5868     354.6569   1427.14111     451.5868     354.6569
   1427.12585     453.4264     356.4635   1427.12585     453.4264     356.4635
   1427.11060     455.9066     358.0644   1427.11060     455.9066     358.0644
   1427.09534     458.7620     361.2950   1427.09534     458.7620     361.2950
   1427.08008     461.4487     363.6870   1427.08008     461.4487     363.6870
   1427.06482     464.0588     365.8669   1427.06482     464.0588     365.8669
   1427.04956     467.6003     367.7369   1427.04956     467.6003     367.7369
   1427.03430     469.6974     369.9610   1427.03430     469.6974     369.9610
   1427.01904     472.7242     371.9230   1427.01904     472.7242     371.9230
   1427.00378     475.0236     374.5046   1427.00378     475.0236     374.5046
   1426.98853     478.9846     377.4767   1426.98853     478.9846     377.4767
   1426.97327     480.8413     378.6804   1426.97327     480.8413     378.6804
   1426.95801     484.1008     382.0027   1426.95801     484.1008     382.0027
   1426.94275     486.6038     383.4098   1426.94275     486.6038     383.4098
   1426.92749     490.8552     385.2910   1426.92749     490.8552     385.2910
   1426.91223     492.9011     387.8674   1426.91223     492.9011     387.8674
   1426.89697     495.9127     390.2382   1426.89697     495.9127     390.2382
   1426.88171     498.7637     393.1508   1426.88171     498.7637     393.1508
   1426.86646     501.6721     395.1886   1426.86646     501.6721     395.1886
   1426.85120     504.5146     397.7907   1426.85120     504.5146     397.7907
   1426.83594     507.6094     400.2839   1426.83594     507.6094     400.2839
   1426.82068     510.7359     402.5722   1426.82068     510.7359     402.5722
   1426.80542     514.2332     404.4340   1426.80542     514.2332     404.4340
   1426.79016     517.4050     406.7378   1426.79016     517.4050     406.7378
   1426.77490     520.1909     409.4363   1426.77490     520.1909     409.4363
   1426.75964     522.5742     411.5350   1426.75964     522.5742     411.5350
   1426.74438     526.6385     413.4596   1426.74438     526.6385     413.4596
   1426.72913     530.3126     415.9937   1426.72913     530.3126     415.9937
   1426.71387     533.2903     419.0677   1426.71387     533.2903     419.0677
   1426.69861     535.7034     420.7198   1426.69861     535.7034     420.7198
   1426.68335     539.1474     422.9068   1426.68335     539.1474     422.9068
   1426.66809     541.8370     425.8103   1426.66809     541.8370     425.8103
   1426.65283     543.7881     427.8145   1426.65283     543.7881     427.8145
   1426.63757     548.6757     429.8204   1426.63757     548.6757     429.8204
   1426.62231     551.9952     433.5721   1426.62231     551.9952     433.5721
   1426.60706     553.7452     435.0935   1426.60706     553.7452     435.0935
   1426.59180     557.1035     437.1907   1426.59180     557.1035     437.1907
   1426.57654     559.8140     439.9668   1426.57654     559.8140     439.9668
   1426.56128     563.2304     441.7646   1426.56128     563.2304     441.7646
   1426.54602     566.2117     443.7019   1426.54602     566.2117     443.7019
   1426.53076     569.4861     445.3135   1426.53076     569.4861     445.3135
   1426.51550     572.0015     448.9563   1426.51550     572.0015     448.9563
   1426.50024     575.1397     450.0789   1426.50024     575.1397     450.0789
   1426.48499     578.3716     452.8303   1426.48499     578.3716     452.8303
   1426.46973     580.8573     455.4293   1426.46973     580.8573     455.4293
   1426.45447     583.5374     457.2956   1426.45447     583.5374     457.2956
   1426.43921     587.0323     459.6093   1426.43921     587.0323     459.6093
   1426.42395     590.5388     461.2312   1426.42395     590.5388     461.2312
   1426.40869     593.0234     463.3890   1426.40869     593.0234     463.3890
   1426.39343     596.0944     465.8303   1426.39343     596.0944     465.8303
   1426.37817     598.1580     468.4690   1426.37817     598.1580     468.4690
   1426.36292     601.6084     470.1950   1426.36292     601.6084     470.1950
   1426.34766     605.0457     472.2569   1426.34766     605.0457     472.2569
   1426.33240     607.8428     473.9608   1426.33240     607.8428     473.9608
   1426.31714     611.4753     476.6999   1426.31714     611.4753     476.6999
   1426.30188     614.7100     478.7641   1426.30188     614.7100     478.7641
   1426.28662     616.7238     480.5804   1426.28662     616.7238     480.5804
   1426.27136     619.3484     483.4285   1426.27136     619.3484     483.4285
   1426.25610     620.8816     484.1922   1426.25610     620.8816     484.1922
   1426.24084     624.2436     486.5999   1426.24084     624.2436     486.5999
   1426.22559     627.6135     487.5815   1426.22559     627.6135     487.5815
   1426.21033     629.2070     490.8736   1426.21033     629.2070     490.8736
   1426.19507     633.7739     492.9292   1426.19507     633.7739     492.9292
   1426.17981     635.5156     493.3859   1426.17981     635.5156     493.3859
   1426.16455     638.0638     496.6316   1426.16455     638.0638     496.6316
   1426.14929     640.8396     498.8260   1426.14929     640.8396     498.8260
   1426.13403     643.2062     500.3875   1426.13403     643.2062     500.3875
   1426.11877     646.3826     501.4124   1426.11877     646.3826     501.4124
   1426.10352     647.9013     503.4198   1426.10352     647.9013     503.4198
   1426.08826     650.6536     505.2372   1426.08826     650.6536     505.2372
   1426.07300     653.9924     506.8903   1426.07300     653.9924     506.8903
   1426.05774     656.2740     508.4494   1426.05774     656.2740     508.4494
   1426.04248     659.3554     510.9796   1426.04248     659.3554     510.9796
   1426.02722     660.8906     511.9875   1426.02722     660.8906     511.9875
   1426.01196     664.3561     513.8788   1426.01196     664.3561     513.8788
   1425.99670     665.8093     516.1103   1425.99670     665.8093     516.1103
   1425.98145     669.3129     517.6202   1425.98145     669.3129     517.6202
   1425.96619     670.5808     519.3132   1425.96619     670.5808     519.3132
   1425.95093     672.9360     520.6293   1425.95093     672.9360     520.6293
   1425.93567     675.2523     522.1006   1425.93567     675.2523     522.1006
   1425.92041     677.4529     523.7079   1425.92041     677.4529     523.7079
   1425.90515     679.3459     525.8462   1425.90515     679.3459     525.8462
   1425.88989     681.8528     526.9101   1425.88989     681.8528     526.9101
   1425.87463     683.6990     529.3273   1425.87463     683.6990     529.3273
   1425.85938     685.9186     530.4823   1425.85938     685.9186     530.4823
   1425.84412     687.7325     532.0667   1425.84412     687.7325     532.0667
   1425.82886     689.6775     533.8480   1425.82886     689.6775     533.8480
   1425.81360     692.6284     535.7576   1425.81360     692.6284     535.7576
   1425.79834     693.9079     537.0820   1425.79834     693.9079     537.0820
   1425.78308     696.3453     537.6439   1425.78308     696.3453     537.6439
   1425.76782     698.3893     539.8046   1425.76782     698.3893     539.8046
   1425.75256     700.9632     541.2098   1425.75256     700.9632     541.2098
   1425.73730     700.4176     542.0362   1425.73730     700.4176     542.0362
   1425.72205     703.9360     543.4489   1425.72205     703.9360     543.4489
   1425.70679     705.6887     545.7569   1425.70679     705.6887     545.7569
   1425.69153     706.8237     546.3704   1425.69153     706.8237     546.3704
   1425.67627     709.4000     548.1760   1425.67627     709.4000     548.1760
   1425.66101     711.1492     548.9098   1425.66101     711.1492     548.9098
   1425.64575     712.1423     550.8306   1425.64575     712.1423     550.8306
   1425.63049     713.9431     552.1055   1425.63049     713.9431     552.1055
   1425.61523     716.0773     554.3148   1425.61523     716.0773     554.3148
   1425.59998     717.8561     554.1636   1425.59998     717.8561     554.1636
   1425.58472     717.7912     556.2936   1425.58472     717.7912     556.2936
   1425.56946     720.9272     558.3212   1425.56946     720.9272     558.3212
   1425.55420     721.7019     558.9976   1425.55420     721.7019     558.9976
   1425.53894     723.7224     560.1801   1425.53894     723.7224     560.1801
   1425.52368     724.9166     561.0363   1425.52368     724.9166     561.0363
   1425.50842     724.9255     561.3935   1425.50842     724.9255     561.3935
   1425.49316     727.6198     565.2148   1425.49316     727.6198     565.2148
   1425.47791     728.1086     565.1369   1425.47791     728.1086     565.1369
   1425.46265     729.7790     565.8793   1425.46265     729.7790     565.8793
   1425.44739     730.8105     566.4651   1425.44739     730.8105     566.4651
   1425.43213     732.3467     567.7583   1425.43213     732.3467     567.7583
   1425.41687     733.5763     569.7533   1425.41687     733.5763     569.7533
   1425.40161     734.4762     570.5981   1425.40161     734.4762     570.5981
   1425.38635     734.5872     571.6879   1425.38635     734.5872     571.6879
   1425.37109     736.6431     571.8281   1425.37109     736.6431     571.8281
   1425.35583     737.6509     573.5354   1425.35583     737.6509     573.5354
   1425.34058     739.9470     574.0956   1425.34058     739.9470     574.0956
   1425.32532     740.3690     575.5979   1425.32532     740.3690     575.5979
   1425.31006     742.0378     575.7441   1425.31006     742.0378     575.7441
   1425.29480     741.9437     578.1252   1425.29480     741.9437     578.1252
   1425.27954     743.1011     579.2098   1425.27954     743.1011     579.2098
   1425.26428     744.0541     580.4170   1425.26428     744.0541     580.4170
   1425.24902     744.0549     581.1919   1425.24902     744.0549     581.1919
   1425.23376     744.9164     581.6401   1425.23376     744.9164     581.6401
   1425.21851     746.8697     582.7065   1425.21851     746.8697     582.7065
   1425.20325     747.2599     583.1531   1425.20325     747.2599     583.1531
   1425.18799     748.7931     583.7749   1425.18799     748.7931     583.7749
   1425.17273     748.4830     585.8250   1425.17273     748.4830     585.8250
   1425.15747     749.6333     586.5696   1425.15747     749.6333     586.5696
   1425.14221     750.6630     586.8531   1425.14221     750.6630     586.8531
   1425.12695     750.8797     587.8445   1425.12695     750.8797     587.8445
   1425.11169     751.0821     589.4813   1425.11169     751.0821     589.4813
   1425.09644     752.7576     590.2397   1425.09644     752.7576     590.2397
   1425.08118     751.3849     590.4764   1425.08118     751.3849     590.4764
   1425.06592     753.5961     591.4119   1425.06592     753.5961     591.4119
   1425.05066     755.0207     592.4390   1425.05066     755.0207     592.4390
   1425.03540     754.0179     593.4415   1425.03540     754.0179     593.4415
   1425.02014     755.0709     594.7332   1425.02014     755.0709     594.7332
   1425.00488     755.2004     596.0501   1425.00488     755.2004     596.0501
   1424.98962     757.0665     596.2667   1424.98962     757.0665     596.2667
   1424.97437     755.9626     597.8228   1424.97437     755.9626     597.8228
   1424.95911     755.5657     598.2220   1424.95911     755.5657     598.2220
   1424.94385     757.1073     598.7587   1424.94385     757.1073     598.7587
   1424.92859     756.2669     599.2659   1424.92859     756.2669     599.2659
   1424.91333     757.4745     600.0745   1424.91333     757.4745     600.0745
   1424.89807     757.9453     600.6828   1424.89807     757.9453     600.6828
   1424.88281     757.5437     600.7888   1424.88281     757.5437     600.7888
   1424.86755     757.9869     601.8413   1424.86755     757.9869     601.8413
   1424.85229     758.6661     602.9289   1424.85229     758.6661     602.9289
   1424.83704     758.0517     603.9756   1424.83704     758.0517     603.9756
   1424.82178     758.8898     603.0860   1424.82178     758.8898     603.0860
   1424.80652     758.1565     604.3480   1424.80652     758.1565     604.3480
   1424.79126     759.1788     605.3991   1424.79126     759.1788     605.3991
   1424.77600     759.6712     605.4289   1424.77600     759.6712     605.4289
   1424.76074     760.2272     605.4329   1424.76074     760.2272     605.4329
   1424.74548     759.4062     608.0138   1424.74548     759.4062     608.0138
   1424.73022     759.6240     606.7556   1424.73022     759.6240     606.7556
   1424.71497     760.7125     608.9072   1424.71497     760.7125     608.9072
   1424.69971     760.1753     608.7612   1424.69971     760.1753     608.7612
   1424.68445     761.9136     608.6091   1424.68445     761.9136     608.6091
   1424.66919     760.3830     610.4628   1424.66919     760.3830     610.4628
   1424.65393     761.9250     610.5608   1424.65393     761.9250     610.5608
   1424.63867     761.0232     611.4483   1424.63867     761.0232     611.4483
   1424.62341     761.4297     612.3749   1424.62341     761.4297     612.3749
   1424.60815     760.8845     613.8507   1424.60815     760.8845     613.8507
   1424.59290     760.9040     613.8519   1424.59290     760.9040     613.8519
   1424.57764     760.3690     613.5203   1424.57764     760.3690     613.5203
   1424.56238     762.3701     614.5532   1424.56238     762.3701     614.5532
   1424.54712     762.1066     614.3316   1424.54712     762.1066     614.3316
   1424.53186     760.2610     615.9642   1424.53186     760.2610     615.9642
   1424.51660     760.6345     615.8195   1424.51660     760.6345     615.8195
   1424.50134     760.9143     616.4210   1424.50134     760.9143     616.4210
   1424.48608     760.8735     617.3928   1424.48608     760.8735     617.3928
   1424.47083     760.6373     617.5413   1424.47083     760.6373     617.5413
   1424.45557     760.1379     617.7722   1424.45557     760.1379     617.7722
   1424.44031     760.0845     619.1926   1424.44031     760.0845     619.1926
   1424.42505     760.0439     620.2227   1424.42505     760.0439     620.2227
   1424.40979     760.0859     619.0552   1424.40979     760.0859     619.0552
   1424.39453     759.5403     619.9843   1424.39453     759.5403     619.9843
   1424.37927     759.7729     620.7675   1424.37927     759.7729     620.7675
   1424.36401     760.1511     621.1374   1424.36401     760.1511     621.1374
   1424.34875     759.3635     621.7266   1424.34875     759.3635     621.7266
   1424.33350     759.8233     621.3031   1424.33350     759.8233     621.3031
   1424.31824     758.9122     622.4982   1424.31824     758.9122     622.4982
   1424.30298     758.0520     623.1655   1424.30298     758.0520     623.1655
   1424.28772     760.2411     622.8077   1424.28772     760.2411     622.8077
   1424.27246     756.6698     623.3618   1424.27246     756.6698     623.3618
   1424.25720     758.9045     624.3693   1424.25720     758.9045     624.3693
   1424.24194     757.9459     624.1877   1424.24194     757.9459     624.1877
   1424.22668     758.5125     625.4078   1424.22668     758.5125     625.4078
   1424.21143     758.1569     625.9879   1424.21143     758.1569     625.9879
   1424.19617     757.8926     625.6066   1424.19617     757.8926     625.6066
   1424.18091     756.7134     626.6539   1424.18091     756.7134     626.6539
   1424.16565     757.0965     626.2417   1424.16565     757.0965     626.2417
   1424.15039     756.5410     626.5397   1424.15039     756.5410     626.5397
   1424.13513     756.3649     627.5860   1424.13513     756.3649     627.5860
   1424.11987     756.2280     627.6692   1424.11987     756.2280     627.6692
   1424.10461     756.0876     627.7969   1424.10461     756.0876     627.7969
   1424.08936     756.8216     627.9540   1424.08936     756.8216     627.9540
   1424.07410     755.1575     628.6473   1424.07410     755.1575     628.6473
   1424.05884     756.2418     629.4958   1424.05884     756.2418     629.4958
   1424.04358     755.7881     630.1066   1424.04358     755.7881     630.1066
   1424.02832     754.5970     629.2231   1424.02832     754.5970     629.2231
   1424.01306     754.2817     628.7776   1424.01306     754.2817     628.7776
   1423.99780     754.3349     630.1038   1423.99780     754.3349     630.1038
   1423.98254     753.9274     629.9860   1423.98254     753.9274     629.9860
   1423.96729     753.9316     630.6159   1423.96729     753.9316     630.6159
   1423.95203     753.4918     630.4108   1423.95203     753.4918     630.4108
   1423.93677     753.2246     632.0819   1423.93677     753.2246     632.0819
   1423.92151     752.6096     631.3079   1423.92151     752.6096     631.3079
   1423.90625     752.3176     631.1490   1423.90625     752.3176     631.1490
   1423.89099     752.9188     632.7324   1423.89099     752.9188     632.7324
   1423.87573     752.2635     631.5173   1423.87573     752.2635     631.5173
   1423.86047     751.8585     632.9709   1423.86047     751.8585     632.9709
   1423.84521     751.5650     632.9724   1423.84521     751.5650     632.9724
   1423.82996     751.1067     632.8194   1423.82996     751.1067     632.8194
   1423.81470     751.4474     632.7416   1423.81470     751.4474     632.7416
   1423.79944     750.6571     632.8059   1423.79944     750.6571     632.8059
   1423.78418     750.4658     634.5659   1423.78418     750.4658     634.5659
   1423.76892     750.0374     633.5462   1423.76892     750.0374     633.5462
   1423.75366     751.2043     634.0586   1423.75366     751.2043     634.0586
   1423.73840     747.9085     634.4315   1423.73840     747.9085     634.4315
   1423.72314     748.5776     635.0290   1423.72314     748.5776     635.0290
   1423.70789     748.4719     635.6337   1423.70789     748.4719     635.6337
   1423.69263     748.4301     634.7425   1423.69263     748.4301     634.7425
   1423.67737     748.5908     635.5401   1423.67737     748.5908     635.5401
   1423.66211     748.5650     635.0925   1423.66211     748.5650     635.0925
   1423.64685     746.8201     635.0351   1423.64685     746.8201     635.0351
   1423.63159     748.1304     636.0325   1423.63159     748.1304     636.0325
   1423.61633     747.9290     636.2811   1423.61633     747.9290     636.2811
   1423.60107     748.2466     635.9708   1423.60107     748.2466     635.9708
   1423.58582     744.9405     636.9926   1423.58582     744.9405     636.9926
   1423.57056     745.9617     637.7469   1423.57056     745.9617     637.7469
   1423.55530     744.9732     636.1154   1423.55530     744.9732     636.1154
   1423.54004     746.1489     635.0233   1423.54004     746.1489     635.0233
   1423.52478     744.5378     636.5780   1423.52478     744.5378     636.5780
   1423.50952     744.9391     636.0056   1423.50952     744.9391     636.0056
   1423.49426     745.3665     635.7023   1423.49426     745.3665     635.7023
   1423.47900     745.7266     635.5656   1423.47900     745.7266     635.5656
   1423.46375     744.8317     636.0510   1423.46375     744.8317     636.0510
   1423.44849     744.8017     636.1921   1423.44849     744.8017     636.1921
   1423.43323     744.0334     636.2863   1423.43323     744.0334     636.2863
   1423.41797     743.2535     636.8722   1423.41797     743.2535     636.8722
   1423.40271     742.8207     635.8410   1423.40271     742.8207     635.8410
   1423.38745     743.9579     635.9321   1423.38745     743.9579     635.9321
   1423.37219     743.2395     636.1812   1423.37219     743.2395     636.1812
   1423.35693     742.3716     636.8060   1423.35693     742.3716     636.8060
   1423.34167     743.0147     635.4247   1423.34167     743.0147     635.4247
   1423.32642     742.0124     636.3439   1423.32642     742.0124     636.3439
   1423.31116     742.8331     636.1995   1423.31116     742.8331     636.1995
   1423.29590     742.2635     634.7900   1423.29590     742.2635     634.7900
   1423.28064     741.0714     637.0765   1423.28064     741.0714     637.0765
   1423.26538     740.8324     635.2626   1423.26538     740.8324     635.2626
   1423.25012     741.5589     635.8003   1423.25012     741.5589     635.8003
   1423.23486     741.0292     635.2273   1423.23486     741.0292     635.2273
   1423.21960     740.1341     634.9995   1423.21960     740.1341     634.9995
   1423.20435     740.0321     635.4130   1423.20435     740.0321     635.4130
   1423.18909     740.7184     634.9567   1423.18909     740.7184     634.9567
   1423.17383     739.4046     634.0486   1423.17383     739.4046     634.0486
   1423.15857     739.7420     635.0427   1423.15857     739.7420     635.0427
   1423.14331     739.6324     632.7314   1423.14331     739.6324     632.7314
   1423.12805     737.8735     633.3831   1423.12805     737.8735     633.3831
   1423.11279     738.9166     633.8032   1423.11279     738.9166     633.8032
   1423.09753     738.7065     632.8503   1423.09753     738.7065     632.8503
   1423.08228     739.0831     632.9077   1423.08228     739.0831     632.9077
   1423.06702     737.5080     632.4692   1423.06702     737.5080     632.4692
   1423.05176     737.4306     632.5782   1423.05176     737.4306     632.5782
   1423.03650     737.0579     630.9017   1423.03650     737.0579     630.9017
   1423.02124     737.0604     630.9646   1423.02124     737.0604     630.9646
   1423.00598     737.0347     630.5650   1423.00598     737.0347     630.5650
   1422.99072     736.4685     631.0593   1422.99072     736.4685     631.0593
   1422.97546     735.7247     629.2029   1422.97546     735.7247     629.2029
   1422.96021     735.9563     629.7905   1422.96021     735.9563     629.7905
   1422.94495     736.7864     629.3520   1422.94495     736.7864     629.3520
   1422.92969     735.7618     629.1990   1422.92969     735.7618     629.1990
   1422.91443     736.3787     627.3595   1422.91443     736.3787     627.3595
   1422.89917     736.5233     628.5279   1422.89917     736.5233     628.5279
   1422.88391     735.0159     627.8491   1422.88391     735.0159     627.8491
   1422.86865     735.7604     627.0328   1422.86865     735.7604     627.0328
   1422.85339     735.1594     626.6167   1422.85339     735.1594     626.6167
   1422.83813     734.8182     625.1785   1422.83813     734.8182     625.1785
   1422.82288     734.2369     625.5902   1422.82288     734.2369     625.5902
   1422.80762     733.0692     625.2433   1422.80762     733.0692     625.2433
   1422.79236     733.2501     624.2427   1422.79236     733.2501     624.2427
   1422.77710     734.4500     623.5650   1422.77710     734.4500     623.5650
   1422.76184     733.9361     623.3778   1422.76184     733.9361     623.3778
   1422.74658     733.3678     622.4413   1422.74658     733.3678     622.4413
   1422.73132     732.6552     621.6296   1422.73132     732.6552     621.6296
   1422.71606     733.0837     620.9718   1422.71606     733.0837     620.9718
   1422.70081     733.7080     620.3454   1422.70081     733.7080     620.3454
   1422.68555     732.2242     619.8876   1422.68555     732.2242     619.8876
   1422.67029     733.0616     618.6979   1422.67029     733.0616     618.6979
   1422.65503     731.2538     617.6964   1422.65503     731.2538     617.6964
   1422.63977     732.3589     617.7272   1422.63977     732.3589     617.7272
   1422.62451     731.4481     617.4959   1422.62451     731.4481     617.4959
   1422.60925     731.4302     616.9328   1422.60925     731.4302     616.9328
   1422.59399     731.3414     615.6274   1422.59399     731.3414     615.6274
   1422.57874     730.0790     614.7739   1422.57874     730.0790     614.7739
   1422.56348     731.0167     613.7686   1422.56348     731.0167     613.7686
   1422.54822     730.2304     612.6055   1422.54822     730.2304     612.6055
   1422.53296     730.5206     612.5805   1422.53296     730.5206     612.5805
   1422.51770     730.6160     611.3450   1422.51770     730.6160     611.3450
   1422.50244     728.7946     610.5935   1422.50244     728.7946     610.5935
   1422.48718     729.4250     610.1135   1422.48718     729.4250     610.1135
   1422.47192     729.8121     609.7386   1422.47192     729.8121     609.7386
   1422.45667     730.0417     608.8464   1422.45667     730.0417     608.8464
   1422.44141     728.7804     606.7172   1422.44141     728.7804     606.7172
   1422.42615     728.4033     607.4276   1422.42615     728.4033     607.4276
   1422.41089     728.6962     605.4830   1422.41089     728.6962     605.4830
   1422.39563     729.3532     605.1755   1422.39563     729.3532     605.1755
   1422.38037     727.8105     603.7327   1422.38037     727.8105     603.7327
   1422.36511     727.2850     602.9315   1422.36511     727.2850     602.9315
   1422.34985     728.5731     602.3516   1422.34985     728.5731     602.3516
   1422.33459     727.3777     600.8615   1422.33459     727.3777     600.8615
   1422.31934     727.8364     599.6979   1422.31934     727.8364     599.6979
   1422.30408     726.8036     598.8445   1422.30408     726.8036     598.8445
   1422.28882     728.0172     598.4507   1422.28882     728.0172     598.4507
   1422.27356     727.4468     597.2587   1422.27356     727.4468     597.2587
   1422.25830     726.4921     596.1550   1422.25830     726.4921     596.1550
   1422.24304     726.5540     596.5249   1422.24304     726.5540     596.5249
   1422.22778     725.8300     594.2431   1422.22778     725.8300     594.2431
   1422.21252     724.8481     593.2713   1422.21252     724.8481     593.2713
   1422.19727     725.4042     592.4615   1422.19727     725.4042     592.4615
   1422.18201     725.5688     590.6782   1422.18201     725.5688     590.6782
   1422.16675     725.0775     590.1580   1422.16675     725.0775     590.1580
   1422.15149     724.7280     589.3802   1422.15149     724.7280     589.3802
   1422.13623     724.4926     587.8985   1422.13623     724.4926     587.8985
   1422.12097     725.3100     586.6845   1422.12097     725.3100     586.6845
   1422.10571     725.0763     585.3696   1422.10571     725.0763     585.3696
   1422.09045     725.5275     584.6229   1422.09045     725.5275     584.6229
   1422.07520     723.3927     583.2595   1422.07520     723.3927     583.2595
   1422.05994     723.8263     581.9922   1422.05994     723.8263     581.9922
   1422.04468     724.1144     581.5876   1422.04468     724.1144     581.5876
   1422.02942     723.4872     580.2016   1422.02942     723.4872     580.2016
   1422.01416     722.7208     578.7347   1422.01416     722.7208     578.7347
   1421.99890     722.1504     576.8179   1421.99890     722.1504     576.8179
   1421.98364     722.5850     577.1555   1421.98364     722.5850     577.1555
   1421.96838     721.8573     574.7399   1421.96838     721.8573     574.7399
   1421.95312     721.6119     573.7923   1421.95312     721.6119     573.7923
   1421.93787     721.0042     573.7161   1421.93787     721.0042     573.7161
   1421.92261     722.4097     571.6822   1421.92261     722.4097     571.6822
   1421.90735     720.3978     571.2343   1421.90735     720.3978     571.2343
   1421.89209     720.2446     568.7910   1421.89209     720.2446     568.7910
   1421.87683     721.2238     567.5496   1421.87683     721.2238     567.5496
   1421.86157     721.3482     566.8300   1421.86157     721.3482     566.8300
   1421.84631     720.4867     566.1157   1421.84631     720.4867     566.1157
   1421.83105     721.6997     564.7065   1421.83105     721.6997     564.7065
   1421.81580     720.6930     563.6063   1421.81580     720.6930     563.6063
   1421.80054     720.7684     562.7207   1421.80054     720.7684     562.7207
   1421.78528     720.3334     561.3184   1421.78528     720.3334     561.3184
   1421.77002     720.2206     560.1977   1421.77002     720.2206     560.1977
   1421.75476     719.4395     557.8979   1421.75476     719.4395     557.8979
   1421.73950     718.5966     557.6922   1421.73950     718.5966     557.6922
   1421.72424     717.8292     556.1873   1421.72424     717.8292     556.1873
   1421.70898     719.6205     554.0067   1421.70898     719.6205     554.0067
   1421.69373     718.7241     552.6890   1421.69373     718.7241     552.6890
   1421.67847     719.0726     551.8638   1421.67847     719.0726     551.8638
   1421.66321     716.5413     550.7283   1421.66321     716.5413     550.7283
   1421.64795     719.1987     549.5190   1421.64795     719.1987     549.5190
   1421.63269     718.1612     548.0376   1421.63269     718.1612     548.0376
   1421.61743     716.8826     546.1990   1421.61743     716.8826     546.1990
   1421.60217     718.1806     545.8505   1421.60217     718.1806     545.8505
   1421.58691     717.9075     544.6572   1421.58691     717.9075     544.6572
   1421.57166     716.4140     542.8864   1421.57166     716.4140     542.8864
   1421.55640     717.2221     542.2352   1421.55640     717.2221     542.2352
   1421.54114     716.3375     541.7537   1421.54114     716.3375     541.7537
   1421.52588     715.8273     539.2426   1421.52588     715.8273     539.2426
   1421.51062     715.2383     538.4062   1421.51062     715.2383     538.4062
   1421.49536     715.2615     536.8925   1421.49536     715.2615     536.8925
   1421.48010     715.5532     535.4713   1421.48010     715.5532     535.4713
   1421.46484     714.7278     534.8137   1421.46484     714.7278     534.8137
   1421.44958     714.8664     533.4416   1421.44958     714.8664     533.4416
   1421.43433     714.4350     530.7484   1421.43433     714.4350     530.7484
   1421.41907     714.5854     530.4793   1421.41907     714.5854     530.4793
   1421.40381     713.5084     529.6469   1421.40381     713.5084     529.6469
   1421.38855     714.4377     527.8537   1421.38855     714.4377     527.8537
   1421.37329     713.3043     526.2316   1421.37329     713.3043     526.2316
   1421.35803     713.6414     525.5816   1421.35803     713.6414     525.5816
   1421.34277     712.5311     524.4672   1421.34277     712.5311     524.4672
   1421.32751     714.3356     522.8268   1421.32751     714.3356     522.8268
   1421.31226     713.7677     522.8799   1421.31226     713.7677     522.8799
   1421.29700     714.4431     520.8569   1421.29700     714.4431     520.8569
   1421.28174     714.5280     521.0129   1421.28174     714.5280     521.0129
   1421.26648     714.7271     520.6028   1421.26648     714.7271     520.6028
   1421.25122     714.7151     519.8325   1421.25122     714.7151     519.8325
   1421.23596     717.0812     519.3117   1421.23596     717.0812     519.3117
   1421.22070     718.1973     519.0109   1421.22070     718.1973     519.0109
   1421.20544     720.8391     519.0397   1421.20544     720.8391     519.0397
   1421.19019     721.1544     519.7431   1421.19019     721.1544     519.7431
   1421.17493     723.9246     519.7792   1421.17493     723.9246     519.7792
   1421.15967     727.9962     520.3793   1421.15967     727.9962     520.3793
   1421.14441     730.7147     521.8047   1421.14441     730.7147     521.8047
   1421.12915     734.0939     523.3648   1421.12915     734.0939     523.3648
   1421.11389     738.3127     526.0522   1421.11389     738.3127     526.0522
   1421.09863     744.0285     527.8614   1421.09863     744.0285     527.8614
   1421.08337     751.6852     531.8763   1421.08337     751.6852     531.8763
   1421.06812     762.9922     538.7419   1421.06812     762.9922     538.7419
   1421.05286     773.8013     545.2507   1421.05286     773.8013     545.2507
   1421.03760     785.6873     553.0605   1421.03760     785.6873     553.0605
   1421.02234     805.8353     565.2953   1421.02234     805.8353     565.2953
   1421.00708     844.5007     592.1458   1421.00708     844.5007     592.1458
   1420.99182     916.1564     637.3000   1420.99182     916.1564     637.3000
   1420.97656     965.0043     671.2104   1420.97656     965.0043     671.2104
   1420.96130     942.4569     653.3118   1420.96130     942.4569     653.3118
   1420.94604     922.2929     638.9872   1420.94604     922.2929     638.9872
   1420.93079     846.4495     585.6724   1420.93079     846.4495     585.6724
   1420.91553     820.6146     566.3273   1420.91553     820.6146     566.3273
   1420.90027     826.0194     568.7089   1420.90027     826.0194     568.7089
   1420.88501     850.4532     584.2186   1420.88501     850.4532     584.2186
   1420.86975     894.9986     611.8052   1420.86975     894.9986     611.8052
   1420.85449     960.4136     655.6142   1420.85449     960.4136     655.6142
   1420.83923    1055.8070     720.1252   1420.83923    1055.8070     720.1252
   1420.82397    1217.7371     825.0179   1420.82397    1217.7371     825.0179
   1420.80872    1446.0216     975.6086   1420.80872    1446.0216     975.6086
   1420.79346    1700.2349    1139.9962   1420.79346    1700.2349    1139.9962
   1420.77820    1936.4105    1296.8699   1420.77820    1936.4105    1296.8699
   1420.76294    2213.9385    1475.4478   1420.76294    2213.9385    1475.4478
   1420.74768    2354.8459    1563.4741   1420.74768    2354.8459    1563.4741
   1420.73242    2237.5134    1485.6217   1420.73242    2237.5134    1485.6217
   1420.71716    1973.7397    1310.7657   1420.71716    1973.7397    1310.7657
   1420.70190    1622.0389    1075.8170   1420.70190    1622.0389    1075.8170
   1420.68665    1392.9808     925.2043   1420.68665    1392.9808     925.2043
   1420.67139    1297.1547     859.7830   1420.67139    1297.1547     859.7830
   1420.65613    1223.3083     810.2489   1420.65613    1223.3083     810.2489
   1420.64087    1174.8306     775.8951   1420.64087    1174.8306     775.8951
   1420.62561    1115.7338     738.3433   1420.62561    1115.7338     738.3433
   1420.61035    1023.8693     676.5556   1420.61035    1023.8693     676.5556
   1420.59509     967.9548     640.1167   1420.59509     967.9548     640.1167
   1420.57983    1071.0918     705.6076   1420.57983    1071.0918     705.6076
   1420.56458    1448.5844     947.4007   1420.56458    1448.5844     947.4007
   1420.54932    1770.6111    1153.0885   1420.54932    1770.6111    1153.0885
   1420.53406    2052.6633    1331.3525   1420.53406    2052.6633    1331.3525
   1420.51880    2147.9702    1385.7596   1420.51880    2147.9702    1385.7596
   1420.50354    1866.8071    1205.8104   1420.50354    1866.8071    1205.8104
   1420.48828    1408.7847     911.9083   1420.48828    1408.7847     911.9083
   1420.47302    1124.4542     727.9160   1420.47302    1124.4542     727.9160
   1420.45776     929.4222     602.7286   1420.45776     929.4222     602.7286
   1420.44250     800.7155     520.0799   1420.44250     800.7155     520.0799
   1420.42725     750.6055     488.0103   1420.42725     750.6055     488.0103
   1420.41199     728.9791     473.7869   1420.41199     728.9791     473.7869
   1420.39673     719.1736     467.1170   1420.39673     719.1736     467.1170
   1420.38147     712.4919     461.9420   1420.38147     712.4919     461.9420
   1420.36621     709.8029     460.0037   1420.36621     709.8029     460.0037
   1420.35095     708.3412     457.5496   1420.35095     708.3412     457.5496
   1420.33569     706.5577     456.2176   1420.33569     706.5577     456.2176
   1420.32043     705.8121     454.7458   1420.32043     705.8121     454.7458
   1420.30518     705.9907     454.2376   1420.30518     705.9907     454.2376
   1420.28992     704.9109     452.2770   1420.28992     704.9109     452.2770
   1420.27466     704.8520     451.5449   1420.27466     704.8520     451.5449
   1420.25940     704.0942     451.0468   1420.25940     704.0942     451.0468
   1420.24414     703.7835     449.2695   1420.24414     703.7835     449.2695
   1420.22888     703.6913     447.8758   1420.22888     703.6913     447.8758
   1420.21362     701.8342     447.0168   1420.21362     701.8342     447.0168
   1420.19836     701.6744     445.6787   1420.19836     701.6744     445.6787
   1420.18311     701.1800     444.6458   1420.18311     701.1800     444.6458
   1420.16785     700.7472     443.4626   1420.16785     700.7472     443.4626
   1420.15259     699.4961     442.0656   1420.15259     699.4961     442.0656
   1420.13733     698.9306     441.5259   1420.13733     698.9306     441.5259
   1420.12207     698.1420     440.3117   1420.12207     698.1420     440.3117
   1420.10681     697.9775     438.7146   1420.10681     697.9775     438.7146
   1420.09155     696.3046     439.1762   1420.09155     696.3046     439.1762
   1420.07629     696.2899     437.9593   1420.07629     696.2899     437.9593
   1420.06104     697.0782     437.1324   1420.06104     697.0782     437.1324
   1420.04578     695.2443     435.7564   1420.04578     695.2443     435.7564
   1420.03052     695.7875     435.4798   1420.03052     695.7875     435.4798
   1420.01526     696.5477     434.6218   1420.01526     696.5477     434.6218
   1420.00000     697.5505     435.1541   1420.00000     697.5505     435.1541
   1419.98474     698.5536     435.6864   1419.98474     698.5536     435.6864
   1419.96948     698.8820     434.2647   1419.96948     698.8820     434.2647
   1419.95422     695.9034     433.1579   1419.95422     695.9034     433.1579
   1419.93896     696.5678     431.9962   1419.93896     696.5678     431.9962
   1419.92371     695.9671     431.8122   1419.92371     695.9671     431.8122
   1419.90845     695.6838     430.3732   1419.90845     695.6838     430.3732
   1419.89319     695.6780     430.0421   1419.89319     695.6780     430.0421
   1419.87793     695.8184     429.4127   1419.87793     695.8184     429.4127
   1419.86267     696.4652     429.0309   1419.86267     696.4652     429.0309
   1419.84741     695.7645     428.2455   1419.84741     695.7645     428.2455
   1419.83215     697.3887     428.2867   1419.83215     697.3887     428.2867
   1419.81689     697.3911     428.1068   1419.81689     697.3911     428.1068
   1419.80164     696.9046     427.1304   1419.80164     696.9046     427.1304
   1419.78638     697.1038     426.0947   1419.78638     697.1038     426.0947
   1419.77112     697.0117     426.3091   1419.77112     697.0117     426.3091
   1419.75586     698.5312     426.4595   1419.75586     698.5312     426.4595
   1419.74060     697.6304     426.2236   1419.74060     697.6304     426.2236
   1419.72534     697.0086     425.9233   1419.72534     697.0086     425.9233
   1419.71008     698.6712     425.6988   1419.71008     698.6712     425.6988
   1419.69482     698.5314     425.2461   1419.69482     698.5314     425.2461
   1419.67957     699.3778     425.0076   1419.67957     699.3778     425.0076
   1419.66431     699.0837     424.7693   1419.66431     699.0837     424.7693
   1419.64905     698.9567     424.0555   1419.64905     698.9567     424.0555
   1419.63379     699.5659     425.4156   1419.63379     699.5659     425.4156
   1419.61853     700.2556     424.1045   1419.61853     700.2556     424.1045
   1419.60327     700.0287     424.1653   1419.60327     700.0287     424.1653
   1419.58801     701.5159     423.9611   1419.58801     701.5159     423.9611
   1419.57275     701.1196     423.4516   1419.57275     701.1196     423.4516
   1419.55750     701.2823     423.5847   1419.55750     701.2823     423.5847
   1419.54224     701.4075     423.1442   1419.54224     701.4075     423.1442
   1419.52698     702.5580     423.2930   1419.52698     702.5580     423.2930
   1419.51172     701.4536     422.8576   1419.51172     701.4536     422.8576
   1419.49646     703.1423     423.5414   1419.49646     703.1423     423.5414
   1419.48120     702.7325     422.8886   1419.48120     702.7325     422.8886
   1419.46594     703.9766     422.3947   1419.46594     703.9766     422.3947
   1419.45068     705.3867     422.5310   1419.45068     705.3867     422.5310
   1419.43542     705.0615     422.6469   1419.43542     705.0615     422.6469
   1419.42017     705.0896     422.5298   1419.42017     705.0896     422.5298
   1419.40491     705.3080     422.7424   1419.40491     705.3080     422.7424
   1419.38965     705.6011     422.8266   1419.38965     705.6011     422.8266
   1419.37439     705.2343     422.5102   1419.37439     705.2343     422.5102
   1419.35913     705.5012     422.5830   1419.35913     705.5012     422.5830
   1419.34387     706.8091     422.9871   1419.34387     706.8091     422.9871
   1419.32861     707.4491     422.2906   1419.32861     707.4491     422.2906
   1419.31335     708.0637     422.9078   1419.31335     708.0637     422.9078
   1419.29810     707.4652     422.9550   1419.29810     707.4652     422.9550
   1419.28284     708.0776     422.6356   1419.28284     708.0776     422.6356
   1419.26758     709.4092     423.3671   1419.26758     709.4092     423.3671
   1419.25232     709.3237     423.2749   1419.25232     709.3237     423.2749
   1419.23706     710.0234     423.3198   1419.23706     710.0234     423.3198
   1419.22180     709.9059     423.9934   1419.22180     709.9059     423.9934
   1419.20654     711.6214     423.0109   1419.20654     711.6214     423.0109
   1419.19128     710.9711     423.8257   1419.19128     710.9711     423.8257
   1419.17603     711.7996     423.6590   1419.17603     711.7996     423.6590
   1419.16077     711.4690     423.8922   1419.16077     711.4690     423.8922
   1419.14551     712.8155     423.4690   1419.14551     712.8155     423.4690
   1419.13025     713.5264     424.3102   1419.13025     713.5264     424.3102
   1419.11499     714.1051     424.1567   1419.11499     714.1051     424.1567
   1419.09973     713.6445     424.8350   1419.09973     713.6445     424.8350
   1419.08447     714.2174     424.9723   1419.08447     714.2174     424.9723
   1419.06921     715.7394     425.0876   1419.06921     715.7394     425.0876
   1419.05396     715.8749     425.3740   1419.05396     715.8749     425.3740
   1419.03870     718.0236     425.4767   1419.03870     718.0236     425.4767
   1419.02344     716.5422     425.8412   1419.02344     716.5422     425.8412
   1419.00818     718.5516     426.3267   1419.00818     718.5516     426.3267
   1418.99292     718.9504     426.7623   1418.99292     718.9504     426.7623
   1418.97766     719.6447     427.0856   1418.97766     719.6447     427.0856
   1418.96240     719.4263     427.4083   1418.96240     719.4263     427.4083
   1418.94714     720.4555     427.8795   1418.94714     720.4555     427.8795
   1418.93188     721.4111     428.5916   1418.93188     721.4111     428.5916
   1418.91663     722.2308     428.5073   1418.91663     722.2308     428.5073
   1418.90137     723.0867     428.3419   1418.90137     723.0867     428.3419
   1418.88611     722.5605     428.9600   1418.88611     722.5605     428.9600
   1418.87085     724.4905     429.6967   1418.87085     724.4905     429.6967
   1418.85559     724.7889     430.5789   1418.85559     724.7889     430.5789
   1418.84033     725.7532     430.3143   1418.84033     725.7532     430.3143
   1418.82507     725.9753     431.1273   1418.82507     725.9753     431.1273
   1418.80981     726.3229     431.5696   1418.80981     726.3229     431.5696
   1418.79456     727.4957     431.7974   1418.79456     727.4957     431.7974
   1418.77930     726.6176     432.1199   1418.77930     726.6176     432.1199
   1418.76404     729.0802     432.6932   1418.76404     729.0802     432.6932
   1418.74878     729.8077     432.9981   1418.74878     729.8077     432.9981
   1418.73352     731.0906     434.3929   1418.73352     731.0906     434.3929
   1418.71826     730.4020     434.2307   1418.71826     730.4020     434.2307
   1418.70300     730.8406     435.4106   1418.70300     730.8406     435.4106
   1418.68774     732.4403     435.7375   1418.68774     732.4403     435.7375
   1418.67249     733.6885     435.8569   1418.67249     733.6885     435.8569
   1418.65723     733.9409     436.4369   1418.65723     733.9409     436.4369
   1418.64197     735.6930     437.6050   1418.64197     735.6930     437.6050
   1418.62671     734.4271     438.1198   1418.62671     734.4271     438.1198
   1418.61145     735.7206     438.6752   1418.61145     735.7206     438.6752
   1418.59619     736.1069     439.3142   1418.59619     736.1069     439.3142
   1418.58093     738.2228     439.3433   1418.58093     738.2228     439.3433
   1418.56567     737.5967     440.5507   1418.56567     737.5967     440.5507
   1418.55042     739.7372     441.3450   1418.55042     739.7372     441.3450
   1418.53516     740.2711     441.6864   1418.53516     740.2711     441.6864
   1418.51990     741.0766     442.6566   1418.51990     741.0766     442.6566
   1418.50464     742.3030     443.2872   1418.50464     742.3030     443.2872
   1418.48938     743.1178     443.9064   1418.48938     743.1178     443.9064
   1418.47412     744.0889     444.2701   1418.47412     744.0889     444.2701
   1418.45886     744.9138     445.7753   1418.45886     744.9138     445.7753
   1418.44360     745.7325     445.9328   1418.44360     745.7325     445.9328
   1418.42834     746.2836     446.2331   1418.42834     746.2836     446.2331
   1418.41309     747.7912     446.7952   1418.41309     747.7912     446.7952
   1418.39783     748.9476     447.7099   1418.39783     748.9476     447.7099
   1418.38257     748.6573     448.8413   1418.38257     748.6573     448.8413
   1418.36731     749.3985     450.0962   1418.36731     749.3985     450.0962
   1418.35205     750.7392     450.5321   1418.35205     750.7392     450.5321
   1418.33679     750.7808     451.2705   1418.33679     750.7808     451.2705
   1418.32153     752.5559     450.8329   1418.32153     752.5559     450.8329
   1418.30627     753.5358     453.3083   1418.30627     753.5358     453.3083
   1418.29102     755.4605     453.4621   1418.29102     755.4605     453.4621
   1418.27576     755.2648     453.6953   1418.27576     755.2648     453.6953
   1418.26050     755.9728     454.7348   1418.26050     755.9728     454.7348
   1418.24524     757.0919     455.3727   1418.24524     757.0919     455.3727
   1418.22998     757.6411     456.5374   1418.22998     757.6411     456.5374
   1418.21472     760.3795     457.4602   1418.21472     760.3795     457.4602
   1418.19946     759.2973     458.3557   1418.19946     759.2973     458.3557
   1418.18420     760.4401     459.5068   1418.18420     760.4401     459.5068
   1418.16895     762.2516     459.4709   1418.16895     762.2516     459.4709
   1418.15369     763.8718     461.1830   1418.15369     763.8718     461.1830
   1418.13843     763.4496     461.6069   1418.13843     763.4496     461.6069
   1418.12317     764.9874     461.7734   1418.12317     764.9874     461.7734
   1418.10791     766.5015     463.3434   1418.10791     766.5015     463.3434
   1418.09265     767.7319     464.4882   1418.09265     767.7319     464.4882
   1418.07739     767.8815     465.0921   1418.07739     767.8815     465.0921
   1418.06213     770.0818     465.3961   1418.06213     770.0818     465.3961
   1418.04688     769.8530     467.1457   1418.04688     769.8530     467.1457
   1418.03162     771.1776     468.0659   1418.03162     771.1776     468.0659
   1418.01636     770.7272     468.1227   1418.01636     770.7272     468.1227
   1418.00110     771.7061     469.0907   1418.00110     771.7061     469.0907
   1417.98584     773.5591     470.7213   1417.98584     773.5591     470.7213
   1417.97058     774.9677     471.2432   1417.97058     774.9677     471.2432
   1417.95532     776.7039     472.5564   1417.95532     776.7039     472.5564
   1417.94006     777.1123     472.4493   1417.94006     777.1123     472.4493
   1417.92480     778.6993     474.6723   1417.92480     778.6993     474.6723
   1417.90955     778.5498     475.4373   1417.90955     778.5498     475.4373
   1417.89429     779.2477     475.7808   1417.89429     779.2477     475.7808
   1417.87903     779.9899     477.5138   1417.87903     779.9899     477.5138
   1417.86377     782.3039     478.4949   1417.86377     782.3039     478.4949
   1417.84851     782.8667     479.1204   1417.84851     782.8667     479.1204
   1417.83325     783.9660     479.5553   1417.83325     783.9660     479.5553
   1417.81799     785.0789     481.0558   1417.81799     785.0789     481.0558
   1417.80273     785.2451     481.2943   1417.80273     785.2451     481.2943
   1417.78748     787.0076     482.0320   1417.78748     787.0076     482.0320
   1417.77222     787.5562     483.8033   1417.77222     787.5562     483.8033
   1417.75696     789.6520     485.0329   1417.75696     789.6520     485.0329
   1417.74170     790.4232     485.7954   1417.74170     790.4232     485.7954
   1417.72644     790.4377     486.2261   1417.72644     790.4377     486.2261
   1417.71118     791.6342     488.1367   1417.71118     791.6342     488.1367
   1417.69592     792.3431     489.1568   1417.69592     792.3431     489.1568
   1417.68066     794.1767     489.2982   1417.68066     794.1767     489.2982
   1417.66541     795.8309     490.9478   1417.66541     795.8309     490.9478
   1417.65015     795.5073     491.4664   1417.65015     795.5073     491.4664
   1417.63489     797.5114     492.5904   1417.63489     797.5114     492.5904
   1417.61963     798.4800     493.5259   1417.61963     798.4800     493.5259
   1417.60437     800.0272     494.5379   1417.60437     800.0272     494.5379
   1417.58911     800.7410     495.6046   1417.58911     800.7410     495.6046
   1417.57385     800.9517     497.0951   1417.57385     800.9517     497.0951
   1417.55859     803.0701     498.0216   1417.55859     803.0701     498.0216
   1417.54333     804.3300     498.2849   1417.54333     804.3300     498.2849
   1417.52808     805.1482     499.5580   1417.52808     805.1482     499.5580
   1417.51282     806.0087     500.3157   1417.51282     806.0087     500.3157
   1417.49756     805.4760     501.4860   1417.49756     805.4760     501.4860
   1417.48230     807.1531     502.3517   1417.48230     807.1531     502.3517
   1417.46704     808.5271     502.7529   1417.46704     808.5271     502.7529
   1417.45178     809.5143     504.6850   1417.45178     809.5143     504.6850
   1417.43652     809.6052     504.5477   1417.43652     809.6052     504.5477
   1417.42126     811.4430     506.6490   1417.42126     811.4430     506.6490
   1417.40601     812.0781     506.8277   1417.40601     812.0781     506.8277
   1417.39075     813.2177     508.5275   1417.39075     813.2177     508.5275
   1417.37549     813.9278     509.0664   1417.37549     813.9278     509.0664
   1417.36023     813.9593     509.5929   1417.36023     813.9593     509.5929
   1417.34497     816.9302     510.3513   1417.34497     816.9302     510.3513
   1417.32971     817.4915     511.0826   1417.32971     817.4915     511.0826
   1417.31445     818.3533     513.0796   1417.31445     818.3533     513.0796
   1417.29919     817.8560     513.3615   1417.29919     817.8560     513.3615
   1417.28394     818.2969     514.8714   1417.28394     818.2969     514.8714
   1417.26868     819.7341     516.0106   1417.26868     819.7341     516.0106
   1417.25342     820.6426     516.5997   1417.25342     820.6426     516.5997
   1417.23816     822.4048     516.9688   1417.23816     822.4048     516.9688
   1417.22290     822.3665     517.6145   1417.22290     822.3665     517.6145
   1417.20764     822.3940     518.4893   1417.20764     822.3940     518.4893
   1417.19238     823.1307     518.9056   1417.19238     823.1307     518.9056
   1417.17712     824.7039     520.3180   1417.17712     824.7039     520.3180
   1417.16187     825.2780     521.1152   1417.16187     825.2780     521.1152
   1417.14661     827.1336     521.4400   1417.14661     827.1336     521.4400
   1417.13135     826.7099     522.2440   1417.13135     826.7099     522.2440
   1417.11609     827.0667     522.8957   1417.11609     827.0667     522.8957
   1417.10083     828.9367     523.9423   1417.10083     828.9367     523.9423
   1417.08557     828.6328     524.5510   1417.08557     828.6328     524.5510
   1417.07031     830.6586     525.8071   1417.07031     830.6586     525.8071
   1417.05505     830.6301     526.0756   1417.05505     830.6301     526.0756
   1417.03979     830.8824     526.8476   1417.03979     830.8824     526.8476
   1417.02454     833.4943     527.6747   1417.02454     833.4943     527.6747
   1417.00928     832.7149     527.5862   1417.00928     832.7149     527.5862
   1416.99402     831.8098     528.8882   1416.99402     831.8098     528.8882
   1416.97876     833.6926     528.8386   1416.97876     833.6926     528.8386
   1416.96350     834.8821     529.6444   1416.96350     834.8821     529.6444
   1416.94824     834.5297     530.6700   1416.94824     834.5297     530.6700
   1416.93298     835.9551     531.4182   1416.93298     835.9551     531.4182
   1416.91772     834.8807     531.2786   1416.91772     834.8807     531.2786
   1416.90247     837.2794     533.1251   1416.90247     837.2794     533.1251
   1416.88721     838.0522     532.7152   1416.88721     838.0522     532.7152
   1416.87195     838.1072     533.2914   1416.87195     838.1072     533.2914
   1416.85669     838.4059     532.7451   1416.85669     838.4059     532.7451
   1416.84143     838.7456     534.1925   1416.84143     838.7456     534.1925
   1416.82617     839.0200     533.9587   1416.82617     839.0200     533.9587
   1416.81091     837.6719     535.6141   1416.81091     837.6719     535.6141
   1416.79565     839.8414     535.5110   1416.79565     839.8414     535.5110
   1416.78040     838.2216     535.1457   1416.78040     838.2216     535.1457
   1416.76514     839.2214     536.3399   1416.76514     839.2214     536.3399
   1416.74988     840.5707     536.9198   1416.74988     840.5707     536.9198
   1416.73462     841.0765     535.9312   1416.73462     841.0765     535.9312
   1416.71936     840.5441     536.7226   1416.71936     840.5441     536.7226
   1416.70410     842.4423     536.9100   1416.70410     842.4423     536.9100
   1416.68884     841.7136     537.4013   1416.68884     841.7136     537.4013
   1416.67358     842.3470     537.8876   1416.67358     842.3470     537.8876
   1416.65833     842.1212     537.3552   1416.65833     842.1212     537.3552
   1416.64307     843.0120     536.8208   1416.64307     843.0120     536.8208
   1416.62781     842.4236     537.5347   1416.62781     842.4236     537.5347
   1416.61255     842.3881     537.8638   1416.61255     842.3881     537.8638
   1416.59729     842.0976     536.7934   1416.59729     842.0976     536.7934
   1416.58203     843.0739     538.0275   1416.58203     843.0739     538.0275
   1416.56677     843.6140     537.6954   1416.56677     843.6140     537.6954
   1416.55151     842.9487     537.3463   1416.55151     842.9487     537.3463
   1416.53625     842.8035     537.0126   1416.53625     842.8035     537.0126
   1416.52100     843.9208     538.3326   1416.52100     843.9208     538.3326
   1416.50574     844.2382     538.2148   1416.50574     844.2382     538.2148
   1416.49048     842.5269     538.6712   1416.49048     842.5269     538.6712
   1416.47522     842.3058     537.1808   1416.47522     842.3058     537.1808
   1416.45996     843.6917     537.5451   1416.45996     843.6917     537.5451
   1416.44470     843.5381     537.5472   1416.44470     843.5381     537.5472
   1416.42944     843.1613     536.8292   1416.42944     843.1613     536.8292
   1416.41418     843.4352     536.8719   1416.41418     843.4352     536.8719
   1416.39893     842.8590     536.8751   1416.39893     842.8590     536.8751
   1416.38367     842.1390     535.9062   1416.38367     842.1390     535.9062
   1416.36841     842.0663     536.9338   1416.36841     842.0663     536.9338
   1416.35315     843.0437     535.5500   1416.35315     843.0437     535.5500
   1416.33789     841.0880     535.5107   1416.33789     841.0880     535.5107
   1416.32263     841.7456     535.0283   1416.32263     841.7456     535.0283
   1416.30737     842.2509     536.1099   1416.30737     842.2509     536.1099
   1416.29211     840.7311     534.0494   1416.29211     840.7311     534.0494
   1416.27686     839.7141     534.4315   1416.27686     839.7141     534.4315
   1416.26160     839.8934     533.5213   1416.26160     839.8934     533.5213
   1416.24634     840.3867     534.0312   1416.24634     840.3867     534.0312
   1416.23108     840.5805     532.9681   1416.23108     840.5805     532.9681
   1416.21582     839.5604     532.3987   1416.21582     839.5604     532.3987
   1416.20056     838.0179     531.8113   1416.20056     838.0179     531.8113
   1416.18530     837.7848     532.3937   1416.18530     837.7848     532.3937
   1416.17004     838.8672     532.0750   1416.17004     838.8672     532.0750
   1416.15479     840.5576     530.8455   1416.15479     840.5576     530.8455
   1416.13953     838.3348     530.7893   1416.13953     838.3348     530.7893
   1416.12427     837.7424     529.8880   1416.12427     837.7424     529.8880
   1416.10901     837.1301     529.7131   1416.10901     837.1301     529.7131
   1416.09375     836.7863     529.2301   1416.09375     836.7863     529.2301
   1416.07849     836.8649     528.5409   1416.07849     836.8649     528.5409
   1416.06323     835.1058     528.5503   1416.06323     835.1058     528.5503
   1416.04797     836.0253     528.2026   1416.04797     836.0253     528.2026
   1416.03271     834.3594     526.9752   1416.03271     834.3594     526.9752
   1416.01746     834.1258     526.5225   1416.01746     834.1258     526.5225
   1416.00220     834.8370     525.9276   1416.00220     834.8370     525.9276
   1415.98694     832.9150     525.1799   1415.98694     832.9150     525.1799
   1415.97168     832.9536     524.8287   1415.97168     832.9536     524.8287
   1415.95642     832.4825     524.2604   1415.95642     832.4825     524.2604
   1415.94116     831.4761     523.9647   1415.94116     831.4761     523.9647
   1415.92590     830.9813     523.3671   1415.92590     830.9813     523.3671
   1415.91064     831.3801     522.3795   1415.91064     831.3801     522.3795
   1415.89539     828.9816     521.8501   1415.89539     828.9816     521.8501
   1415.88013     828.4617     521.9083   1415.88013     828.4617     521.9083
   1415.86487     828.7538     521.2263   1415.86487     828.7538     521.2263
   1415.84961     826.8264     520.4962   1415.84961     826.8264     520.4962
   1415.83435     826.9437     519.8589   1415.83435     826.9437     519.8589
   1415.81909     825.7390     519.7250   1415.81909     825.7390     519.7250
   1415.80383     825.4490     518.1918   1415.80383     825.4490     518.1918
   1415.78857     824.6727     517.5548   1415.78857     824.6727     517.5548
   1415.77332     823.5084     517.3411   1415.77332     823.5084     517.3411
   1415.75806     822.6696     516.6346   1415.75806     822.6696     516.6346
   1415.74280     821.3267     515.9135   1415.74280     821.3267     515.9135
   1415.72754     820.4631     515.2903   1415.72754     820.4631     515.2903
   1415.71228     819.2517     515.1559   1415.71228     819.2517     515.1559
   1415.69702     819.0831     513.7858   1415.69702     819.0831     513.7858
   1415.68176     817.0378     514.1734   1415.68176     817.0378     514.1734
   1415.66650     816.8792     513.5251   1415.66650     816.8792     513.5251
   1415.65125     817.0523     511.8190   1415.65125     817.0523     511.8190
   1415.63599     816.0524     511.8660   1415.63599     816.0524     511.8660
   1415.62073     815.8857     511.6965   1415.62073     815.8857     511.6965
   1415.60547     814.0435     510.1190   1415.60547     814.0435     510.1190
   1415.59021     812.2031     508.8228   1415.59021     812.2031     508.8228
   1415.57495     812.4811     507.9749   1415.57495     812.4811     507.9749
   1415.55969     810.2388     508.2289   1415.55969     810.2388     508.2289
   1415.54443     810.5027     506.9682   1415.54443     810.5027     506.9682
   1415.52917     809.4669     506.5875   1415.52917     809.4669     506.5875
   1415.51392     807.9738     505.8094   1415.51392     807.9738     505.8094
   1415.49866     807.1961     505.4488   1415.49866     807.1961     505.4488
   1415.48340     806.2363     504.4382   1415.48340     806.2363     504.4382
   1415.46814     804.2652     503.6103   1415.46814     804.2652     503.6103
   1415.45288     804.2380     503.1749   1415.45288     804.2380     503.1749
   1415.43762     802.9482     502.5623   1415.43762     802.9482     502.5623
   1415.42236     802.0076     500.9181   1415.42236     802.0076     500.9181
   1415.40710     799.7678     500.8554   1415.40710     799.7678     500.8554
   1415.39185     799.2494     500.9942   1415.39185     799.2494     500.9942
   1415.37659     797.0922     499.3451   1415.37659     797.0922     499.3451
   1415.36133     796.9578     497.8116   1415.36133     796.9578     497.8116
   1415.34607     795.1644     497.4326   1415.34607     795.1644     497.4326
   1415.33081     793.0821     497.2709   1415.33081     793.0821     497.2709
   1415.31555     793.5650     496.0437   1415.31555     793.5650     496.0437
   1415.30029     791.2816     495.0417   1415.30029     791.2816     495.0417
   1415.28503     790.7581     494.0559   1415.28503     790.7581     494.0559
   1415.26978     788.6419     493.2928   1415.26978     788.6419     493.2928
   1415.25452     787.7706     493.3116   1415.25452     787.7706     493.3116
   1415.23926     785.8387     492.3400   1415.23926     785.8387     492.3400
   1415.22400     785.5365     490.9798   1415.22400     785.5365     490.9798
   1415.20874     783.5601     490.6242   1415.20874     783.5601     490.6242
   1415.19348     780.9865     490.5873   1415.19348     780.9865     490.5873
   1415.17822     782.1030     489.5507   1415.17822     782.1030     489.5507
   1415.16296     779.1140     487.9547   1415.16296     779.1140     487.9547
   1415.14771     778.3017     487.4982   1415.14771     778.3017     487.4982
   1415.13245     776.5694     485.7415   1415.13245     776.5694     485.7415
   1415.11719     775.6077     485.6307   1415.11719     775.6077     485.6307
   1415.10193     773.4702     484.9391   1415.10193     773.4702     484.9391
   1415.08667     772.2053     484.6947   1415.08667     772.2053     484.6947
   1415.07141     770.4728     482.3487   1415.07141     770.4728     482.3487
   1415.05615     769.2889     482.6028   1415.05615     769.2889     482.6028
   1415.04089     765.9341     480.6236   1415.04089     765.9341     480.6236
   1415.02563     766.0303     479.9515   1415.02563     766.0303     479.9515
   1415.01038     763.5931     479.4605   1415.01038     763.5931     479.4605
   1414.99512     761.8004     477.6909   1414.99512     761.8004     477.6909
   1414.97986     759.6481     476.5677   1414.97986     759.6481     476.5677
   1414.96460     758.4667     475.9918   1414.96460     758.4667     475.9918
   1414.94934     757.6061     475.8590   1414.94934     757.6061     475.8590
   1414.93408     755.0387     473.5605   1414.93408     755.0387     473.5605
   1414.91882     753.6996     473.2557   1414.91882     753.6996     473.2557
   1414.90356     749.4147     471.8748   1414.90356     749.4147     471.8748
   1414.88831     748.9600     471.1425   1414.88831     748.9600     471.1425
   1414.87305     747.7384     470.2677   1414.87305     747.7384     470.2677
   1414.85779     746.6890     469.3918   1414.85779     746.6890     469.3918
   1414.84253     744.5421     468.1668   1414.84253     744.5421     468.1668
   1414.82727     740.9160     466.8440   1414.82727     740.9160     466.8440
   1414.81201     740.4241     465.5664   1414.81201     740.4241     465.5664
   1414.79675     737.0469     465.3041   1414.79675     737.0469     465.3041
   1414.78149     736.1073     463.6838   1414.78149     736.1073     463.6838
   1414.76624     733.1577     462.7531   1414.76624     733.1577     462.7531
   1414.75098     730.8779     461.8003   1414.75098     730.8779     461.8003
   1414.73572     730.1918     461.0240   1414.73572     730.1918     461.0240
   1414.72046     727.0568     460.1790   1414.72046     727.0568     460.1790
   1414.70520     724.5295     458.1851   1414.70520     724.5295     458.1851
   1414.68994     723.0547     456.9773   1414.68994     723.0547     456.9773
   1414.67468     721.1816     455.8174   1414.67468     721.1816     455.8174
   1414.65942     718.1504     455.1593   1414.65942     718.1504     455.1593
   1414.64417     717.7949     454.2385   1414.64417     717.7949     454.2385
   1414.62891     714.5297     452.8354   1414.62891     714.5297     452.8354
   1414.61365     711.5778     451.4996   1414.61365     711.5778     451.4996
   1414.59839     709.7418     450.1745   1414.59839     709.7418     450.1745
   1414.58313     707.0594     448.6765   1414.58313     707.0594     448.6765
   1414.56787     705.1806     446.7537   1414.56787     705.1806     446.7537
   1414.55261     703.1848     446.2084   1414.55261     703.1848     446.2084
   1414.53735     701.4783     445.3439   1414.53735     701.4783     445.3439
   1414.52209     697.6115     444.0904   1414.52209     697.6115     444.0904
   1414.50684     695.1827     443.2046   1414.50684     695.1827     443.2046
   1414.49158     693.8572     441.4737   1414.49158     693.8572     441.4737
   1414.47632     691.0425     440.7514   1414.47632     691.0425     440.7514
   1414.46106     688.2349     438.6601   1414.46106     688.2349     438.6601
   1414.44580     685.2848     438.2970   1414.44580     685.2848     438.2970
   1414.43054     684.9678     436.2411   1414.43054     684.9678     436.2411
   1414.41528     680.4376     434.3736   1414.41528     680.4376     434.3736
   1414.40002     679.1323     432.9329   1414.40002     679.1323     432.9329
   1414.38477     675.6671     432.3906   1414.38477     675.6671     432.3906
   1414.36951     673.5480     430.8334   1414.36951     673.5480     430.8334
   1414.35425     670.4627     429.7358   1414.35425     670.4627     429.7358
   1414.33899     669.0269     428.4527   1414.33899     669.0269     428.4527
   1414.32373     665.2003     427.0215   1414.32373     665.2003     427.0215
   1414.30847     662.9872     425.0221   1414.30847     662.9872     425.0221
   1414.29321     660.3265     423.2165   1414.29321     660.3265     423.2165
   1414.27795     657.7310     422.1521   1414.27795     657.7310     422.1521
   1414.26270     653.0911     421.0018   1414.26270     653.0911     421.0018
   1414.24744     651.6378     419.6683   1414.24744     651.6378     419.6683
   1414.23218     649.2285     418.4315   1414.23218     649.2285     418.4315
   1414.21692     646.2725     416.6256   1414.21692     646.2725     416.6256
   1414.20166     642.5687     415.0069   1414.20166     642.5687     415.0069
   1414.18640     640.7928     413.8241   1414.18640     640.7928     413.8241
   1414.17114     637.5529     412.9223   1414.17114     637.5529     412.9223
   1414.15588     634.2392     410.9957   1414.15588     634.2392     410.9957
   1414.14062     632.6030     409.3721   1414.14062     632.6030     409.3721
   1414.12537     628.2556     408.0264   1414.12537     628.2556     408.0264
   1414.11011     626.5314     405.7898   1414.11011     626.5314     405.7898
   1414.09485     623.5466     404.7612   1414.09485     623.5466     404.7612
   1414.07959     621.0747     402.6854   1414.07959     621.0747     402.6854
   1414.06433     617.7206     401.6640   1414.06433     617.7206     401.6640
   1414.04907     614.4092     400.7212   1414.04907     614.4092     400.7212
   1414.03381     612.2213     398.6889   1414.03381     612.2213     398.6889
   1414.01855     609.8525     396.8623   1414.01855     609.8525     396.8623
   1414.00330     630.6988     403.3896   1414.00330     630.6988     403.3896
   1413.98804     604.3667     394.7537   1413.98804     604.3667     394.7537
   1413.97278     600.0995     392.7126   1413.97278     600.0995     392.7126
   1413.95752     596.5458     390.8225   1413.95752     596.5458     390.8225
   1413.94226     594.0995     389.4979   1413.94226     594.0995     389.4979
   1413.92700     590.3560     387.8176   1413.92700     590.3560     387.8176
   1413.91174     588.2554     386.2178   1413.91174     588.2554     386.2178
   1413.89648     584.6980     384.3585   1413.89648     584.6980     384.3585
   1413.88123     582.1712     383.3046   1413.88123     582.1712     383.3046
   1413.86597     578.3652     381.5797   1413.86597     578.3652     381.5797
   1413.85071     575.2818     379.2547   1413.85071     575.2818     379.2547
   1413.83545     573.1825     377.9394   1413.83545     573.1825     377.9394
   1413.82019     569.2119     376.4091   1413.82019     569.2119     376.4091
   1413.80493     566.2146     374.6635   1413.80493     566.2146     374.6635
   1413.78967     563.8436     373.2325   1413.78967     563.8436     373.2325
   1413.77441     560.7784     371.6513   1413.77441     560.7784     371.6513
   1413.75916     558.2548     370.3081   1413.75916     558.2548     370.3081
   1413.74390     553.9964     368.4874   1413.74390     553.9964     368.4874
   1413.72864     551.3035     367.5424   1413.72864     551.3035     367.5424
   1413.71338     547.7614     365.3871   1413.71338     547.7614     365.3871
   1413.69812     544.0991     363.6872   1413.69812     544.0991     363.6872
   1413.68286     541.3530     362.0169   1413.68286     541.3530     362.0169
   1413.66760     539.2496     360.4048   1413.66760     539.2496     360.4048
   1413.65234     536.0891     358.9342   1413.65234     536.0891     358.9342
   1413.63708     533.3276     357.1572   1413.63708     533.3276     357.1572
   1413.62183     530.6404     355.6046   1413.62183     530.6404     355.6046
   1413.60657     526.6603     353.7162   1413.60657     526.6603     353.7162
   1413.59131     523.6440     352.2894   1413.59131     523.6440     352.2894
   1413.57605     520.1831     350.7405   1413.57605     520.1831     350.7405
   1413.56079     517.2592     349.0042   1413.56079     517.2592     349.0042
   1413.54553     514.7347     347.8091   1413.54553     514.7347     347.8091
   1413.53027     511.5785     346.0727   1413.53027     511.5785     346.0727
   1413.51501     508.8603     344.0952   1413.51501     508.8603     344.0952
   1413.49976     505.9061     343.1690   1413.49976     505.9061     343.1690
   1413.48450     502.5543     341.0424   1413.48450     502.5543     341.0424
   1413.46924     500.0363     339.9044   1413.46924     500.0363     339.9044
   1413.45398     497.0714     338.4865   1413.45398     497.0714     338.4865
   1413.43872     494.5021     336.9419   1413.43872     494.5021     336.9419
   1413.42346     491.1052     335.1024   1413.42346     491.1052     335.1024
   1413.40820     488.7867     334.2971   1413.40820     488.7867     334.2971
   1413.39294     485.0937     332.4840   1413.39294     485.0937     332.4840
   1413.37769     483.4077     330.8069   1413.37769     483.4077     330.8069
   1413.36243     480.0573     329.5514   1413.36243     480.0573     329.5514
   1413.34717     477.1310     327.5842   1413.34717     477.1310     327.5842
   1413.33191     474.3799     326.4272   1413.33191     474.3799     326.4272
   1413.31665     471.3650     324.6599   1413.31665     471.3650     324.6599
   1413.30139     468.6577     323.5914   1413.30139     468.6577     323.5914
   1413.28613     465.2687     321.6262   1413.28613     465.2687     321.6262
   1413.27087     463.4252     321.1930   1413.27087     463.4252     321.1930
   1413.25562     460.0902     319.2314   1413.25562     460.0902     319.2314
   1413.24036     457.6586     317.6498   1413.24036     457.6586     317.6498
   1413.22510     455.1465     316.5335   1413.22510     455.1465     316.5335
   1413.20984     452.8478     315.0413   1413.20984     452.8478     315.0413
   1413.19458     450.1467     314.0180   1413.19458     450.1467     314.0180
   1413.17932     447.7117     312.5733   1413.17932     447.7117     312.5733
   1413.16406     445.6142     311.1457   1413.16406     445.6142     311.1457
   1413.14880     442.4341     309.8449   1413.14880     442.4341     309.8449
   1413.13354     440.4760     309.2147   1413.13354     440.4760     309.2147
   1413.11829     437.6686     307.3844   1413.11829     437.6686     307.3844
   1413.10303     435.5570     305.9236   1413.10303     435.5570     305.9236
   1413.08777     432.9036     305.3313   1413.08777     432.9036     305.3313
   1413.07251     429.7387     303.7037   1413.07251     429.7387     303.7037
   1413.05725     427.9438     302.6535   1413.05725     427.9438     302.6535
   1413.04199     425.7461     301.5220   1413.04199     425.7461     301.5220
   1413.02673     423.9050     300.4815   1413.02673     423.9050     300.4815
   1413.01147     422.4252     299.2256   1413.01147     422.4252     299.2256
   1412.99622     419.9174     298.1765   1412.99622     419.9174     298.1765
   1412.98096     417.4524     297.1836   1412.98096     417.4524     297.1836
   1412.96570     416.0062     295.9566   1412.96570     416.0062     295.9566
   1412.95044     413.1486     295.2580   1412.95044     413.1486     295.2580
   1412.93518     410.5704     294.4628   1412.93518     410.5704     294.4628
   1412.91992     409.4967     293.1722   1412.91992     409.4967     293.1722
   1412.90466     406.6611     292.3373   1412.90466     406.6611     292.3373
   1412.88940     405.8000     291.1769   1412.88940     405.8000     291.1769
   1412.87415     403.9030     290.5728   1412.87415     403.9030     290.5728
   1412.85889     402.1644     289.8554   1412.85889     402.1644     289.8554
   1412.84363     400.4347     288.6606   1412.84363     400.4347     288.6606
   1412.82837     398.7322     287.7889   1412.82837     398.7322     287.7889
   1412.81311     396.4491     287.6064   1412.81311     396.4491     287.6064
   1412.79785     395.4333     287.1935   1412.79785     395.4333     287.1935
   1412.78259     394.0351     286.0922   1412.78259     394.0351     286.0922
   1412.76733     392.5843     285.5245   1412.76733     392.5843     285.5245
   1412.75208     391.3637     284.4019   1412.75208     391.3637     284.4019
   1412.73682     389.4170     284.4080   1412.73682     389.4170     284.4080
   1412.72156     388.0768     283.3712   1412.72156     388.0768     283.3712
   1412.70630     387.0292     282.9800   1412.70630     387.0292     282.9800
   1412.69104     386.0184     282.4759   1412.69104     386.0184     282.4759
   1412.67578     384.9547     282.0592   1412.67578     384.9547     282.0592
   1412.66052     383.4851     281.2363   1412.66052     383.4851     281.2363
   1412.64526     381.9576     280.8689   1412.64526     381.9576     280.8689
   1412.63000     380.6923     280.9302   1412.63000     380.6923     280.9302
   1412.61475     380.0518     280.7008   1412.61475     380.0518     280.7008
   1412.59949     379.0518     280.0067   1412.59949     379.0518     280.0067
   1412.58423     378.2683     279.7685   1412.58423     378.2683     279.7685
   1412.56897     377.2261     279.7482   1412.56897     377.2261     279.7482
   1412.55371     376.3988     279.4571   1412.55371     376.3988     279.4571
   1412.53845     376.1788     279.8283   1412.53845     376.1788     279.8283
   1412.52319     375.8930     279.6600   1412.52319     375.8930     279.6600
   1412.50793     375.4512     279.3737   1412.50793     375.4512     279.3737
   1412.49268     374.9156     278.9814   1412.49268     374.9156     278.9814
   1412.47742     374.1139     279.0005   1412.47742     374.1139     279.0005
   1412.46216     373.7878     279.5409   1412.46216     373.7878     279.5409
   1412.44690     373.0915     279.3013   1412.44690     373.0915     279.3013
   1412.43164     372.9909     279.5719   1412.43164     372.9909     279.5719
   1412.41638     373.3173     279.8254   1412.41638     373.3173     279.8254
   1412.40112     372.4788     279.8190   1412.40112     372.4788     279.8190
   1412.38586     371.7698     280.1591   1412.38586     371.7698     280.1591
   1412.37061     371.8562     280.2239   1412.37061     371.8562     280.2239
   1412.35535     372.2384     280.7396   1412.35535     372.2384     280.7396
   1412.34009     371.8955     280.9532   1412.34009     371.8955     280.9532
   1412.32483     371.9407     281.3748   1412.32483     371.9407     281.3748
   1412.30957     372.0255     282.0598   1412.30957     372.0255     282.0598
   1412.29431     372.1505     282.4203   1412.29431     372.1505     282.4203
   1412.27905     372.8208     282.7130   1412.27905     372.8208     282.7130
   1412.26379     372.5953     283.6139   1412.26379     372.5953     283.6139
   1412.24854     372.8059     284.3406   1412.24854     372.8059     284.3406
   1412.23328     373.5414     284.6653   1412.23328     373.5414     284.6653
   1412.21802     373.9054     285.4006   1412.21802     373.9054     285.4006
   1412.20276     374.4473     286.3604   1412.20276     374.4473     286.3604