#     FILENAME=!Skynet_57528_lach-cc-90_20541_20936.cyb.fits
#     BASENAME=Skynet_57528_lach-cc-90_20541_20936
#     SRC_NAME=lach-cc-90
#     OBSERVER=ccmadison16_9505
#     DATE_OBS=2016-05-20T16:21:31.430
#        OBSID=20541
#      SCANNUM=20936
#          MJD=57528.6827
#          UTC=58980
#     SCANTYPE=track
#     DATAMODE=HIRES
#     TUNEFREQ=1420.0000
# Actual_FREQ1=1420.0000
# Actual_FREQ2=1420.0000
#    LO1Tuning=6870.000
#     RFFILTER=1355_1435
#        OBSBW=-15.6250
#        NCHAN=1024 
#        FOCUS=37.0709
#           RA=21:11:58.22
#          DEC=48:19:45.77
#      RA(hrs)=21.199500
#     DEC(deg)=48.329400
#    AZIM(deg)=309.584
#    ELEV(deg)=29.844
#     IFattens=11.00, 9.00
#      WARNING=None
#    TCAL_XL1=7.9635
#    TCAL_YR1=9.1340
#    TCAL_XL2=7.9635
#    TCAL_YR2=9.1340
#     TRX_XL1=11.7060
#     TRX_YR1=11.7060
#     TRX_XL2=11.7060
#     TRX_YR2=11.7060
#        TAVE=1.0000
#Freq1(MHz)          XL1          YR1  Freq2(MHz)          XL2          YR2 

   1427.81250     377.9080     243.5621   1427.81250     377.9080     243.5621
   1427.79724     378.9501     243.8703   1427.79724     378.9501     243.8703
   1427.78198     378.9552     243.9574   1427.78198     378.9552     243.9574
   1427.76672     379.7536     245.1062   1427.76672     379.7536     245.1062
   1427.75146     380.9340     245.9470   1427.75146     380.9340     245.9470
   1427.73621     381.6638     246.1660   1427.73621     381.6638     246.1660
   1427.72095     382.9986     247.0027   1427.72095     382.9986     247.0027
   1427.70569     383.1354     247.6878   1427.70569     383.1354     247.6878
   1427.69043     384.6396     248.2284   1427.69043     384.6396     248.2284
   1427.67517     386.4128     248.7699   1427.67517     386.4128     248.7699
   1427.65991     387.1773     249.9172   1427.65991     387.1773     249.9172
   1427.64465     387.7879     250.8397   1427.64465     387.7879     250.8397
   1427.62939     389.4399     251.9552   1427.62939     389.4399     251.9552
   1427.61414     391.1195     252.5990   1427.61414     391.1195     252.5990
   1427.59888     392.1579     253.7729   1427.59888     392.1579     253.7729
   1427.58362     393.6901     254.8518   1427.58362     393.6901     254.8518
   1427.56836     395.3631     256.0090   1427.56836     395.3631     256.0090
   1427.55310     396.4378     257.0034   1427.55310     396.4378     257.0034
   1427.53784     397.5502     257.9032   1427.53784     397.5502     257.9032
   1427.52258     399.8081     259.0197   1427.52258     399.8081     259.0197
   1427.50732     401.1563     259.8046   1427.50732     401.1563     259.8046
   1427.49207     403.4553     261.7216   1427.49207     403.4553     261.7216
   1427.47681     404.7232     262.7145   1427.47681     404.7232     262.7145
   1427.46155     407.3152     264.0225   1427.46155     407.3152     264.0225
   1427.44629     408.9510     265.2321   1427.44629     408.9510     265.2321
   1427.43103     410.5193     266.6223   1427.43103     410.5193     266.6223
   1427.41577     412.6942     267.8090   1427.41577     412.6942     267.8090
   1427.40051     414.4881     269.0529   1427.40051     414.4881     269.0529
   1427.38525     416.6478     270.7934   1427.38525     416.6478     270.7934
   1427.37000     418.7621     271.7621   1427.37000     418.7621     271.7621
   1427.35474     420.9656     273.2899   1427.35474     420.9656     273.2899
   1427.33948     422.6562     275.3880   1427.33948     422.6562     275.3880
   1427.32422     425.0962     276.6360   1427.32422     425.0962     276.6360
   1427.30896     427.2812     277.9094   1427.30896     427.2812     277.9094
   1427.29370     429.3286     279.0288   1427.29370     429.3286     279.0288
   1427.27844     432.4904     281.5116   1427.27844     432.4904     281.5116
   1427.26318     435.1383     282.7327   1427.26318     435.1383     282.7327
   1427.24792     437.0650     284.0557   1427.24792     437.0650     284.0557
   1427.23267     439.4305     285.9182   1427.23267     439.4305     285.9182
   1427.21741     441.5938     287.5403   1427.21741     441.5938     287.5403
   1427.20215     443.7986     288.5737   1427.20215     443.7986     288.5737
   1427.18689     447.3184     291.3246   1427.18689     447.3184     291.3246
   1427.17163     449.2017     292.8810   1427.17163     449.2017     292.8810
   1427.15637     452.2454     294.8568   1427.15637     452.2454     294.8568
   1427.14111     454.2994     296.0711   1427.14111     454.2994     296.0711
   1427.12585     456.3725     297.8217   1427.12585     456.3725     297.8217
   1427.11060     459.9989     300.5695   1427.11060     459.9989     300.5695
   1427.09534     463.1066     301.6250   1427.09534     463.1066     301.6250
   1427.08008     465.6324     304.0838   1427.08008     465.6324     304.0838
   1427.06482     468.0121     305.7851   1427.06482     468.0121     305.7851
   1427.04956     470.8790     307.9163   1427.04956     470.8790     307.9163
   1427.03430     473.9029     309.3810   1427.03430     473.9029     309.3810
   1427.01904     476.6136     310.7914   1427.01904     476.6136     310.7914
   1427.00378     479.9832     313.2591   1427.00378     479.9832     313.2591
   1426.98853     483.2463     315.1041   1426.98853     483.2463     315.1041
   1426.97327     485.2341     317.5723   1426.97327     485.2341     317.5723
   1426.95801     488.0959     319.0882   1426.95801     488.0959     319.0882
   1426.94275     491.9312     320.7956   1426.94275     491.9312     320.7956
   1426.92749     494.9903     322.9070   1426.92749     494.9903     322.9070
   1426.91223     497.4191     324.4518   1426.91223     497.4191     324.4518
   1426.89697     500.4103     326.9480   1426.89697     500.4103     326.9480
   1426.88171     504.2789     329.2877   1426.88171     504.2789     329.2877
   1426.86646     506.3944     331.4608   1426.86646     506.3944     331.4608
   1426.85120     509.3658     333.4581   1426.85120     509.3658     333.4581
   1426.83594     513.1245     334.7394   1426.83594     513.1245     334.7394
   1426.82068     515.6204     337.6653   1426.82068     515.6204     337.6653
   1426.80542     519.5387     339.9029   1426.80542     519.5387     339.9029
   1426.79016     522.7620     341.6507   1426.79016     522.7620     341.6507
   1426.77490     525.4055     343.5413   1426.77490     525.4055     343.5413
   1426.75964     528.3361     345.9435   1426.75964     528.3361     345.9435
   1426.74438     531.8840     347.2628   1426.74438     531.8840     347.2628
   1426.72913     534.3160     349.9056   1426.72913     534.3160     349.9056
   1426.71387     537.8609     351.6845   1426.71387     537.8609     351.6845
   1426.69861     541.1043     354.5617   1426.69861     541.1043     354.5617
   1426.68335     543.8267     355.4399   1426.68335     543.8267     355.4399
   1426.66809     546.9275     358.4578   1426.66809     546.9275     358.4578
   1426.65283     550.2650     360.0573   1426.65283     550.2650     360.0573
   1426.63757     553.9271     362.3956   1426.63757     553.9271     362.3956
   1426.62231     556.5331     367.0992   1426.62231     556.5331     367.0992
   1426.60706     559.2911     367.1798   1426.60706     559.2911     367.1798
   1426.59180     562.6909     368.9348   1426.59180     562.6909     368.9348
   1426.57654     565.9344     370.0465   1426.57654     565.9344     370.0465
   1426.56128     569.4614     372.5475   1426.56128     569.4614     372.5475
   1426.54602     572.7475     374.5699   1426.54602     572.7475     374.5699
   1426.53076     575.8404     375.9868   1426.53076     575.8404     375.9868
   1426.51550     578.5538     378.4329   1426.51550     578.5538     378.4329
   1426.50024     581.2657     380.9435   1426.50024     581.2657     380.9435
   1426.48499     584.8273     382.9777   1426.48499     584.8273     382.9777
   1426.46973     588.1989     384.2380   1426.46973     588.1989     384.2380
   1426.45447     590.7920     386.6339   1426.45447     590.7920     386.6339
   1426.43921     593.8425     389.3016   1426.43921     593.8425     389.3016
   1426.42395     597.0778     390.4961   1426.42395     597.0778     390.4961
   1426.40869     599.5387     392.6190   1426.40869     599.5387     392.6190
   1426.39343     602.0889     394.4413   1426.39343     602.0889     394.4413
   1426.37817     605.2236     396.4849   1426.37817     605.2236     396.4849
   1426.36292     608.9831     399.2762   1426.36292     608.9831     399.2762
   1426.34766     611.7734     400.9049   1426.34766     611.7734     400.9049
   1426.33240     614.5602     402.2248   1426.33240     614.5602     402.2248
   1426.31714     616.6351     404.7641   1426.31714     616.6351     404.7641
   1426.30188     619.8552     406.4227   1426.30188     619.8552     406.4227
   1426.28662     622.7825     408.3227   1426.28662     622.7825     408.3227
   1426.27136     625.3055     409.8240   1426.27136     625.3055     409.8240
   1426.25610     628.5549     412.6318   1426.25610     628.5549     412.6318
   1426.24084     631.6503     414.1769   1426.24084     631.6503     414.1769
   1426.22559     634.6585     416.3599   1426.22559     634.6585     416.3599
   1426.21033     636.9255     417.7024   1426.21033     636.9255     417.7024
   1426.19507     639.7539     419.6236   1426.19507     639.7539     419.6236
   1426.17981     642.6708     421.8745   1426.17981     642.6708     421.8745
   1426.16455     645.1965     423.1295   1426.16455     645.1965     423.1295
   1426.14929     648.9213     425.3700   1426.14929     648.9213     425.3700
   1426.13403     651.1693     427.2690   1426.13403     651.1693     427.2690
   1426.11877     653.6064     428.1185   1426.11877     653.6064     428.1185
   1426.10352     656.8401     430.4576   1426.10352     656.8401     430.4576
   1426.08826     658.1118     432.7340   1426.08826     658.1118     432.7340
   1426.07300     661.4120     434.5744   1426.07300     661.4120     434.5744
   1426.05774     664.1025     436.0973   1426.05774     664.1025     436.0973
   1426.04248     666.0311     437.2794   1426.04248     666.0311     437.2794
   1426.02722     667.8254     439.0551   1426.02722     667.8254     439.0551
   1426.01196     670.5961     440.7171   1426.01196     670.5961     440.7171
   1425.99670     672.6889     442.4879   1425.99670     672.6889     442.4879
   1425.98145     677.0261     444.2616   1425.98145     677.0261     444.2616
   1425.96619     678.6614     444.9091   1425.96619     678.6614     444.9091
   1425.95093     681.5008     446.7475   1425.95093     681.5008     446.7475
   1425.93567     683.8116     448.5415   1425.93567     683.8116     448.5415
   1425.92041     684.5245     450.3413   1425.92041     684.5245     450.3413
   1425.90515     687.5569     451.8744   1425.90515     687.5569     451.8744
   1425.88989     690.6766     453.7050   1425.88989     690.6766     453.7050
   1425.87463     691.8548     455.3525   1425.87463     691.8548     455.3525
   1425.85938     694.1218     456.2465   1425.85938     694.1218     456.2465
   1425.84412     697.2980     458.8479   1425.84412     697.2980     458.8479
   1425.82886     697.7156     459.7672   1425.82886     697.7156     459.7672
   1425.81360     699.5459     461.6415   1425.81360     699.5459     461.6415
   1425.79834     703.0179     462.5111   1425.79834     703.0179     462.5111
   1425.78308     704.3445     463.9138   1425.78308     704.3445     463.9138
   1425.76782     707.3947     465.8965   1425.76782     707.3947     465.8965
   1425.75256     708.6039     466.8389   1425.75256     708.6039     466.8389
   1425.73730     710.4215     468.6138   1425.73730     710.4215     468.6138
   1425.72205     711.2457     470.8192   1425.72205     711.2457     470.8192
   1425.70679     713.6993     471.9498   1425.70679     713.6993     471.9498
   1425.69153     716.3379     472.3730   1425.69153     716.3379     472.3730
   1425.67627     716.6736     474.2598   1425.67627     716.6736     474.2598
   1425.66101     718.1279     475.9480   1425.66101     718.1279     475.9480
   1425.64575     722.0458     476.5777   1425.64575     722.0458     476.5777
   1425.63049     722.4879     478.5388   1425.63049     722.4879     478.5388
   1425.61523     723.6045     479.9247   1425.61523     723.6045     479.9247
   1425.59998     726.2595     481.1159   1425.59998     726.2595     481.1159
   1425.58472     727.3411     482.2852   1425.58472     727.3411     482.2852
   1425.56946     728.8110     483.5411   1425.56946     728.8110     483.5411
   1425.55420     730.1089     484.6375   1425.55420     730.1089     484.6375
   1425.53894     732.4986     485.6040   1425.53894     732.4986     485.6040
   1425.52368     733.1530     486.9395   1425.52368     733.1530     486.9395
   1425.50842     734.8407     488.7199   1425.50842     734.8407     488.7199
   1425.49316     737.1269     490.3902   1425.49316     737.1269     490.3902
   1425.47791     737.3597     490.4384   1425.47791     737.3597     490.4384
   1425.46265     739.5845     492.4100   1425.46265     739.5845     492.4100
   1425.44739     741.5128     493.1043   1425.44739     741.5128     493.1043
   1425.43213     741.2944     493.9949   1425.43213     741.2944     493.9949
   1425.41687     744.2949     496.2108   1425.41687     744.2949     496.2108
   1425.40161     744.2734     496.7675   1425.40161     744.2734     496.7675
   1425.38635     745.3281     498.4772   1425.38635     745.3281     498.4772
   1425.37109     746.4570     498.9226   1425.37109     746.4570     498.9226
   1425.35583     747.3417     499.4815   1425.35583     747.3417     499.4815
   1425.34058     748.4102     501.0165   1425.34058     748.4102     501.0165
   1425.32532     749.3959     502.4655   1425.32532     749.3959     502.4655
   1425.31006     750.6732     502.7520   1425.31006     750.6732     502.7520
   1425.29480     750.7396     503.7962   1425.29480     750.7396     503.7962
   1425.27954     753.4423     505.4259   1425.27954     753.4423     505.4259
   1425.26428     753.9980     506.9780   1425.26428     753.9980     506.9780
   1425.24902     754.0195     506.8166   1425.24902     754.0195     506.8166
   1425.23376     754.6747     508.4785   1425.23376     754.6747     508.4785
   1425.21851     756.0262     509.5648   1425.21851     756.0262     509.5648
   1425.20325     757.6646     510.6900   1425.20325     757.6646     510.6900
   1425.18799     758.0020     511.4274   1425.18799     758.0020     511.4274
   1425.17273     758.8782     511.9245   1425.17273     758.8782     511.9245
   1425.15747     759.2864     513.1661   1425.15747     759.2864     513.1661
   1425.14221     760.6108     514.3791   1425.14221     760.6108     514.3791
   1425.12695     760.9222     514.4446   1425.12695     760.9222     514.4446
   1425.11169     762.2695     516.2742   1425.11169     762.2695     516.2742
   1425.09644     763.0041     517.1381   1425.09644     763.0041     517.1381
   1425.08118     761.9377     517.4896   1425.08118     761.9377     517.4896
   1425.06592     764.1539     518.1847   1425.06592     764.1539     518.1847
   1425.05066     763.6540     519.0237   1425.05066     763.6540     519.0237
   1425.03540     764.2355     520.0683   1425.03540     764.2355     520.0683
   1425.02014     765.8228     520.7370   1425.02014     765.8228     520.7370
   1425.00488     765.5649     521.5847   1425.00488     765.5649     521.5847
   1424.98962     766.5768     522.8391   1424.98962     766.5768     522.8391
   1424.97437     767.0162     523.5997   1424.97437     767.0162     523.5997
   1424.95911     767.1437     524.5833   1424.95911     767.1437     524.5833
   1424.94385     767.7527     525.7160   1424.94385     767.7527     525.7160
   1424.92859     768.4836     525.6683   1424.92859     768.4836     525.6683
   1424.91333     767.3795     526.7941   1424.91333     767.3795     526.7941
   1424.89807     768.6559     528.2744   1424.89807     768.6559     528.2744
   1424.88281     768.8104     528.6163   1424.88281     768.8104     528.6163
   1424.86755     769.5168     528.4441   1424.86755     769.5168     528.4441
   1424.85229     769.4213     529.0684   1424.85229     769.4213     529.0684
   1424.83704     770.6532     530.4050   1424.83704     770.6532     530.4050
   1424.82178     768.9918     530.0977   1424.82178     768.9918     530.0977
   1424.80652     769.6122     531.1294   1424.80652     769.6122     531.1294
   1424.79126     769.8139     532.2363   1424.79126     769.8139     532.2363
   1424.77600     771.3884     532.8135   1424.77600     771.3884     532.8135
   1424.76074     771.6813     534.0190   1424.76074     771.6813     534.0190
   1424.74548     771.5253     535.2009   1424.74548     771.5253     535.2009
   1424.73022     772.6542     535.9471   1424.73022     772.6542     535.9471
   1424.71497     771.1353     535.4858   1424.71497     771.1353     535.4858
   1424.69971     771.8688     536.6087   1424.69971     771.8688     536.6087
   1424.68445     773.1747     537.4294   1424.68445     773.1747     537.4294
   1424.66919     771.7985     537.2420   1424.66919     771.7985     537.2420
   1424.65393     771.5103     538.8137   1424.65393     771.5103     538.8137
   1424.63867     770.8360     538.7537   1424.63867     770.8360     538.7537
   1424.62341     771.1092     538.9703   1424.62341     771.1092     538.9703
   1424.60815     773.3230     539.5887   1424.60815     773.3230     539.5887
   1424.59290     772.1152     540.3232   1424.59290     772.1152     540.3232
   1424.57764     771.9254     540.8214   1424.57764     771.9254     540.8214
   1424.56238     773.4433     541.1807   1424.56238     773.4433     541.1807
   1424.54712     771.2845     541.8114   1424.54712     771.2845     541.8114
   1424.53186     771.9662     543.2826   1424.53186     771.9662     543.2826
   1424.51660     772.5489     543.6536   1424.51660     772.5489     543.6536
   1424.50134     771.5131     543.7423   1424.50134     771.5131     543.7423
   1424.48608     773.8828     544.3443   1424.48608     773.8828     544.3443
   1424.47083     772.9440     544.4764   1424.47083     772.9440     544.4764
   1424.45557     771.6127     544.8255   1424.45557     771.6127     544.8255
   1424.44031     773.6193     545.6152   1424.44031     773.6193     545.6152
   1424.42505     771.8271     546.8781   1424.42505     771.8271     546.8781
   1424.40979     772.2938     546.5604   1424.40979     772.2938     546.5604
   1424.39453     771.9780     546.6329   1424.39453     771.9780     546.6329
   1424.37927     770.8477     547.7219   1424.37927     770.8477     547.7219
   1424.36401     771.0526     547.2406   1424.36401     771.0526     547.2406
   1424.34875     771.6346     548.7750   1424.34875     771.6346     548.7750
   1424.33350     771.4079     548.5101   1424.33350     771.4079     548.5101
   1424.31824     771.4147     548.5045   1424.31824     771.4147     548.5045
   1424.30298     770.7228     550.1746   1424.30298     770.7228     550.1746
   1424.28772     770.9545     549.7792   1424.28772     770.9545     549.7792
   1424.27246     770.2545     549.6719   1424.27246     770.2545     549.6719
   1424.25720     769.2008     550.6130   1424.25720     769.2008     550.6130
   1424.24194     769.0654     550.6597   1424.24194     769.0654     550.6597
   1424.22668     770.8240     550.7665   1424.22668     770.8240     550.7665
   1424.21143     770.6055     551.4496   1424.21143     770.6055     551.4496
   1424.19617     770.2307     552.1060   1424.19617     770.2307     552.1060
   1424.18091     768.2714     551.9207   1424.18091     768.2714     551.9207
   1424.16565     769.1361     552.5911   1424.16565     769.1361     552.5911
   1424.15039     768.8935     552.5645   1424.15039     768.8935     552.5645
   1424.13513     769.2119     552.6051   1424.13513     769.2119     552.6051
   1424.11987     769.0082     553.8551   1424.11987     769.0082     553.8551
   1424.10461     767.6748     553.6735   1424.10461     767.6748     553.6735
   1424.08936     769.7738     553.4214   1424.08936     769.7738     553.4214
   1424.07410     768.9464     554.3152   1424.07410     768.9464     554.3152
   1424.05884     767.5826     555.2224   1424.05884     767.5826     555.2224
   1424.04358     768.1476     555.4525   1424.04358     768.1476     555.4525
   1424.02832     767.6149     554.7318   1424.02832     767.6149     554.7318
   1424.01306     767.0397     555.6566   1424.01306     767.0397     555.6566
   1423.99780     766.1586     555.7012   1423.99780     766.1586     555.7012
   1423.98254     765.1348     556.0243   1423.98254     765.1348     556.0243
   1423.96729     767.3633     555.8195   1423.96729     767.3633     555.8195
   1423.95203     767.2933     555.2469   1423.95203     767.2933     555.2469
   1423.93677     765.9949     555.2800   1423.93677     765.9949     555.2800
   1423.92151     765.8133     556.8728   1423.92151     765.8133     556.8728
   1423.90625     767.0232     555.8366   1423.90625     767.0232     555.8366
   1423.89099     764.5891     556.1663   1423.89099     764.5891     556.1663
   1423.87573     765.0127     557.3102   1423.87573     765.0127     557.3102
   1423.86047     763.7334     557.0661   1423.86047     763.7334     557.0661
   1423.84521     764.8604     558.3766   1423.84521     764.8604     558.3766
   1423.82996     764.4568     557.5337   1423.82996     764.4568     557.5337
   1423.81470     763.8127     557.3055   1423.81470     763.8127     557.3055
   1423.79944     763.3892     557.1208   1423.79944     763.3892     557.1208
   1423.78418     764.5791     557.8253   1423.78418     764.5791     557.8253
   1423.76892     762.8018     557.3989   1423.76892     762.8018     557.3989
   1423.75366     763.4636     558.0852   1423.75366     763.4636     558.0852
   1423.73840     762.5563     558.2481   1423.73840     762.5563     558.2481
   1423.72314     761.6339     557.2169   1423.72314     761.6339     557.2169
   1423.70789     762.7126     557.8476   1423.70789     762.7126     557.8476
   1423.69263     762.0815     557.9412   1423.69263     762.0815     557.9412
   1423.67737     761.7341     557.9420   1423.67737     761.7341     557.9420
   1423.66211     761.6174     558.0527   1423.66211     761.6174     558.0527
   1423.64685     759.7005     558.0103   1423.64685     759.7005     558.0103
   1423.63159     761.2187     558.1572   1423.63159     761.2187     558.1572
   1423.61633     760.4449     557.7326   1423.61633     760.4449     557.7326
   1423.60107     759.5133     557.9136   1423.60107     759.5133     557.9136
   1423.58582     759.4733     557.6637   1423.58582     759.4733     557.6637
   1423.57056     758.7777     557.4323   1423.57056     758.7777     557.4323
   1423.55530     759.2307     557.5519   1423.55530     759.2307     557.5519
   1423.54004     760.6357     556.9250   1423.54004     760.6357     556.9250
   1423.52478     757.8630     557.0300   1423.52478     757.8630     557.0300
   1423.50952     758.2845     556.5207   1423.50952     758.2845     556.5207
   1423.49426     757.3337     556.5787   1423.49426     757.3337     556.5787
   1423.47900     757.7089     556.4219   1423.47900     757.7089     556.4219
   1423.46375     757.8295     556.4044   1423.46375     757.8295     556.4044
   1423.44849     757.4747     556.8687   1423.44849     757.4747     556.8687
   1423.43323     757.0331     555.5762   1423.43323     757.0331     555.5762
   1423.41797     755.7504     555.6608   1423.41797     755.7504     555.6608
   1423.40271     756.4815     555.8265   1423.40271     756.4815     555.8265
   1423.38745     756.1240     555.5208   1423.38745     756.1240     555.5208
   1423.37219     756.6152     555.7698   1423.37219     756.6152     555.7698
   1423.35693     756.2021     555.2814   1423.35693     756.2021     555.2814
   1423.34167     754.8507     554.9916   1423.34167     754.8507     554.9916
   1423.32642     755.1003     554.6071   1423.32642     755.1003     554.6071
   1423.31116     754.7214     554.0928   1423.31116     754.7214     554.0928
   1423.29590     753.5370     554.6572   1423.29590     753.5370     554.6572
   1423.28064     753.0274     553.7020   1423.28064     753.0274     553.7020
   1423.26538     754.3312     552.4937   1423.26538     754.3312     552.4937
   1423.25012     753.3140     553.1193   1423.25012     753.3140     553.1193
   1423.23486     752.8391     552.4985   1423.23486     752.8391     552.4985
   1423.21960     752.8694     551.2651   1423.21960     752.8694     551.2651
   1423.20435     753.2930     552.0918   1423.20435     753.2930     552.0918
   1423.18909     752.1288     551.3223   1423.18909     752.1288     551.3223
   1423.17383     753.0405     550.6880   1423.17383     753.0405     550.6880
   1423.15857     751.5401     550.5858   1423.15857     751.5401     550.5858
   1423.14331     751.0203     549.7985   1423.14331     751.0203     549.7985
   1423.12805     751.2451     549.0885   1423.12805     751.2451     549.0885
   1423.11279     750.0680     549.1780   1423.11279     750.0680     549.1780
   1423.09753     750.0987     548.6415   1423.09753     750.0987     548.6415
   1423.08228     750.4589     548.2678   1423.08228     750.4589     548.2678
   1423.06702     749.6680     548.1727   1423.06702     749.6680     548.1727
   1423.05176     749.9280     546.0455   1423.05176     749.9280     546.0455
   1423.03650     749.9319     546.4786   1423.03650     749.9319     546.4786
   1423.02124     749.5359     546.3339   1423.02124     749.5359     546.3339
   1423.00598     749.3174     545.3627   1423.00598     749.3174     545.3627
   1422.99072     748.7890     545.6395   1422.99072     748.7890     545.6395
   1422.97546     748.2935     544.3411   1422.97546     748.2935     544.3411
   1422.96021     748.2175     543.5436   1422.96021     748.2175     543.5436
   1422.94495     746.8850     543.0287   1422.94495     746.8850     543.0287
   1422.92969     746.2219     542.5298   1422.92969     746.2219     542.5298
   1422.91443     747.3141     542.2893   1422.91443     747.3141     542.2893
   1422.89917     747.0656     540.9407   1422.89917     747.0656     540.9407
   1422.88391     746.7205     540.2594   1422.88391     746.7205     540.2594
   1422.86865     745.4464     539.5367   1422.86865     745.4464     539.5367
   1422.85339     746.6766     539.8347   1422.85339     746.6766     539.8347
   1422.83813     746.0916     538.3148   1422.83813     746.0916     538.3148
   1422.82288     745.5145     538.3482   1422.82288     745.5145     538.3482
   1422.80762     745.3890     537.3672   1422.80762     745.3890     537.3672
   1422.79236     745.0710     537.2950   1422.79236     745.0710     537.2950
   1422.77710     744.5814     536.3105   1422.77710     744.5814     536.3105
   1422.76184     746.3487     535.5271   1422.76184     746.3487     535.5271
   1422.74658     744.3058     534.2800   1422.74658     744.3058     534.2800
   1422.73132     743.9284     533.5455   1422.73132     743.9284     533.5455
   1422.71606     744.4985     532.8300   1422.71606     744.4985     532.8300
   1422.70081     743.1660     532.1058   1422.70081     743.1660     532.1058
   1422.68555     743.0082     530.9387   1422.68555     743.0082     530.9387
   1422.67029     743.7163     530.3710   1422.67029     743.7163     530.3710
   1422.65503     742.4054     530.1736   1422.65503     742.4054     530.1736
   1422.63977     741.1993     528.4570   1422.63977     741.1993     528.4570
   1422.62451     743.1708     528.3342   1422.62451     743.1708     528.3342
   1422.60925     740.6694     527.3987   1422.60925     740.6694     527.3987
   1422.59399     741.0464     525.5637   1422.59399     741.0464     525.5637
   1422.57874     740.8005     525.9869   1422.57874     740.8005     525.9869
   1422.56348     741.3398     524.5172   1422.56348     741.3398     524.5172
   1422.54822     742.2895     523.9971   1422.54822     742.2895     523.9971
   1422.53296     740.0050     522.8930   1422.53296     740.0050     522.8930
   1422.51770     739.4360     521.2898   1422.51770     739.4360     521.2898
   1422.50244     739.9451     521.1203   1422.50244     739.9451     521.1203
   1422.48718     739.1717     519.9318   1422.48718     739.1717     519.9318
   1422.47192     740.6396     519.6945   1422.47192     740.6396     519.6945
   1422.45667     739.3102     518.7481   1422.45667     739.3102     518.7481
   1422.44141     739.2161     517.5017   1422.44141     739.2161     517.5017
   1422.42615     739.0613     516.1143   1422.42615     739.0613     516.1143
   1422.41089     738.3671     515.5382   1422.41089     738.3671     515.5382
   1422.39563     736.9484     514.4799   1422.39563     736.9484     514.4799
   1422.38037     738.1680     513.3810   1422.38037     738.1680     513.3810
   1422.36511     738.2882     513.4514   1422.36511     738.2882     513.4514
   1422.34985     739.1976     511.6813   1422.34985     739.1976     511.6813
   1422.33459     736.7487     510.6020   1422.33459     736.7487     510.6020
   1422.31934     737.1545     509.9200   1422.31934     737.1545     509.9200
   1422.30408     737.4933     508.8575   1422.30408     737.4933     508.8575
   1422.28882     737.1067     507.8091   1422.28882     737.1067     507.8091
   1422.27356     736.6414     506.5889   1422.27356     736.6414     506.5889
   1422.25830     736.4882     505.9605   1422.25830     736.4882     505.9605
   1422.24304     736.8405     505.1228   1422.24304     736.8405     505.1228
   1422.22778     734.9891     503.3659   1422.22778     734.9891     503.3659
   1422.21252     735.4511     502.4320   1422.21252     735.4511     502.4320
   1422.19727     735.7418     502.6167   1422.19727     735.7418     502.6167
   1422.18201     733.8016     501.1634   1422.18201     733.8016     501.1634
   1422.16675     735.0675     499.0882   1422.16675     735.0675     499.0882
   1422.15149     734.1357     498.1605   1422.15149     734.1357     498.1605
   1422.13623     735.3948     497.0197   1422.13623     735.3948     497.0197
   1422.12097     733.5280     495.7542   1422.12097     733.5280     495.7542
   1422.10571     734.2437     494.9279   1422.10571     734.2437     494.9279
   1422.09045     734.2087     494.9097   1422.09045     734.2087     494.9097
   1422.07520     734.1816     492.6446   1422.07520     734.1816     492.6446
   1422.05994     733.6874     492.2763   1422.05994     733.6874     492.2763
   1422.04468     733.7474     490.8704   1422.04468     733.7474     490.8704
   1422.02942     734.2658     489.7833   1422.02942     734.2658     489.7833
   1422.01416     733.6906     488.1486   1422.01416     733.6906     488.1486
   1421.99890     732.6293     487.7346   1421.99890     732.6293     487.7346
   1421.98364     732.7427     486.6163   1421.98364     732.7427     486.6163
   1421.96838     732.3662     485.2693   1421.96838     732.3662     485.2693
   1421.95312     732.4576     483.7680   1421.95312     732.4576     483.7680
   1421.93787     732.0787     483.1635   1421.93787     732.0787     483.1635
   1421.92261     731.5460     481.6146   1421.92261     731.5460     481.6146
   1421.90735     731.1262     480.0828   1421.90735     731.1262     480.0828
   1421.89209     730.5138     480.0077   1421.89209     730.5138     480.0077
   1421.87683     732.1445     478.5738   1421.87683     732.1445     478.5738
   1421.86157     730.0140     477.5230   1421.86157     730.0140     477.5230
   1421.84631     731.3464     476.4425   1421.84631     731.3464     476.4425
   1421.83105     729.3626     475.2571   1421.83105     729.3626     475.2571
   1421.81580     730.1263     474.3698   1421.81580     730.1263     474.3698
   1421.80054     730.0306     472.4122   1421.80054     730.0306     472.4122
   1421.78528     730.1516     471.8670   1421.78528     730.1516     471.8670
   1421.77002     729.5608     470.5435   1421.77002     729.5608     470.5435
   1421.75476     728.7986     469.3141   1421.75476     728.7986     469.3141
   1421.73950     728.9637     468.9154   1421.73950     728.9637     468.9154
   1421.72424     728.9881     466.8858   1421.72424     728.9881     466.8858
   1421.70898     728.9030     466.3009   1421.70898     728.9030     466.3009
   1421.69373     729.2847     465.9456   1421.69373     729.2847     465.9456
   1421.67847     727.9752     464.4221   1421.67847     727.9752     464.4221
   1421.66321     727.4529     462.4358   1421.66321     727.4529     462.4358
   1421.64795     728.5739     462.7218   1421.64795     728.5739     462.7218
   1421.63269     728.4612     461.0612   1421.63269     728.4612     461.0612
   1421.61743     728.0605     459.7178   1421.61743     728.0605     459.7178
   1421.60217     727.2802     458.4630   1421.60217     727.2802     458.4630
   1421.58691     726.9014     457.7825   1421.58691     726.9014     457.7825
   1421.57166     728.0079     455.6859   1421.57166     728.0079     455.6859
   1421.55640     727.8562     455.3869   1421.55640     727.8562     455.3869
   1421.54114     728.2585     454.3806   1421.54114     728.2585     454.3806
   1421.52588     727.5933     453.1978   1421.52588     727.5933     453.1978
   1421.51062     727.3102     451.8793   1421.51062     727.3102     451.8793
   1421.49536     726.7313     450.8459   1421.49536     726.7313     450.8459
   1421.48010     727.6881     449.3511   1421.48010     727.6881     449.3511
   1421.46484     727.4089     448.5864   1421.46484     727.4089     448.5864
   1421.44958     726.2891     447.2735   1421.44958     726.2891     447.2735
   1421.43433     726.5014     446.6494   1421.43433     726.5014     446.6494
   1421.41907     726.2660     445.0305   1421.41907     726.2660     445.0305
   1421.40381     725.5632     444.2832   1421.40381     725.5632     444.2832
   1421.38855     726.4915     443.8291   1421.38855     726.4915     443.8291
   1421.37329     725.8964     441.7567   1421.37329     725.8964     441.7567
   1421.35803     726.8985     441.2765   1421.35803     726.8985     441.2765
   1421.34277     725.4763     440.2075   1421.34277     725.4763     440.2075
   1421.32751     725.8390     439.4117   1421.32751     725.8390     439.4117
   1421.31226     725.8528     437.9436   1421.31226     725.8528     437.9436
   1421.29700     726.0461     437.4723   1421.29700     726.0461     437.4723
   1421.28174     725.8287     435.6842   1421.28174     725.8287     435.6842
   1421.26648     726.1977     435.1443   1421.26648     726.1977     435.1443
   1421.25122     726.0696     433.7541   1421.25122     726.0696     433.7541
   1421.23596     727.7932     433.9111   1421.23596     727.7932     433.9111
   1421.22070     727.9935     433.6042   1421.22070     727.9935     433.6042
   1421.20544     731.1388     433.2265   1421.20544     731.1388     433.2265
   1421.19019     731.9499     433.3821   1421.19019     731.9499     433.3821
   1421.17493     735.8660     434.4416   1421.17493     735.8660     434.4416
   1421.15967     740.5941     436.1749   1421.15967     740.5941     436.1749
   1421.14441     747.7133     439.2052   1421.14441     747.7133     439.2052
   1421.12915     757.6789     443.9128   1421.12915     757.6789     443.9128
   1421.11389     771.3551     449.9888   1421.11389     771.3551     449.9888
   1421.09863     788.1963     457.6735   1421.09863     788.1963     457.6735
   1421.08337     808.8546     470.3704   1421.08337     808.8546     470.3704
   1421.06812     838.1976     485.5148   1421.06812     838.1976     485.5148
   1421.05286     875.0787     504.5633   1421.05286     875.0787     504.5633
   1421.03760     908.1182     521.3669   1421.03760     908.1182     521.3669
   1421.02234     939.6620     538.9330   1421.02234     939.6620     538.9330
   1421.00708     980.7147     558.7509   1421.00708     980.7147     558.7509
   1420.99182    1028.9336     585.2119   1420.99182    1028.9336     585.2119
   1420.97656    1097.4786     620.7242   1420.97656    1097.4786     620.7242
   1420.96130    1143.5072     645.6544   1420.96130    1143.5072     645.6544
   1420.94604    1229.0819     692.5464   1420.94604    1229.0819     692.5464
   1420.93079    1341.2980     752.8606   1420.93079    1341.2980     752.8606
   1420.91553    1402.1748     782.0198   1420.91553    1402.1748     782.0198
   1420.90027    1411.1451     786.3111   1420.90027    1411.1451     786.3111
   1420.88501    1372.8250     763.2100   1420.88501    1372.8250     763.2100
   1420.86975    1282.1072     712.4278   1420.86975    1282.1072     712.4278
   1420.85449    1224.3098     681.7983   1420.85449    1224.3098     681.7983
   1420.83923    1261.3965     698.9828   1420.83923    1261.3965     698.9828
   1420.82397    1359.1519     750.3389   1420.82397    1359.1519     750.3389
   1420.80872    1514.3622     831.9733   1420.80872    1514.3622     831.9733
   1420.79346    1595.6525     873.1548   1420.79346    1595.6525     873.1548
   1420.77820    1713.1426     935.3593   1420.77820    1713.1426     935.3593
   1420.76294    1828.6329     992.4283   1420.76294    1828.6329     992.4283
   1420.74768    1821.5396     987.5316   1420.74768    1821.5396     987.5316
   1420.73242    1739.8466     943.8658   1420.73242    1739.8466     943.8658
   1420.71716    1629.2653     883.2539   1420.71716    1629.2653     883.2539
   1420.70190    1554.0330     839.4897   1420.70190    1554.0330     839.4897
   1420.68665    1576.4409     849.8951   1420.68665    1576.4409     849.8951
   1420.67139    1659.6361     891.4745   1420.67139    1659.6361     891.4745
   1420.65613    1689.9578     904.9455   1420.65613    1689.9578     904.9455
   1420.64087    1532.7599     820.2612   1420.64087    1532.7599     820.2612
   1420.62561    1407.0645     752.8871   1420.62561    1407.0645     752.8871
   1420.61035    1399.3350     748.0738   1420.61035    1399.3350     748.0738
   1420.59509    1484.1271     788.4410   1420.59509    1484.1271     788.4410
   1420.57983    1605.5359     850.2633   1420.57983    1605.5359     850.2633
   1420.56458    1716.0262     909.9658   1420.56458    1716.0262     909.9658
   1420.54932    1784.6699     941.3372   1420.54932    1784.6699     941.3372
   1420.53406    1938.2632    1018.8521   1420.53406    1938.2632    1018.8521
   1420.51880    1985.7109    1042.8845   1420.51880    1985.7109    1042.8845
   1420.50354    1686.5847     885.3522   1420.50354    1686.5847     885.3522
   1420.48828    1282.5903     673.9401   1420.48828    1282.5903     673.9401
   1420.47302     998.9891     527.8181   1420.47302     998.9891     527.8181
   1420.45776     850.5103     449.9928   1420.45776     850.5103     449.9928
   1420.44250     791.7394     419.1508   1420.44250     791.7394     419.1508
   1420.42725     765.9136     406.2500   1420.42725     765.9136     406.2500
   1420.41199     754.3487     399.1642   1420.41199     754.3487     399.1642
   1420.39673     746.9775     394.3270   1420.39673     746.9775     394.3270
   1420.38147     740.5778     391.7741   1420.38147     740.5778     391.7741
   1420.36621     737.4240     388.1334   1420.36621     737.4240     388.1334
   1420.35095     735.4098     385.9777   1420.35095     735.4098     385.9777
   1420.33569     733.8649     383.9885   1420.33569     733.8649     383.9885
   1420.32043     732.0632     383.0429   1420.32043     732.0632     383.0429
   1420.30518     731.1030     382.3289   1420.30518     731.1030     382.3289
   1420.28992     731.4883     380.8916   1420.28992     731.4883     380.8916
   1420.27466     729.6978     379.9052   1420.27466     729.6978     379.9052
   1420.25940     729.4104     379.4913   1420.25940     729.4104     379.4913
   1420.24414     729.1853     378.6906   1420.24414     729.1853     378.6906
   1420.22888     728.4866     377.7668   1420.22888     728.4866     377.7668
   1420.21362     727.6745     376.7031   1420.21362     727.6745     376.7031
   1420.19836     726.5591     375.4652   1420.19836     726.5591     375.4652
   1420.18311     725.0953     373.9003   1420.18311     725.0953     373.9003
   1420.16785     723.4265     371.8384   1420.16785     723.4265     371.8384
   1420.15259     723.2794     371.6400   1420.15259     723.2794     371.6400
   1420.13733     722.4186     370.4649   1420.13733     722.4186     370.4649
   1420.12207     722.2842     370.1934   1420.12207     722.2842     370.1934
   1420.10681     721.5189     368.9038   1420.10681     721.5189     368.9038
   1420.09155     720.6210     368.0960   1420.09155     720.6210     368.0960
   1420.07629     720.8635     366.9452   1420.07629     720.8635     366.9452
   1420.06104     720.6155     367.2068   1420.06104     720.6155     367.2068
   1420.04578     720.3054     366.0750   1420.04578     720.3054     366.0750
   1420.03052     718.9797     365.3198   1420.03052     718.9797     365.3198
   1420.01526     719.8132     366.1819   1420.01526     719.8132     366.1819
   1420.00000     720.7013     366.5414   1420.00000     720.7013     366.5414
   1419.98474     721.5895     366.9009   1419.98474     721.5895     366.9009
   1419.96948     722.5656     365.1552   1419.96948     722.5656     365.1552
   1419.95422     719.0400     362.9048   1419.95422     719.0400     362.9048
   1419.93896     719.1896     362.5306   1419.93896     719.1896     362.5306
   1419.92371     719.0912     361.8425   1419.92371     719.0912     361.8425
   1419.90845     720.0388     361.4124   1419.90845     720.0388     361.4124
   1419.89319     720.5779     361.5859   1419.89319     720.5779     361.5859
   1419.87793     721.8256     360.7899   1419.87793     721.8256     360.7899
   1419.86267     720.0329     360.3020   1419.86267     720.0329     360.3020
   1419.84741     720.7715     359.9987   1419.84741     720.7715     359.9987
   1419.83215     720.4380     359.4733   1419.83215     720.4380     359.4733
   1419.81689     721.1143     359.0532   1419.81689     721.1143     359.0532
   1419.80164     722.4482     358.8475   1419.80164     722.4482     358.8475
   1419.78638     721.5711     358.9970   1419.78638     721.5711     358.9970
   1419.77112     722.1602     358.3508   1419.77112     722.1602     358.3508
   1419.75586     721.3783     358.0448   1419.75586     721.3783     358.0448
   1419.74060     722.4568     357.7928   1419.74060     722.4568     357.7928
   1419.72534     723.5809     357.2964   1419.72534     723.5809     357.2964
   1419.71008     723.1201     357.1841   1419.71008     723.1201     357.1841
   1419.69482     724.0539     357.0009   1419.69482     724.0539     357.0009
   1419.67957     723.7836     357.1646   1419.67957     723.7836     357.1646
   1419.66431     723.8435     356.8025   1419.66431     723.8435     356.8025
   1419.64905     723.3771     355.9975   1419.64905     723.3771     355.9975
   1419.63379     725.1296     355.7112   1419.63379     725.1296     355.7112
   1419.61853     724.3444     355.7546   1419.61853     724.3444     355.7546
   1419.60327     725.8784     355.3385   1419.60327     725.8784     355.3385
   1419.58801     726.1135     355.5815   1419.58801     726.1135     355.5815
   1419.57275     725.8435     354.7933   1419.57275     725.8435     354.7933
   1419.55750     726.7915     355.1394   1419.55750     726.7915     355.1394
   1419.54224     725.9637     355.4240   1419.54224     725.9637     355.4240
   1419.52698     727.4777     354.6847   1419.52698     727.4777     354.6847
   1419.51172     727.3442     354.7264   1419.51172     727.3442     354.7264
   1419.49646     728.0539     354.7112   1419.49646     728.0539     354.7112
   1419.48120     728.4572     354.4235   1419.48120     728.4572     354.4235
   1419.46594     728.0576     354.2118   1419.46594     728.0576     354.2118
   1419.45068     729.5435     354.0385   1419.45068     729.5435     354.0385
   1419.43542     728.7851     353.9203   1419.43542     728.7851     353.9203
   1419.42017     729.1544     353.9991   1419.42017     729.1544     353.9991
   1419.40491     728.9905     354.1500   1419.40491     728.9905     354.1500
   1419.38965     729.7195     353.4172   1419.38965     729.7195     353.4172
   1419.37439     730.0802     353.5445   1419.37439     730.0802     353.5445
   1419.35913     732.7531     353.2230   1419.35913     732.7531     353.2230
   1419.34387     731.3958     353.8865   1419.34387     731.3958     353.8865
   1419.32861     732.0273     353.0191   1419.32861     732.0273     353.0191
   1419.31335     733.1102     353.2545   1419.31335     733.1102     353.2545
   1419.29810     732.0784     353.6335   1419.29810     732.0784     353.6335
   1419.28284     732.4410     352.9606   1419.28284     732.4410     352.9606
   1419.26758     734.0596     352.8734   1419.26758     734.0596     352.8734
   1419.25232     734.3902     353.0875   1419.25232     734.3902     353.0875
   1419.23706     735.2451     353.0993   1419.23706     735.2451     353.0993
   1419.22180     734.6488     353.5698   1419.22180     734.6488     353.5698
   1419.20654     735.0298     353.2944   1419.20654     735.0298     353.2944
   1419.19128     734.8823     353.4497   1419.19128     734.8823     353.4497
   1419.17603     735.8770     353.0423   1419.17603     735.8770     353.0423
   1419.16077     736.8004     353.7769   1419.16077     736.8004     353.7769
   1419.14551     737.1513     353.7326   1419.14551     737.1513     353.7326
   1419.13025     737.8121     353.5184   1419.13025     737.8121     353.5184
   1419.11499     738.1985     354.0797   1419.11499     738.1985     354.0797
   1419.09973     738.3442     353.9894   1419.09973     738.3442     353.9894
   1419.08447     738.7245     353.8076   1419.08447     738.7245     353.8076
   1419.06921     739.0267     354.0380   1419.06921     739.0267     354.0380
   1419.05396     740.0009     353.3799   1419.05396     740.0009     353.3799
   1419.03870     740.7473     353.8923   1419.03870     740.7473     353.8923
   1419.02344     741.6219     354.4778   1419.02344     741.6219     354.4778
   1419.00818     741.5368     354.1438   1419.00818     741.5368     354.1438
   1418.99292     741.4733     353.9883   1418.99292     741.4733     353.9883
   1418.97766     742.0084     354.6119   1418.97766     742.0084     354.6119
   1418.96240     743.4474     354.8779   1418.96240     743.4474     354.8779
   1418.94714     744.1863     355.1371   1418.94714     744.1863     355.1371
   1418.93188     744.0684     355.1674   1418.93188     744.0684     355.1674
   1418.91663     743.8668     355.1389   1418.91663     743.8668     355.1389
   1418.90137     744.7062     355.6214   1418.90137     744.7062     355.6214
   1418.88611     745.4030     355.8550   1418.88611     745.4030     355.8550
   1418.87085     746.6691     356.2074   1418.87085     746.6691     356.2074
   1418.85559     746.8959     356.0076   1418.85559     746.8959     356.0076
   1418.84033     748.0300     356.0397   1418.84033     748.0300     356.0397
   1418.82507     748.5039     356.6228   1418.82507     748.5039     356.6228
   1418.80981     749.4828     357.1937   1418.80981     749.4828     357.1937
   1418.79456     748.9745     357.0424   1418.79456     748.9745     357.0424
   1418.77930     751.0267     357.6932   1418.77930     751.0267     357.6932
   1418.76404     751.2381     357.5151   1418.76404     751.2381     357.5151
   1418.74878     751.4590     357.9677   1418.74878     751.4590     357.9677
   1418.73352     751.4615     358.0887   1418.73352     751.4615     358.0887
   1418.71826     753.4951     358.8682   1418.71826     753.4951     358.8682
   1418.70300     752.8574     358.6632   1418.70300     752.8574     358.6632
   1418.68774     754.3633     359.7117   1418.68774     754.3633     359.7117
   1418.67249     753.2167     359.4984   1418.67249     753.2167     359.4984
   1418.65723     755.1595     359.9495   1418.65723     755.1595     359.9495
   1418.64197     756.0004     360.5193   1418.64197     756.0004     360.5193
   1418.62671     756.0323     360.7787   1418.62671     756.0323     360.7787
   1418.61145     756.7681     360.4611   1418.61145     756.7681     360.4611
   1418.59619     757.7344     361.0559   1418.59619     757.7344     361.0559
   1418.58093     757.5179     361.0381   1418.58093     757.5179     361.0381
   1418.56567     758.8096     361.7534   1418.56567     758.8096     361.7534
   1418.55042     759.2179     362.2905   1418.55042     759.2179     362.2905
   1418.53516     761.8273     361.6494   1418.53516     761.8273     361.6494
   1418.51990     760.4219     363.0550   1418.51990     760.4219     363.0550
   1418.50464     761.4834     363.1905   1418.50464     761.4834     363.1905
   1418.48938     763.3917     363.5805   1418.48938     763.3917     363.5805
   1418.47412     763.0074     363.9134   1418.47412     763.0074     363.9134
   1418.45886     765.2095     363.7674   1418.45886     765.2095     363.7674
   1418.44360     766.2396     364.8120   1418.44360     766.2396     364.8120
   1418.42834     764.9241     365.2395   1418.42834     764.9241     365.2395
   1418.41309     766.3376     365.7550   1418.41309     766.3376     365.7550
   1418.39783     767.2773     365.7017   1418.39783     767.2773     365.7017
   1418.38257     768.3351     366.1137   1418.38257     768.3351     366.1137
   1418.36731     769.7942     366.7723   1418.36731     769.7942     366.7723
   1418.35205     770.3132     367.0287   1418.35205     770.3132     367.0287
   1418.33679     770.9509     367.5050   1418.33679     770.9509     367.5050
   1418.32153     770.8975     367.7261   1418.32153     770.8975     367.7261
   1418.30627     771.9015     368.2914   1418.30627     771.9015     368.2914
   1418.29102     774.2062     369.4925   1418.29102     774.2062     369.4925
   1418.27576     773.8344     369.7212   1418.27576     773.8344     369.7212
   1418.26050     773.4630     369.7136   1418.26050     773.4630     369.7136
   1418.24524     776.0458     370.3082   1418.24524     776.0458     370.3082
   1418.22998     775.5101     371.1833   1418.22998     775.5101     371.1833
   1418.21472     777.0319     371.4315   1418.21472     777.0319     371.4315
   1418.19946     777.9604     371.6284   1418.19946     777.9604     371.6284
   1418.18420     779.1509     372.2899   1418.18420     779.1509     372.2899
   1418.16895     778.5511     372.4688   1418.16895     778.5511     372.4688
   1418.15369     780.6802     373.7318   1418.15369     780.6802     373.7318
   1418.13843     781.1707     373.4755   1418.13843     781.1707     373.4755
   1418.12317     782.9988     373.4930   1418.12317     782.9988     373.4930
   1418.10791     783.0898     374.9851   1418.10791     783.0898     374.9851
   1418.09265     783.1749     374.9171   1418.09265     783.1749     374.9171
   1418.07739     784.6454     375.8663   1418.07739     784.6454     375.8663
   1418.06213     786.5251     376.2158   1418.06213     786.5251     376.2158
   1418.04688     786.3789     376.9885   1418.04688     786.3789     376.9885
   1418.03162     788.5406     376.9218   1418.03162     788.5406     376.9218
   1418.01636     789.5022     377.8119   1418.01636     789.5022     377.8119
   1418.00110     788.5142     378.4741   1418.00110     788.5142     378.4741
   1417.98584     790.8021     378.6773   1417.98584     790.8021     378.6773
   1417.97058     791.3101     379.2278   1417.97058     791.3101     379.2278
   1417.95532     792.0726     380.0277   1417.95532     792.0726     380.0277
   1417.94006     793.6409     380.2582   1417.94006     793.6409     380.2582
   1417.92480     793.8656     380.9764   1417.92480     793.8656     380.9764
   1417.90955     795.9423     381.1499   1417.90955     795.9423     381.1499
   1417.89429     796.5729     381.6006   1417.89429     796.5729     381.6006
   1417.87903     797.2397     382.6200   1417.87903     797.2397     382.6200
   1417.86377     799.0927     382.8670   1417.86377     799.0927     382.8670
   1417.84851     799.4871     384.1320   1417.84851     799.4871     384.1320
   1417.83325     799.5442     383.7760   1417.83325     799.5442     383.7760
   1417.81799     799.5706     384.8930   1417.81799     799.5706     384.8930
   1417.80273     802.2026     385.8374   1417.80273     802.2026     385.8374
   1417.78748     802.9013     386.4489   1417.78748     802.9013     386.4489
   1417.77222     802.6273     386.6341   1417.77222     802.6273     386.6341
   1417.75696     805.7837     386.7614   1417.75696     805.7837     386.7614
   1417.74170     805.6005     387.4160   1417.74170     805.6005     387.4160
   1417.72644     807.6774     388.3915   1417.72644     807.6774     388.3915
   1417.71118     808.0140     388.9457   1417.71118     808.0140     388.9457
   1417.69592     807.9289     388.9924   1417.69592     807.9289     388.9924
   1417.68066     810.6752     389.8241   1417.68066     810.6752     389.8241
   1417.66541     811.1641     391.1224   1417.66541     811.1641     391.1224
   1417.65015     812.9601     391.7265   1417.65015     812.9601     391.7265
   1417.63489     812.9169     391.4430   1417.63489     812.9169     391.4430
   1417.61963     814.4421     392.5558   1417.61963     814.4421     392.5558
   1417.60437     814.9605     393.0739   1417.60437     814.9605     393.0739
   1417.58911     816.7085     393.4599   1417.58911     816.7085     393.4599
   1417.57385     817.2697     394.0213   1417.57385     817.2697     394.0213
   1417.55859     819.2949     394.3586   1417.55859     819.2949     394.3586
   1417.54333     819.0038     394.8728   1417.54333     819.0038     394.8728
   1417.52808     820.8784     395.6042   1417.52808     820.8784     395.6042
   1417.51282     820.1077     395.9985   1417.51282     820.1077     395.9985
   1417.49756     823.1690     396.6788   1417.49756     823.1690     396.6788
   1417.48230     823.1160     397.1353   1417.48230     823.1160     397.1353
   1417.46704     823.8105     398.6451   1417.46704     823.8105     398.6451
   1417.45178     823.8621     398.8406   1417.45178     823.8621     398.8406
   1417.43652     827.1345     399.2620   1417.43652     827.1345     399.2620
   1417.42126     826.7989     399.7988   1417.42126     826.7989     399.7988
   1417.40601     828.5049     400.3703   1417.40601     828.5049     400.3703
   1417.39075     830.3698     401.0469   1417.39075     830.3698     401.0469
   1417.37549     829.8929     401.8832   1417.37549     829.8929     401.8832
   1417.36023     831.7819     402.3815   1417.36023     831.7819     402.3815
   1417.34497     830.7600     402.6563   1417.34497     830.7600     402.6563
   1417.32971     833.9266     403.4098   1417.32971     833.9266     403.4098
   1417.31445     833.3742     403.9540   1417.31445     833.3742     403.9540
   1417.29919     835.1105     404.5276   1417.29919     835.1105     404.5276
   1417.28394     835.1027     404.3334   1417.28394     835.1027     404.3334
   1417.26868     836.2900     405.3323   1417.26868     836.2900     405.3323
   1417.25342     838.4307     406.2338   1417.25342     838.4307     406.2338
   1417.23816     837.7401     406.3369   1417.23816     837.7401     406.3369
   1417.22290     839.7682     407.5208   1417.22290     839.7682     407.5208
   1417.20764     841.5374     407.8969   1417.20764     841.5374     407.8969
   1417.19238     841.5337     408.3780   1417.19238     841.5337     408.3780
   1417.17712     842.1951     408.7843   1417.17712     842.1951     408.7843
   1417.16187     842.4172     409.5478   1417.16187     842.4172     409.5478
   1417.14661     844.3203     409.9609   1417.14661     844.3203     409.9609
   1417.13135     844.1503     409.7046   1417.13135     844.1503     409.7046
   1417.11609     846.6790     411.1686   1417.11609     846.6790     411.1686
   1417.10083     847.8729     411.9321   1417.10083     847.8729     411.9321
   1417.08557     846.8478     411.7971   1417.08557     846.8478     411.7971
   1417.07031     848.7061     412.2620   1417.07031     848.7061     412.2620
   1417.05505     849.3386     412.7862   1417.05505     849.3386     412.7862
   1417.03979     850.0507     412.9286   1417.03979     850.0507     412.9286
   1417.02454     849.9165     413.8912   1417.02454     849.9165     413.8912
   1417.00928     851.9131     414.4961   1417.00928     851.9131     414.4961
   1416.99402     852.0764     414.2277   1416.99402     852.0764     414.2277
   1416.97876     852.0788     414.6333   1416.97876     852.0788     414.6333
   1416.96350     854.5446     415.5984   1416.96350     854.5446     415.5984
   1416.94824     853.8770     415.9756   1416.94824     853.8770     415.9756
   1416.93298     856.6770     416.5119   1416.93298     856.6770     416.5119
   1416.91772     857.1088     416.3362   1416.91772     857.1088     416.3362
   1416.90247     857.2274     417.3047   1416.90247     857.2274     417.3047
   1416.88721     856.2774     418.0954   1416.88721     856.2774     418.0954
   1416.87195     858.3588     417.4948   1416.87195     858.3588     417.4948
   1416.85669     858.1724     418.4245   1416.85669     858.1724     418.4245
   1416.84143     859.2673     418.9178   1416.84143     859.2673     418.9178
   1416.82617     859.2294     419.7191   1416.82617     859.2294     419.7191
   1416.81091     858.7013     419.6421   1416.81091     858.7013     419.6421
   1416.79565     860.6431     419.8278   1416.79565     860.6431     419.8278
   1416.78040     861.7695     420.6505   1416.78040     861.7695     420.6505
   1416.76514     863.7227     420.3553   1416.76514     863.7227     420.3553
   1416.74988     862.2106     420.8023   1416.74988     862.2106     420.8023
   1416.73462     863.2259     421.6984   1416.73462     863.2259     421.6984
   1416.71936     863.9160     421.5202   1416.71936     863.9160     421.5202
   1416.70410     864.0986     421.4627   1416.70410     864.0986     421.4627
   1416.68884     865.1451     422.1149   1416.68884     865.1451     422.1149
   1416.67358     866.1007     422.4603   1416.67358     866.1007     422.4603
   1416.65833     866.3853     422.5125   1416.65833     866.3853     422.5125
   1416.64307     864.6079     422.4416   1416.64307     864.6079     422.4416
   1416.62781     865.5473     422.2368   1416.62781     865.5473     422.2368
   1416.61255     866.9264     423.1234   1416.61255     866.9264     423.1234
   1416.59729     867.3330     422.8340   1416.59729     867.3330     422.8340
   1416.58203     866.9955     423.5031   1416.58203     866.9955     423.5031
   1416.56677     867.6494     423.6426   1416.56677     867.6494     423.6426
   1416.55151     867.9301     423.7292   1416.55151     867.9301     423.7292
   1416.53625     868.0211     423.4832   1416.53625     868.0211     423.4832
   1416.52100     867.7064     424.0747   1416.52100     867.7064     424.0747
   1416.50574     867.4921     424.1980   1416.50574     867.4921     424.1980
   1416.49048     868.6650     424.9138   1416.49048     868.6650     424.9138
   1416.47522     868.0814     424.8895   1416.47522     868.0814     424.8895
   1416.45996     869.0654     424.7701   1416.45996     869.0654     424.7701
   1416.44470     868.4732     424.5496   1416.44470     868.4732     424.5496
   1416.42944     869.1683     424.1317   1416.42944     869.1683     424.1317
   1416.41418     870.8767     425.4061   1416.41418     870.8767     425.4061
   1416.39893     869.4733     423.9350   1416.39893     869.4733     423.9350
   1416.38367     869.0714     424.8397   1416.38367     869.0714     424.8397
   1416.36841     868.3174     424.8106   1416.36841     868.3174     424.8106
   1416.35315     869.3961     425.2937   1416.35315     869.3961     425.2937
   1416.33789     868.6552     424.0095   1416.33789     868.6552     424.0095
   1416.32263     870.8176     424.8739   1416.32263     870.8176     424.8739
   1416.30737     868.9611     424.7461   1416.30737     868.9611     424.7461
   1416.29211     869.1571     425.1727   1416.29211     869.1571     425.1727
   1416.27686     868.5865     425.1758   1416.27686     868.5865     425.1758
   1416.26160     867.7863     425.5914   1416.26160     867.7863     425.5914
   1416.24634     868.0968     425.1543   1416.24634     868.0968     425.1543
   1416.23108     868.5502     425.1537   1416.23108     868.5502     425.1537
   1416.21582     867.9998     424.8873   1416.21582     867.9998     424.8873
   1416.20056     867.6966     425.2437   1416.20056     867.6966     425.2437
   1416.18530     868.3281     424.4249   1416.18530     868.3281     424.4249
   1416.17004     866.9172     425.3307   1416.17004     866.9172     425.3307
   1416.15479     867.7434     424.6892   1416.15479     867.7434     424.6892
   1416.13953     868.3928     423.9245   1416.13953     868.3928     423.9245
   1416.12427     866.6274     423.9470   1416.12427     866.6274     423.9470
   1416.10901     865.5676     424.3849   1416.10901     865.5676     424.3849
   1416.09375     865.6982     424.0836   1416.09375     865.6982     424.0836
   1416.07849     865.5927     424.0364   1416.07849     865.5927     424.0364
   1416.06323     864.5396     424.1774   1416.06323     864.5396     424.1774
   1416.04797     866.3109     423.5373   1416.04797     866.3109     423.5373
   1416.03271     864.5561     423.4139   1416.03271     864.5561     423.4139
   1416.01746     863.8219     424.4170   1416.01746     863.8219     424.4170
   1416.00220     863.9024     423.5726   1416.00220     863.9024     423.5726
   1415.98694     863.9502     422.2690   1415.98694     863.9502     422.2690
   1415.97168     863.7975     423.6231   1415.97168     863.7975     423.6231
   1415.95642     862.9104     422.5719   1415.95642     862.9104     422.5719
   1415.94116     861.4752     422.5072   1415.94116     861.4752     422.5072
   1415.92590     862.0988     423.0898   1415.92590     862.0988     423.0898
   1415.91064     862.0458     422.7423   1415.91064     862.0458     422.7423
   1415.89539     862.1292     422.5581   1415.89539     862.1292     422.5581
   1415.88013     859.6363     422.4427   1415.88013     859.6363     422.4427
   1415.86487     859.9320     421.6202   1415.86487     859.9320     421.6202
   1415.84961     859.0748     421.0525   1415.84961     859.0748     421.0525
   1415.83435     858.7156     420.9944   1415.83435     858.7156     420.9944
   1415.81909     857.1326     421.6048   1415.81909     857.1326     421.6048
   1415.80383     856.7856     420.9902   1415.80383     856.7856     420.9902
   1415.78857     855.2943     420.6259   1415.78857     855.2943     420.6259
   1415.77332     855.5611     420.5667   1415.77332     855.5611     420.5667
   1415.75806     855.8404     419.6444   1415.75806     855.8404     419.6444
   1415.74280     852.8904     420.0085   1415.74280     852.8904     420.0085
   1415.72754     854.5165     420.1257   1415.72754     854.5165     420.1257
   1415.71228     852.5570     419.9716   1415.71228     852.5570     419.9716
   1415.69702     851.3450     419.0470   1415.69702     851.3450     419.0470
   1415.68176     849.7190     419.5653   1415.68176     849.7190     419.5653
   1415.66650     849.9634     419.3630   1415.66650     849.9634     419.3630
   1415.65125     849.5103     418.2903   1415.65125     849.5103     418.2903
   1415.63599     848.6669     418.6759   1415.63599     848.6669     418.6759
   1415.62073     849.0024     418.5248   1415.62073     849.0024     418.5248
   1415.60547     847.7880     418.4540   1415.60547     847.7880     418.4540
   1415.59021     846.6804     416.9576   1415.59021     846.6804     416.9576
   1415.57495     844.7812     417.2881   1415.57495     844.7812     417.2881
   1415.55969     844.6816     416.3627   1415.55969     844.6816     416.3627
   1415.54443     843.6439     417.8272   1415.54443     843.6439     417.8272
   1415.52917     842.4971     416.7058   1415.52917     842.4971     416.7058
   1415.51392     841.4911     416.7784   1415.51392     841.4911     416.7784
   1415.49866     840.6080     415.7372   1415.49866     840.6080     415.7372
   1415.48340     840.1194     416.1186   1415.48340     840.1194     416.1186
   1415.46814     839.2159     415.3787   1415.46814     839.2159     415.3787
   1415.45288     837.2963     415.3547   1415.45288     837.2963     415.3547
   1415.43762     836.5683     415.4283   1415.43762     836.5683     415.4283
   1415.42236     835.7617     414.3931   1415.42236     835.7617     414.3931
   1415.40710     834.3041     414.1157   1415.40710     834.3041     414.1157
   1415.39185     832.3282     413.6510   1415.39185     832.3282     413.6510
   1415.37659     833.0403     413.5493   1415.37659     833.0403     413.5493
   1415.36133     831.3517     413.0104   1415.36133     831.3517     413.0104
   1415.34607     829.2465     412.0306   1415.34607     829.2465     412.0306
   1415.33081     829.0524     412.2465   1415.33081     829.0524     412.2465
   1415.31555     826.8901     412.1485   1415.31555     826.8901     412.1485
   1415.30029     826.1992     411.9919   1415.30029     826.1992     411.9919
   1415.28503     824.3505     411.0073   1415.28503     824.3505     411.0073
   1415.26978     823.1889     410.6816   1415.26978     823.1889     410.6816
   1415.25452     822.5748     410.7116   1415.25452     822.5748     410.7116
   1415.23926     820.3548     409.8429   1415.23926     820.3548     409.8429
   1415.22400     818.7954     409.8673   1415.22400     818.7954     409.8673
   1415.20874     818.6589     409.6903   1415.20874     818.6589     409.6903
   1415.19348     815.7356     408.8064   1415.19348     815.7356     408.8064
   1415.17822     814.6785     408.6423   1415.17822     814.6785     408.6423
   1415.16296     813.5353     407.8988   1415.16296     813.5353     407.8988
   1415.14771     811.8596     407.9832   1415.14771     811.8596     407.9832
   1415.13245     810.0294     407.0589   1415.13245     810.0294     407.0589
   1415.11719     808.2741     406.9012   1415.11719     808.2741     406.9012
   1415.10193     806.9824     406.6173   1415.10193     806.9824     406.6173
   1415.08667     805.1747     405.2036   1415.08667     805.1747     405.2036
   1415.07141     803.8894     405.5941   1415.07141     803.8894     405.5941
   1415.05615     802.3532     404.4367   1415.05615     802.3532     404.4367
   1415.04089     800.5106     404.8905   1415.04089     800.5106     404.8905
   1415.02563     798.0042     404.4051   1415.02563     798.0042     404.4051
   1415.01038     795.7208     403.4800   1415.01038     795.7208     403.4800
   1414.99512     794.9825     403.4207   1414.99512     794.9825     403.4207
   1414.97986     791.6120     402.9700   1414.97986     791.6120     402.9700
   1414.96460     791.6860     401.9103   1414.96460     791.6860     401.9103
   1414.94934     788.9534     401.3460   1414.94934     788.9534     401.3460
   1414.93408     786.6094     401.2652   1414.93408     786.6094     401.2652
   1414.91882     785.9019     400.3504   1414.91882     785.9019     400.3504
   1414.90356     784.1611     399.9662   1414.90356     784.1611     399.9662
   1414.88831     781.4418     398.9377   1414.88831     781.4418     398.9377
   1414.87305     780.0132     398.9259   1414.87305     780.0132     398.9259
   1414.85779     777.9714     397.9635   1414.85779     777.9714     397.9635
   1414.84253     775.7839     397.2318   1414.84253     775.7839     397.2318
   1414.82727     773.5483     396.9980   1414.82727     773.5483     396.9980
   1414.81201     770.9417     395.9677   1414.81201     770.9417     395.9677
   1414.79675     768.7541     395.5136   1414.79675     768.7541     395.5136
   1414.78149     767.7831     395.0194   1414.78149     767.7831     395.0194
   1414.76624     764.9066     393.9979   1414.76624     764.9066     393.9979
   1414.75098     762.4614     393.1949   1414.75098     762.4614     393.1949
   1414.73572     760.4777     392.1690   1414.73572     760.4777     392.1690
   1414.72046     758.1108     392.1959   1414.72046     758.1108     392.1959
   1414.70520     754.6227     391.4291   1414.70520     754.6227     391.4291
   1414.68994     753.1498     390.6303   1414.68994     753.1498     390.6303
   1414.67468     750.7093     390.2935   1414.67468     750.7093     390.2935
   1414.65942     748.4854     389.2340   1414.65942     748.4854     389.2340
   1414.64417     746.9858     388.3894   1414.64417     746.9858     388.3894
   1414.62891     743.2529     387.3366   1414.62891     743.2529     387.3366
   1414.61365     741.2272     386.6499   1414.61365     741.2272     386.6499
   1414.59839     739.3037     386.0526   1414.59839     739.3037     386.0526
   1414.58313     737.8041     384.9986   1414.58313     737.8041     384.9986
   1414.56787     734.2559     384.2856   1414.56787     734.2559     384.2856
   1414.55261     731.5865     383.3945   1414.55261     731.5865     383.3945
   1414.53735     727.8004     383.1131   1414.53735     727.8004     383.1131
   1414.52209     725.9340     382.4934   1414.52209     725.9340     382.4934
   1414.50684     723.7332     381.2639   1414.50684     723.7332     381.2639
   1414.49158     720.4828     379.9363   1414.49158     720.4828     379.9363
   1414.47632     718.6641     380.2301   1414.47632     718.6641     380.2301
   1414.46106     716.1550     378.5197   1414.46106     716.1550     378.5197
   1414.44580     713.5356     377.4171   1414.44580     713.5356     377.4171
   1414.43054     709.3923     376.2178   1414.43054     709.3923     376.2178
   1414.41528     708.3199     375.6154   1414.41528     708.3199     375.6154
   1414.40002     704.5911     375.1909   1414.40002     704.5911     375.1909
   1414.38477     703.0743     373.7485   1414.38477     703.0743     373.7485
   1414.36951     698.4144     372.4348   1414.36951     698.4144     372.4348
   1414.35425     697.1957     372.3035   1414.35425     697.1957     372.3035
   1414.33899     693.2704     371.6226   1414.33899     693.2704     371.6226
   1414.32373     691.4110     370.0206   1414.32373     691.4110     370.0206
   1414.30847     687.9476     369.3302   1414.30847     687.9476     369.3302
   1414.29321     685.2330     367.9814   1414.29321     685.2330     367.9814
   1414.27795     681.8929     367.1596   1414.27795     681.8929     367.1596
   1414.26270     678.5327     366.1484   1414.26270     678.5327     366.1484
   1414.24744     675.3951     365.0686   1414.24744     675.3951     365.0686
   1414.23218     673.3936     364.1657   1414.23218     673.3936     364.1657
   1414.21692     670.3062     363.1161   1414.21692     670.3062     363.1161
   1414.20166     666.0834     362.0680   1414.20166     666.0834     362.0680
   1414.18640     663.7613     361.1959   1414.18640     663.7613     361.1959
   1414.17114     660.4870     359.7307   1414.17114     660.4870     359.7307
   1414.15588     657.8336     358.3102   1414.15588     657.8336     358.3102
   1414.14062     654.6380     358.0507   1414.14062     654.6380     358.0507
   1414.12537     651.4816     356.4695   1414.12537     651.4816     356.4695
   1414.11011     649.0927     355.2487   1414.11011     649.0927     355.2487
   1414.09485     645.9648     353.7987   1414.09485     645.9648     353.7987
   1414.07959     642.2266     353.2028   1414.07959     642.2266     353.2028
   1414.06433     639.1940     352.3086   1414.06433     639.1940     352.3086
   1414.04907     635.6387     350.3154   1414.04907     635.6387     350.3154
   1414.03381     633.8204     349.2298   1414.03381     633.8204     349.2298
   1414.01855     629.9349     348.4871   1414.01855     629.9349     348.4871
   1414.00330     653.7142     355.7859   1414.00330     653.7142     355.7859
   1413.98804     625.2163     346.3703   1413.98804     625.2163     346.3703
   1413.97278     620.2307     344.6143   1413.97278     620.2307     344.6143
   1413.95752     615.5279     343.0587   1413.95752     615.5279     343.0587
   1413.94226     613.9364     342.7652   1413.94226     613.9364     342.7652
   1413.92700     610.2068     340.7409   1413.92700     610.2068     340.7409
   1413.91174     606.6924     339.3233   1413.91174     606.6924     339.3233
   1413.89648     602.6884     338.6957   1413.89648     602.6884     338.6957
   1413.88123     601.0015     337.4865   1413.88123     601.0015     337.4865
   1413.86597     597.6455     335.8043   1413.86597     597.6455     335.8043
   1413.85071     593.6677     334.6550   1413.85071     593.6677     334.6550
   1413.83545     590.3841     333.3740   1413.83545     590.3841     333.3740
   1413.82019     586.4307     332.5197   1413.82019     586.4307     332.5197
   1413.80493     583.3532     330.9270   1413.80493     583.3532     330.9270
   1413.78967     580.5906     329.6846   1413.78967     580.5906     329.6846
   1413.77441     576.5007     328.1177   1413.77441     576.5007     328.1177
   1413.75916     574.0650     326.4620   1413.75916     574.0650     326.4620
   1413.74390     570.4178     325.2902   1413.74390     570.4178     325.2902
   1413.72864     567.2137     324.2673   1413.72864     567.2137     324.2673
   1413.71338     564.0160     322.7170   1413.71338     564.0160     322.7170
   1413.69812     561.2137     321.2183   1413.69812     561.2137     321.2183
   1413.68286     556.8676     320.3132   1413.68286     556.8676     320.3132
   1413.66760     553.7305     318.7180   1413.66760     553.7305     318.7180
   1413.65234     550.4908     317.9795   1413.65234     550.4908     317.9795
   1413.63708     546.0790     316.2329   1413.63708     546.0790     316.2329
   1413.62183     543.2333     314.1013   1413.62183     543.2333     314.1013
   1413.60657     540.5590     313.3264   1413.60657     540.5590     313.3264
   1413.59131     536.8343     312.0206   1413.59131     536.8343     312.0206
   1413.57605     534.1930     310.5479   1413.57605     534.1930     310.5479
   1413.56079     530.1779     308.8615   1413.56079     530.1779     308.8615
   1413.54553     527.9150     307.8166   1413.54553     527.9150     307.8166
   1413.53027     523.8937     306.5323   1413.53027     523.8937     306.5323
   1413.51501     521.8494     304.8453   1413.51501     521.8494     304.8453
   1413.49976     517.7708     304.2919   1413.49976     517.7708     304.2919
   1413.48450     514.6028     301.8434   1413.48450     514.6028     301.8434
   1413.46924     511.3334     301.3864   1413.46924     511.3334     301.3864
   1413.45398     507.3397     299.3312   1413.45398     507.3397     299.3312
   1413.43872     505.7108     299.0763   1413.43872     505.7108     299.0763
   1413.42346     502.0259     297.1297   1413.42346     502.0259     297.1297
   1413.40820     498.9900     296.2696   1413.40820     498.9900     296.2696
   1413.39294     496.0814     294.3717   1413.39294     496.0814     294.3717
   1413.37769     493.2176     293.4168   1413.37769     493.2176     293.4168
   1413.36243     490.4198     291.7698   1413.36243     490.4198     291.7698
   1413.34717     486.1007     290.4309   1413.34717     486.1007     290.4309
   1413.33191     484.3193     289.6929   1413.33191     484.3193     289.6929
   1413.31665     480.2437     288.4544   1413.31665     480.2437     288.4544
   1413.30139     476.9612     287.0475   1413.30139     476.9612     287.0475
   1413.28613     475.0789     285.2548   1413.28613     475.0789     285.2548
   1413.27087     472.7947     284.2495   1413.27087     472.7947     284.2495
   1413.25562     468.6404     282.8912   1413.25562     468.6404     282.8912
   1413.24036     466.0576     281.2778   1413.24036     466.0576     281.2778
   1413.22510     463.3634     280.3633   1413.22510     463.3634     280.3633
   1413.20984     459.7715     279.1712   1413.20984     459.7715     279.1712
   1413.19458     457.9893     277.7015   1413.19458     457.9893     277.7015
   1413.17932     454.8940     276.2934   1413.17932     454.8940     276.2934
   1413.16406     452.4359     275.3916   1413.16406     452.4359     275.3916
   1413.14880     449.5909     273.9279   1413.14880     449.5909     273.9279
   1413.13354     446.4584     272.8148   1413.13354     446.4584     272.8148
   1413.11829     444.5177     271.8466   1413.11829     444.5177     271.8466
   1413.10303     441.7179     270.4546   1413.10303     441.7179     270.4546
   1413.08777     439.2608     269.5455   1413.08777     439.2608     269.5455
   1413.07251     437.1104     267.7695   1413.07251     437.1104     267.7695
   1413.05725     434.5175     267.1638   1413.05725     434.5175     267.1638
   1413.04199     432.5657     265.9246   1413.04199     432.5657     265.9246
   1413.02673     429.6756     264.8431   1413.02673     429.6756     264.8431
   1413.01147     427.0582     263.8742   1413.01147     427.0582     263.8742
   1412.99622     425.2790     262.7509   1412.99622     425.2790     262.7509
   1412.98096     423.3602     261.8850   1412.98096     423.3602     261.8850
   1412.96570     420.7606     260.6962   1412.96570     420.7606     260.6962
   1412.95044     419.1074     259.1553   1412.95044     419.1074     259.1553
   1412.93518     416.3522     258.5042   1412.93518     416.3522     258.5042
   1412.91992     414.2284     257.6096   1412.91992     414.2284     257.6096
   1412.90466     412.0767     256.5894   1412.90466     412.0767     256.5894
   1412.88940     410.3866     255.4382   1412.88940     410.3866     255.4382
   1412.87415     408.7202     255.2664   1412.87415     408.7202     255.2664
   1412.85889     407.1565     254.1613   1412.85889     407.1565     254.1613
   1412.84363     404.3478     253.0413   1412.84363     404.3478     253.0413
   1412.82837     402.8322     251.8320   1412.82837     402.8322     251.8320
   1412.81311     401.5579     251.4038   1412.81311     401.5579     251.4038
   1412.79785     400.1465     250.3195   1412.79785     400.1465     250.3195
   1412.78259     397.5895     249.7479   1412.78259     397.5895     249.7479
   1412.76733     396.1958     248.9541   1412.76733     396.1958     248.9541
   1412.75208     395.3786     248.5581   1412.75208     395.3786     248.5581
   1412.73682     392.9040     247.6918   1412.73682     392.9040     247.6918
   1412.72156     391.8531     247.1200   1412.72156     391.8531     247.1200
   1412.70630     390.4167     246.6692   1412.70630     390.4167     246.6692
   1412.69104     389.2105     245.6165   1412.69104     389.2105     245.6165
   1412.67578     387.6292     245.2077   1412.67578     387.6292     245.2077
   1412.66052     386.2425     244.9149   1412.66052     386.2425     244.9149
   1412.64526     385.7365     243.9456   1412.64526     385.7365     243.9456
   1412.63000     384.7732     243.6066   1412.63000     384.7732     243.6066
   1412.61475     383.2632     242.9986   1412.61475     383.2632     242.9986
   1412.59949     382.2494     242.3399   1412.59949     382.2494     242.3399
   1412.58423     381.5728     242.2447   1412.58423     381.5728     242.2447
   1412.56897     380.6422     241.9005   1412.56897     380.6422     241.9005
   1412.55371     379.8285     241.6064   1412.55371     379.8285     241.6064
   1412.53845     378.9766     241.0958   1412.53845     378.9766     241.0958
   1412.52319     378.3804     241.3074   1412.52319     378.3804     241.3074
   1412.50793     378.1881     240.7168   1412.50793     378.1881     240.7168
   1412.49268     377.5031     240.4077   1412.49268     377.5031     240.4077
   1412.47742     376.5163     240.3812   1412.47742     376.5163     240.3812
   1412.46216     375.8077     240.1402   1412.46216     375.8077     240.1402
   1412.44690     376.1860     239.9514   1412.44690     376.1860     239.9514
   1412.43164     375.3910     240.4701   1412.43164     375.3910     240.4701
   1412.41638     375.3297     239.9616   1412.41638     375.3297     239.9616
   1412.40112     374.3946     239.9745   1412.40112     374.3946     239.9745
   1412.38586     375.2240     240.0122   1412.38586     375.2240     240.0122
   1412.37061     374.2420     240.1791   1412.37061     374.2420     240.1791
   1412.35535     375.0697     240.3557   1412.35535     375.0697     240.3557
   1412.34009     374.4823     240.1123   1412.34009     374.4823     240.1123
   1412.32483     374.8309     240.4655   1412.32483     374.8309     240.4655
   1412.30957     374.8714     240.5300   1412.30957     374.8714     240.5300
   1412.29431     375.2993     240.4550   1412.29431     375.2993     240.4550
   1412.27905     374.7700     241.3299   1412.27905     374.7700     241.3299
   1412.26379     376.0302     241.0068   1412.26379     376.0302     241.0068
   1412.24854     375.7533     241.5789   1412.24854     375.7533     241.5789
   1412.23328     376.5138     242.0164   1412.23328     376.5138     242.0164
   1412.21802     376.6273     242.4199   1412.21802     376.6273     242.4199
   1412.20276     377.4318     243.0811   1412.20276     377.4318     243.0811