#     FILENAME=!Skynet_57528_lach-hhg-178_20565_21001.cyb.fits
#     BASENAME=Skynet_57528_lach-hhg-178_20565_21001
#     SRC_NAME=lach-hhg-178
#     OBSERVER=hhgmadison16_9500
#     DATE_OBS=2016-05-20T18:36:06.750
#        OBSID=20565
#      SCANNUM=21001
#          MJD=57528.7761
#          UTC=67056
#     SCANTYPE=track
#     DATAMODE=HIRES
#     TUNEFREQ=1420.0000
# Actual_FREQ1=1420.0000
# Actual_FREQ2=1420.0000
#    LO1Tuning=6870.000
#     RFFILTER=1355_1435
#        OBSBW=-15.6250
#        NCHAN=1024 
#        FOCUS=37.0709
#           RA=05:40:44.02
#          DEC=30:38:15.87
#      RA(hrs)=5.678900
#     DEC(deg)=30.637700
#    AZIM(deg)=139.384
#    ELEV(deg)=80.012
#     IFattens=10.00, 9.00
#      WARNING=None
#    TCAL_XL1=7.9635
#    TCAL_YR1=9.1340
#    TCAL_XL2=7.9635
#    TCAL_YR2=9.1340
#     TRX_XL1=11.7060
#     TRX_YR1=11.7060
#     TRX_XL2=11.7060
#     TRX_YR2=11.7060
#        TAVE=1.0000
#Freq1(MHz)          XL1          YR1  Freq2(MHz)          XL2          YR2 

   1427.81250     378.8598     343.6452   1427.81250     378.8598     343.6452
   1427.79724     379.6507     344.7520   1427.79724     379.6507     344.7520
   1427.78198     380.7030     347.0749   1427.78198     380.7030     347.0749
   1427.76672     380.6093     348.8582   1427.76672     380.6093     348.8582
   1427.75146     381.4211     350.5637   1427.75146     381.4211     350.5637
   1427.73621     382.7669     352.1703   1427.73621     382.7669     352.1703
   1427.72095     383.9964     354.1582   1427.72095     383.9964     354.1582
   1427.70569     384.4871     355.9173   1427.70569     384.4871     355.9173
   1427.69043     385.7245     358.0850   1427.69043     385.7245     358.0850
   1427.67517     386.8491     359.9536   1427.67517     386.8491     359.9536
   1427.65991     388.2280     361.8971   1427.65991     388.2280     361.8971
   1427.64465     389.2501     364.1218   1427.64465     389.2501     364.1218
   1427.62939     390.0612     366.4899   1427.62939     390.0612     366.4899
   1427.61414     391.3441     368.8135   1427.61414     391.3441     368.8135
   1427.59888     393.2705     371.1708   1427.59888     393.2705     371.1708
   1427.58362     394.3548     373.0071   1427.58362     394.3548     373.0071
   1427.56836     395.8061     375.9510   1427.56836     395.8061     375.9510
   1427.55310     397.2806     377.5845   1427.55310     397.2806     377.5845
   1427.53784     398.6015     380.1958   1427.53784     398.6015     380.1958
   1427.52258     400.4171     382.9993   1427.52258     400.4171     382.9993
   1427.50732     402.0819     385.3460   1427.50732     402.0819     385.3460
   1427.49207     403.6870     387.9763   1427.49207     403.6870     387.9763
   1427.47681     405.4731     390.1003   1427.47681     405.4731     390.1003
   1427.46155     407.2737     392.8773   1427.46155     407.2737     392.8773
   1427.44629     408.2305     395.8065   1427.44629     408.2305     395.8065
   1427.43103     410.2441     398.2459   1427.43103     410.2441     398.2459
   1427.41577     412.6820     401.2339   1427.41577     412.6820     401.2339
   1427.40051     414.3177     404.0782   1427.40051     414.3177     404.0782
   1427.38525     416.5231     406.7419   1427.38525     416.5231     406.7419
   1427.37000     419.0767     409.3127   1427.37000     419.0767     409.3127
   1427.35474     420.0775     411.7939   1427.35474     420.0775     411.7939
   1427.33948     422.3232     414.6633   1427.33948     422.3232     414.6633
   1427.32422     425.1356     417.9919   1427.32422     425.1356     417.9919
   1427.30896     427.4143     420.1314   1427.30896     427.4143     420.1314
   1427.29370     429.4086     422.9042   1427.29370     429.4086     422.9042
   1427.27844     431.1176     426.1083   1427.27844     431.1176     426.1083
   1427.26318     433.6327     429.1435   1427.26318     433.6327     429.1435
   1427.24792     435.9387     431.6891   1427.24792     435.9387     431.6891
   1427.23267     438.5795     434.6691   1427.23267     438.5795     434.6691
   1427.21741     441.4937     437.6997   1427.21741     441.4937     437.6997
   1427.20215     443.8300     441.2298   1427.20215     443.8300     441.2298
   1427.18689     445.8185     444.1114   1427.18689     445.8185     444.1114
   1427.17163     448.3938     445.7164   1427.17163     448.3938     445.7164
   1427.15637     450.8640     449.2476   1427.15637     450.8640     449.2476
   1427.14111     453.4866     452.3046   1427.14111     453.4866     452.3046
   1427.12585     456.7833     456.0505   1427.12585     456.7833     456.0505
   1427.11060     458.1731     457.6382   1427.11060     458.1731     457.6382
   1427.09534     461.2500     461.3924   1427.09534     461.2500     461.3924
   1427.08008     464.5272     464.4322   1427.08008     464.5272     464.4322
   1427.06482     466.7737     466.9000   1427.06482     466.7737     466.9000
   1427.04956     469.8922     470.7158   1427.04956     469.8922     470.7158
   1427.03430     472.7068     473.5929   1427.03430     472.7068     473.5929
   1427.01904     474.7726     476.3500   1427.01904     474.7726     476.3500
   1427.00378     477.8207     479.1266   1427.00378     477.8207     479.1266
   1426.98853     480.5746     482.3306   1426.98853     480.5746     482.3306
   1426.97327     483.1351     484.6680   1426.97327     483.1351     484.6680
   1426.95801     486.1144     488.6972   1426.95801     486.1144     488.6972
   1426.94275     489.1471     489.9503   1426.94275     489.1471     489.9503
   1426.92749     492.5042     494.0251   1426.92749     492.5042     494.0251
   1426.91223     494.7231     496.3700   1426.91223     494.7231     496.3700
   1426.89697     498.5676     498.9017   1426.89697     498.5676     498.9017
   1426.88171     501.1060     502.2968   1426.88171     501.1060     502.2968
   1426.86646     503.4401     505.2879   1426.86646     503.4401     505.2879
   1426.85120     507.7112     507.1516   1426.85120     507.7112     507.1516
   1426.83594     510.8805     511.3181   1426.83594     510.8805     511.3181
   1426.82068     512.6971     513.6073   1426.82068     512.6971     513.6073
   1426.80542     516.8051     515.7750   1426.80542     516.8051     515.7750
   1426.79016     519.1874     518.4302   1426.79016     519.1874     518.4302
   1426.77490     522.3055     521.9766   1426.77490     522.3055     521.9766
   1426.75964     525.1339     525.0180   1426.75964     525.1339     525.0180
   1426.74438     528.5711     527.3199   1426.74438     528.5711     527.3199
   1426.72913     531.6984     530.1815   1426.72913     531.6984     530.1815
   1426.71387     535.5001     532.6521   1426.71387     535.5001     532.6521
   1426.69861     538.2328     535.1650   1426.69861     538.2328     535.1650
   1426.68335     541.7320     537.6885   1426.68335     541.7320     537.6885
   1426.66809     544.9794     539.8784   1426.66809     544.9794     539.8784
   1426.65283     547.1070     542.5565   1426.65283     547.1070     542.5565
   1426.63757     549.9720     544.8062   1426.63757     549.9720     544.8062
   1426.62231     555.0850     548.4685   1426.62231     555.0850     548.4685
   1426.60706     556.5187     549.9570   1426.60706     556.5187     549.9570
   1426.59180     559.5260     552.8742   1426.59180     559.5260     552.8742
   1426.57654     561.9905     554.3300   1426.57654     561.9905     554.3300
   1426.56128     565.2456     556.8705   1426.56128     565.2456     556.8705
   1426.54602     569.5287     559.9719   1426.54602     569.5287     559.9719
   1426.53076     572.8534     561.1945   1426.53076     572.8534     561.1945
   1426.51550     575.2968     563.8592   1426.51550     575.2968     563.8592
   1426.50024     578.5490     566.2274   1426.50024     578.5490     566.2274
   1426.48499     581.0285     568.7104   1426.48499     581.0285     568.7104
   1426.46973     584.6926     571.3240   1426.46973     584.6926     571.3240
   1426.45447     586.7070     572.9083   1426.45447     586.7070     572.9083
   1426.43921     590.6335     574.6265   1426.43921     590.6335     574.6265
   1426.42395     594.3965     577.0711   1426.42395     594.3965     577.0711
   1426.40869     595.7574     578.9930   1426.40869     595.7574     578.9930
   1426.39343     599.7991     582.0192   1426.39343     599.7991     582.0192
   1426.37817     602.8605     583.0248   1426.37817     602.8605     583.0248
   1426.36292     604.6514     585.0129   1426.36292     604.6514     585.0129
   1426.34766     608.4899     586.5630   1426.34766     608.4899     586.5630
   1426.33240     610.4474     588.9112   1426.33240     610.4474     588.9112
   1426.31714     614.1921     590.7676   1426.31714     614.1921     590.7676
   1426.30188     617.6129     592.9241   1426.30188     617.6129     592.9241
   1426.28662     619.6774     593.6891   1426.28662     619.6774     593.6891
   1426.27136     623.2815     595.8780   1426.27136     623.2815     595.8780
   1426.25610     625.9250     596.8315   1426.25610     625.9250     596.8315
   1426.24084     628.9219     599.1709   1426.24084     628.9219     599.1709
   1426.22559     631.5760     601.5843   1426.22559     631.5760     601.5843
   1426.21033     634.5181     602.1598   1426.21033     634.5181     602.1598
   1426.19507     636.5044     603.5618   1426.19507     636.5044     603.5618
   1426.17981     640.2660     606.6043   1426.17981     640.2660     606.6043
   1426.16455     643.3230     606.4231   1426.16455     643.3230     606.4231
   1426.14929     646.7661     608.0349   1426.14929     646.7661     608.0349
   1426.13403     647.9831     610.1552   1426.13403     647.9831     610.1552
   1426.11877     650.6733     611.2907   1426.11877     650.6733     611.2907
   1426.10352     652.9767     612.7957   1426.10352     652.9767     612.7957
   1426.08826     655.4305     614.3278   1426.08826     655.4305     614.3278
   1426.07300     658.1782     615.6449   1426.07300     658.1782     615.6449
   1426.05774     661.8208     616.3543   1426.05774     661.8208     616.3543
   1426.04248     663.3848     617.5144   1426.04248     663.3848     617.5144
   1426.02722     666.0808     618.6113   1426.02722     666.0808     618.6113
   1426.01196     668.9219     620.8581   1426.01196     668.9219     620.8581
   1425.99670     671.8181     621.4968   1425.99670     671.8181     621.4968
   1425.98145     673.3160     622.8268   1425.98145     673.3160     622.8268
   1425.96619     676.7326     623.4015   1425.96619     676.7326     623.4015
   1425.95093     678.6783     624.7886   1425.95093     678.6783     624.7886
   1425.93567     681.2955     626.4774   1425.93567     681.2955     626.4774
   1425.92041     683.6621     626.8359   1425.92041     683.6621     626.8359
   1425.90515     686.6043     627.8215   1425.90515     686.6043     627.8215
   1425.88989     688.3322     628.5723   1425.88989     688.3322     628.5723
   1425.87463     691.6735     629.9759   1425.87463     691.6735     629.9759
   1425.85938     692.3775     630.1877   1425.85938     692.3775     630.1877
   1425.84412     695.8557     631.7495   1425.84412     695.8557     631.7495
   1425.82886     696.1260     632.7148   1425.82886     696.1260     632.7148
   1425.81360     699.2946     632.3479   1425.81360     699.2946     632.3479
   1425.79834     701.1079     633.7817   1425.79834     701.1079     633.7817
   1425.78308     702.5059     635.3350   1425.78308     702.5059     635.3350
   1425.76782     705.8284     634.1127   1425.76782     705.8284     634.1127
   1425.75256     707.5364     635.1850   1425.75256     707.5364     635.1850
   1425.73730     709.6336     636.1024   1425.73730     709.6336     636.1024
   1425.72205     711.0286     637.6395   1425.72205     711.0286     637.6395
   1425.70679     712.6770     637.1089   1425.70679     712.6770     637.1089
   1425.69153     715.7534     638.0469   1425.69153     715.7534     638.0469
   1425.67627     715.1917     638.6592   1425.67627     715.1917     638.6592
   1425.66101     718.6434     638.6339   1425.66101     718.6434     638.6339
   1425.64575     720.8060     639.7723   1425.64575     720.8060     639.7723
   1425.63049     722.2648     641.5778   1425.63049     722.2648     641.5778
   1425.61523     724.3437     641.4147   1425.61523     724.3437     641.4147
   1425.59998     725.7583     641.2364   1425.59998     725.7583     641.2364
   1425.58472     727.7081     640.3051   1425.58472     727.7081     640.3051
   1425.56946     728.4461     641.6921   1425.56946     728.4461     641.6921
   1425.55420     730.2565     641.6511   1425.55420     730.2565     641.6511
   1425.53894     731.9283     643.1416   1425.53894     731.9283     643.1416
   1425.52368     734.4054     642.5746   1425.52368     734.4054     642.5746
   1425.50842     735.4719     643.1617   1425.50842     735.4719     643.1617
   1425.49316     736.7413     643.2944   1425.49316     736.7413     643.2944
   1425.47791     738.6373     643.4808   1425.47791     738.6373     643.4808
   1425.46265     739.6846     644.2168   1425.46265     739.6846     644.2168
   1425.44739     740.0785     644.0186   1425.44739     740.0785     644.0186
   1425.43213     741.7953     643.7814   1425.43213     741.7953     643.7814
   1425.41687     742.5023     645.2347   1425.41687     742.5023     645.2347
   1425.40161     742.5013     645.2463   1425.40161     742.5013     645.2463
   1425.38635     746.9359     644.2802   1425.38635     746.9359     644.2802
   1425.37109     746.9241     645.0169   1425.37109     746.9241     645.0169
   1425.35583     747.5901     644.1329   1425.35583     747.5901     644.1329
   1425.34058     749.4456     645.1663   1425.34058     749.4456     645.1663
   1425.32532     750.7800     644.5820   1425.32532     750.7800     644.5820
   1425.31006     751.5690     644.8572   1425.31006     751.5690     644.8572
   1425.29480     752.2844     644.5886   1425.29480     752.2844     644.5886
   1425.27954     752.9432     645.0135   1425.27954     752.9432     645.0135
   1425.26428     754.8134     644.2165   1425.26428     754.8134     644.2165
   1425.24902     754.3915     643.5383   1425.24902     754.3915     643.5383
   1425.23376     756.1758     645.4598   1425.23376     756.1758     645.4598
   1425.21851     756.5197     644.0222   1425.21851     756.5197     644.0222
   1425.20325     757.0515     645.5258   1425.20325     757.0515     645.5258
   1425.18799     759.5781     642.9634   1425.18799     759.5781     642.9634
   1425.17273     759.1949     644.9117   1425.17273     759.1949     644.9117
   1425.15747     759.0115     643.9044   1425.15747     759.0115     643.9044
   1425.14221     761.6250     644.0400   1425.14221     761.6250     644.0400
   1425.12695     761.7411     643.6922   1425.12695     761.7411     643.6922
   1425.11169     761.9166     642.8738   1425.11169     761.9166     642.8738
   1425.09644     762.8009     642.9269   1425.09644     762.8009     642.9269
   1425.08118     764.1602     643.2850   1425.08118     764.1602     643.2850
   1425.06592     763.3195     642.2025   1425.06592     763.3195     642.2025
   1425.05066     765.3801     643.1207   1425.05066     765.3801     643.1207
   1425.03540     765.0139     642.0692   1425.03540     765.0139     642.0692
   1425.02014     765.9044     641.7596   1425.02014     765.9044     641.7596
   1425.00488     767.2413     641.9253   1425.00488     767.2413     641.9253
   1424.98962     766.4492     641.9977   1424.98962     766.4492     641.9977
   1424.97437     767.3621     641.3907   1424.97437     767.3621     641.3907
   1424.95911     767.8235     641.1202   1424.95911     767.8235     641.1202
   1424.94385     768.2430     641.3785   1424.94385     768.2430     641.3785
   1424.92859     767.5730     639.9327   1424.92859     767.5730     639.9327
   1424.91333     770.2131     640.7993   1424.91333     770.2131     640.7993
   1424.89807     768.7647     639.6031   1424.89807     768.7647     639.6031
   1424.88281     769.8326     638.4731   1424.88281     769.8326     638.4731
   1424.86755     768.8937     638.6217   1424.86755     768.8937     638.6217
   1424.85229     769.0688     637.1937   1424.85229     769.0688     637.1937
   1424.83704     769.3220     637.7252   1424.83704     769.3220     637.7252
   1424.82178     770.4844     637.2582   1424.82178     770.4844     637.2582
   1424.80652     771.1193     637.2443   1424.80652     771.1193     637.2443
   1424.79126     769.6046     636.5081   1424.79126     769.6046     636.5081
   1424.77600     770.0175     635.5612   1424.77600     770.0175     635.5612
   1424.76074     770.0361     635.0250   1424.76074     770.0361     635.0250
   1424.74548     771.2476     634.4919   1424.74548     771.2476     634.4919
   1424.73022     770.8813     634.3039   1424.73022     770.8813     634.3039
   1424.71497     770.6692     633.6468   1424.71497     770.6692     633.6468
   1424.69971     769.9618     633.1245   1424.69971     769.9618     633.1245
   1424.68445     770.9813     633.5468   1424.68445     770.9813     633.5468
   1424.66919     769.8613     632.5195   1424.66919     769.8613     632.5195
   1424.65393     769.4874     631.6215   1424.65393     769.4874     631.6215
   1424.63867     770.8249     631.3555   1424.63867     770.8249     631.3555
   1424.62341     770.9191     631.5030   1424.62341     770.9191     631.5030
   1424.60815     768.9210     630.0333   1424.60815     768.9210     630.0333
   1424.59290     771.1594     630.0890   1424.59290     771.1594     630.0890
   1424.57764     771.1925     629.5649   1424.57764     771.1925     629.5649
   1424.56238     769.0557     628.6348   1424.56238     769.0557     628.6348
   1424.54712     768.7164     628.3270   1424.54712     768.7164     628.3270
   1424.53186     769.5173     627.6441   1424.53186     769.5173     627.6441
   1424.51660     769.8043     627.3526   1424.51660     769.8043     627.3526
   1424.50134     767.9136     625.6929   1424.50134     767.9136     625.6929
   1424.48608     769.2905     625.4849   1424.48608     769.2905     625.4849
   1424.47083     768.8873     625.4830   1424.47083     768.8873     625.4830
   1424.45557     767.8492     623.4875   1424.45557     767.8492     623.4875
   1424.44031     767.4371     624.2437   1424.44031     767.4371     624.2437
   1424.42505     767.8610     623.5015   1424.42505     767.8610     623.5015
   1424.40979     768.6053     624.1359   1424.40979     768.6053     624.1359
   1424.39453     767.4839     622.0660   1424.39453     767.4839     622.0660
   1424.37927     767.0897     620.8701   1424.37927     767.0897     620.8701
   1424.36401     766.5772     620.9869   1424.36401     766.5772     620.9869
   1424.34875     767.1649     620.2343   1424.34875     767.1649     620.2343
   1424.33350     766.4323     619.3690   1424.33350     766.4323     619.3690
   1424.31824     765.7025     618.8287   1424.31824     765.7025     618.8287
   1424.30298     764.8010     618.1852   1424.30298     764.8010     618.1852
   1424.28772     766.5947     617.9891   1424.28772     766.5947     617.9891
   1424.27246     764.8779     617.6378   1424.27246     764.8779     617.6378
   1424.25720     765.5691     616.3889   1424.25720     765.5691     616.3889
   1424.24194     766.1964     615.5779   1424.24194     766.1964     615.5779
   1424.22668     763.6899     615.1166   1424.22668     763.6899     615.1166
   1424.21143     763.2453     612.9727   1424.21143     763.2453     612.9727
   1424.19617     762.5475     614.5767   1424.19617     762.5475     614.5767
   1424.18091     761.9624     613.3897   1424.18091     761.9624     613.3897
   1424.16565     763.3862     612.4086   1424.16565     763.3862     612.4086
   1424.15039     762.8970     611.7703   1424.15039     762.8970     611.7703
   1424.13513     762.6439     610.7974   1424.13513     762.6439     610.7974
   1424.11987     762.7648     610.7208   1424.11987     762.7648     610.7208
   1424.10461     760.3911     608.9355   1424.10461     760.3911     608.9355
   1424.08936     759.7832     608.8521   1424.08936     759.7832     608.8521
   1424.07410     760.3832     607.8878   1424.07410     760.3832     607.8878
   1424.05884     760.6870     607.2531   1424.05884     760.6870     607.2531
   1424.04358     757.3848     606.9494   1424.04358     757.3848     606.9494
   1424.02832     759.2146     605.3351   1424.02832     759.2146     605.3351
   1424.01306     758.1273     605.3759   1424.01306     758.1273     605.3759
   1423.99780     758.8814     605.0848   1423.99780     758.8814     605.0848
   1423.98254     756.9164     604.6169   1423.98254     756.9164     604.6169
   1423.96729     757.0887     602.9288   1423.96729     757.0887     602.9288
   1423.95203     756.5735     603.1831   1423.95203     756.5735     603.1831
   1423.93677     755.4823     601.7362   1423.93677     755.4823     601.7362
   1423.92151     755.0486     601.2009   1423.92151     755.0486     601.2009
   1423.90625     755.9789     601.5062   1423.90625     755.9789     601.5062
   1423.89099     754.1604     600.7264   1423.89099     754.1604     600.7264
   1423.87573     754.4643     600.1304   1423.87573     754.4643     600.1304
   1423.86047     754.3062     598.9360   1423.86047     754.3062     598.9360
   1423.84521     754.3719     598.1440   1423.84521     754.3719     598.1440
   1423.82996     753.6813     597.5047   1423.82996     753.6813     597.5047
   1423.81470     753.1499     597.7689   1423.81470     753.1499     597.7689
   1423.79944     752.7955     597.0530   1423.79944     752.7955     597.0530
   1423.78418     752.0831     595.3400   1423.78418     752.0831     595.3400
   1423.76892     751.1074     595.7370   1423.76892     751.1074     595.7370
   1423.75366     749.7380     593.8001   1423.75366     749.7380     593.8001
   1423.73840     749.1755     593.4077   1423.73840     749.1755     593.4077
   1423.72314     749.4882     591.9916   1423.72314     749.4882     591.9916
   1423.70789     749.6278     592.1195   1423.70789     749.6278     592.1195
   1423.69263     749.3078     592.3582   1423.69263     749.3078     592.3582
   1423.67737     748.5192     589.8729   1423.67737     748.5192     589.8729
   1423.66211     749.3816     590.3708   1423.66211     749.3816     590.3708
   1423.64685     747.5087     588.9160   1423.64685     747.5087     588.9160
   1423.63159     747.4258     589.1155   1423.63159     747.4258     589.1155
   1423.61633     746.3256     587.3528   1423.61633     746.3256     587.3528
   1423.60107     746.6849     587.7512   1423.60107     746.6849     587.7512
   1423.58582     746.0715     586.9422   1423.58582     746.0715     586.9422
   1423.57056     745.2598     585.9700   1423.57056     745.2598     585.9700
   1423.55530     744.3450     585.5465   1423.55530     744.3450     585.5465
   1423.54004     744.1168     585.0646   1423.54004     744.1168     585.0646
   1423.52478     743.3458     583.8560   1423.52478     743.3458     583.8560
   1423.50952     743.8139     582.9099   1423.50952     743.8139     582.9099
   1423.49426     742.7718     583.0769   1423.49426     742.7718     583.0769
   1423.47900     743.3288     582.8687   1423.47900     743.3288     582.8687
   1423.46375     741.0193     581.2910   1423.46375     741.0193     581.2910
   1423.44849     741.6163     580.1425   1423.44849     741.6163     580.1425
   1423.43323     740.8784     580.1802   1423.43323     740.8784     580.1802
   1423.41797     740.6714     579.5048   1423.41797     740.6714     579.5048
   1423.40271     741.0718     577.6582   1423.40271     741.0718     577.6582
   1423.38745     740.7646     576.7550   1423.38745     740.7646     576.7550
   1423.37219     739.2078     577.4910   1423.37219     739.2078     577.4910
   1423.35693     738.9186     576.4391   1423.35693     738.9186     576.4391
   1423.34167     738.4045     575.5845   1423.34167     738.4045     575.5845
   1423.32642     738.8959     575.2399   1423.32642     738.8959     575.2399
   1423.31116     739.4500     574.4273   1423.31116     739.4500     574.4273
   1423.29590     739.2208     573.1476   1423.29590     739.2208     573.1476
   1423.28064     737.1755     573.3723   1423.28064     737.1755     573.3723
   1423.26538     737.7089     572.7641   1423.26538     737.7089     572.7641
   1423.25012     736.6125     571.0355   1423.25012     736.6125     571.0355
   1423.23486     737.5547     570.4647   1423.23486     737.5547     570.4647
   1423.21960     736.6997     569.7073   1423.21960     736.6997     569.7073
   1423.20435     736.3628     569.0889   1423.20435     736.3628     569.0889
   1423.18909     736.2217     568.4292   1423.18909     736.2217     568.4292
   1423.17383     734.4643     568.1456   1423.17383     734.4643     568.1456
   1423.15857     735.2734     566.9645   1423.15857     735.2734     566.9645
   1423.14331     734.4022     566.4457   1423.14331     734.4022     566.4457
   1423.12805     733.7260     566.3251   1423.12805     733.7260     566.3251
   1423.11279     734.2874     564.9078   1423.11279     734.2874     564.9078
   1423.09753     734.5044     564.8351   1423.09753     734.5044     564.8351
   1423.08228     733.1284     563.6389   1423.08228     733.1284     563.6389
   1423.06702     732.5192     563.0285   1423.06702     732.5192     563.0285
   1423.05176     733.3163     562.7168   1423.05176     733.3163     562.7168
   1423.03650     733.2196     561.8384   1423.03650     733.2196     561.8384
   1423.02124     732.1620     560.7531   1423.02124     732.1620     560.7531
   1423.00598     732.8550     559.7027   1423.00598     732.8550     559.7027
   1422.99072     732.7547     558.9656   1422.99072     732.7547     558.9656
   1422.97546     732.0422     559.0909   1422.97546     732.0422     559.0909
   1422.96021     730.2726     557.9752   1422.96021     730.2726     557.9752
   1422.94495     730.8594     557.1866   1422.94495     730.8594     557.1866
   1422.92969     730.8562     556.6415   1422.92969     730.8562     556.6415
   1422.91443     729.8646     555.4218   1422.91443     729.8646     555.4218
   1422.89917     730.0594     554.6315   1422.89917     730.0594     554.6315
   1422.88391     729.5363     553.9152   1422.88391     729.5363     553.9152
   1422.86865     730.6342     553.6895   1422.86865     730.6342     553.6895
   1422.85339     729.1465     553.1570   1422.85339     729.1465     553.1570
   1422.83813     728.8813     552.0577   1422.83813     728.8813     552.0577
   1422.82288     729.2544     552.2908   1422.82288     729.2544     552.2908
   1422.80762     728.5667     550.9379   1422.80762     728.5667     550.9379
   1422.79236     729.5876     549.8238   1422.79236     729.5876     549.8238
   1422.77710     729.3047     549.3007   1422.77710     729.3047     549.3007
   1422.76184     727.2253     548.6090   1422.76184     727.2253     548.6090
   1422.74658     728.0688     547.6080   1422.74658     728.0688     547.6080
   1422.73132     728.1052     547.2154   1422.73132     728.1052     547.2154
   1422.71606     729.2202     545.9565   1422.71606     729.2202     545.9565
   1422.70081     727.8239     545.6680   1422.70081     727.8239     545.6680
   1422.68555     727.2838     544.9575   1422.68555     727.2838     544.9575
   1422.67029     726.5993     543.7698   1422.67029     726.5993     543.7698
   1422.65503     727.0184     543.2979   1422.65503     727.0184     543.2979
   1422.63977     726.6376     542.4805   1422.63977     726.6376     542.4805
   1422.62451     726.2015     541.6385   1422.62451     726.2015     541.6385
   1422.60925     726.0919     541.7390   1422.60925     726.0919     541.7390
   1422.59399     726.3038     540.9897   1422.59399     726.3038     540.9897
   1422.57874     725.6047     540.3678   1422.57874     725.6047     540.3678
   1422.56348     726.1314     539.0238   1422.56348     726.1314     539.0238
   1422.54822     724.9995     537.4296   1422.54822     724.9995     537.4296
   1422.53296     724.8646     536.8126   1422.53296     724.8646     536.8126
   1422.51770     725.2686     537.2925   1422.51770     725.2686     537.2925
   1422.50244     725.0901     535.9802   1422.50244     725.0901     535.9802
   1422.48718     724.8688     534.9509   1422.48718     724.8688     534.9509
   1422.47192     724.8956     533.5804   1422.47192     724.8956     533.5804
   1422.45667     723.9122     533.1358   1422.45667     723.9122     533.1358
   1422.44141     724.4753     533.2084   1422.44141     724.4753     533.2084
   1422.42615     724.4784     532.3489   1422.42615     724.4784     532.3489
   1422.41089     723.9846     531.4510   1422.41089     723.9846     531.4510
   1422.39563     724.8672     530.4124   1422.39563     724.8672     530.4124
   1422.38037     725.7111     530.4020   1422.38037     725.7111     530.4020
   1422.36511     724.1191     529.1251   1422.36511     724.1191     529.1251
   1422.34985     724.1474     528.1284   1422.34985     724.1474     528.1284
   1422.33459     723.5960     526.3251   1422.33459     723.5960     526.3251
   1422.31934     723.4390     526.7993   1422.31934     723.4390     526.7993
   1422.30408     723.5000     525.9136   1422.30408     723.5000     525.9136
   1422.28882     723.9348     524.8271   1422.28882     723.9348     524.8271
   1422.27356     723.0507     524.2441   1422.27356     723.0507     524.2441
   1422.25830     722.7700     523.6352   1422.25830     722.7700     523.6352
   1422.24304     723.5781     523.0427   1422.24304     723.5781     523.0427
   1422.22778     723.0517     521.8800   1422.22778     723.0517     521.8800
   1422.21252     723.8332     521.1997   1422.21252     723.8332     521.1997
   1422.19727     722.6050     520.3831   1422.19727     722.6050     520.3831
   1422.18201     723.8245     519.3864   1422.18201     723.8245     519.3864
   1422.16675     723.6638     518.3254   1422.16675     723.6638     518.3254
   1422.15149     723.7654     517.3448   1422.15149     723.7654     517.3448
   1422.13623     722.7010     516.8194   1422.13623     722.7010     516.8194
   1422.12097     722.9240     515.8998   1422.12097     722.9240     515.8998
   1422.10571     722.1638     515.2714   1422.10571     722.1638     515.2714
   1422.09045     723.6259     514.1854   1422.09045     723.6259     514.1854
   1422.07520     722.5551     513.8517   1422.07520     722.5551     513.8517
   1422.05994     722.2958     513.2123   1422.05994     722.2958     513.2123
   1422.04468     722.5783     512.0062   1422.04468     722.5783     512.0062
   1422.02942     722.8353     511.7209   1422.02942     722.8353     511.7209
   1422.01416     723.2040     511.2570   1422.01416     723.2040     511.2570
   1421.99890     721.1184     508.9218   1421.99890     721.1184     508.9218
   1421.98364     721.7955     509.2173   1421.98364     721.7955     509.2173
   1421.96838     721.7783     507.6972   1421.96838     721.7783     507.6972
   1421.95312     721.7842     507.4537   1421.95312     721.7842     507.4537
   1421.93787     722.0389     506.7699   1421.93787     722.0389     506.7699
   1421.92261     722.1105     505.4731   1421.92261     722.1105     505.4731
   1421.90735     721.6239     504.7941   1421.90735     721.6239     504.7941
   1421.89209     721.4642     503.3885   1421.89209     721.4642     503.3885
   1421.87683     721.1174     503.2382   1421.87683     721.1174     503.2382
   1421.86157     722.1251     502.5223   1421.86157     722.1251     502.5223
   1421.84631     720.8028     501.2919   1421.84631     720.8028     501.2919
   1421.83105     720.7981     500.2684   1421.83105     720.7981     500.2684
   1421.81580     720.6794     499.4908   1421.81580     720.6794     499.4908
   1421.80054     719.9847     498.8131   1421.80054     719.9847     498.8131
   1421.78528     720.7686     499.2549   1421.78528     720.7686     499.2549
   1421.77002     720.0986     496.9222   1421.77002     720.0986     496.9222
   1421.75476     721.1303     496.3374   1421.75476     721.1303     496.3374
   1421.73950     719.9206     495.8706   1421.73950     719.9206     495.8706
   1421.72424     720.4373     495.3727   1421.72424     720.4373     495.3727
   1421.70898     721.1339     493.7603   1421.70898     721.1339     493.7603
   1421.69373     721.1825     493.1767   1421.69373     721.1825     493.1767
   1421.67847     719.6526     492.2473   1421.67847     719.6526     492.2473
   1421.66321     720.8223     491.7030   1421.66321     720.8223     491.7030
   1421.64795     719.6719     489.9202   1421.64795     719.6719     489.9202
   1421.63269     719.8748     489.7262   1421.63269     719.8748     489.7262
   1421.61743     719.3641     489.1790   1421.61743     719.3641     489.1790
   1421.60217     719.1392     487.7652   1421.60217     719.1392     487.7652
   1421.58691     719.2325     487.4119   1421.58691     719.2325     487.4119
   1421.57166     718.9514     486.4215   1421.57166     718.9514     486.4215
   1421.55640     718.3679     485.0309   1421.55640     718.3679     485.0309
   1421.54114     719.6208     484.8087   1421.54114     719.6208     484.8087
   1421.52588     719.2307     482.8950   1421.52588     719.2307     482.8950
   1421.51062     717.9993     482.4523   1421.51062     717.9993     482.4523
   1421.49536     718.2455     481.8381   1421.49536     718.2455     481.8381
   1421.48010     718.4799     481.3481   1421.48010     718.4799     481.3481
   1421.46484     718.2045     480.7103   1421.46484     718.2045     480.7103
   1421.44958     718.6246     479.4880   1421.44958     718.6246     479.4880
   1421.43433     717.9383     479.0029   1421.43433     717.9383     479.0029
   1421.41907     717.1426     478.0735   1421.41907     717.1426     478.0735
   1421.40381     718.5373     476.7696   1421.40381     718.5373     476.7696
   1421.38855     717.2043     476.5100   1421.38855     717.2043     476.5100
   1421.37329     716.1223     474.6791   1421.37329     716.1223     474.6791
   1421.35803     716.2804     474.2870   1421.35803     716.2804     474.2870
   1421.34277     715.5375     472.7031   1421.34277     715.5375     472.7031
   1421.32751     717.4828     472.8498   1421.32751     717.4828     472.8498
   1421.31226     716.6376     472.3969   1421.31226     716.6376     472.3969
   1421.29700     716.8163     471.3484   1421.29700     716.8163     471.3484
   1421.28174     717.2357     469.9059   1421.28174     717.2357     469.9059
   1421.26648     716.0515     469.5273   1421.26648     716.0515     469.5273
   1421.25122     715.8300     467.6808   1421.25122     715.8300     467.6808
   1421.23596     715.4604     467.2445   1421.23596     715.4604     467.2445
   1421.22070     716.1119     466.3420   1421.22070     716.1119     466.3420
   1421.20544     713.9763     465.5254   1421.20544     713.9763     465.5254
   1421.19019     714.3571     465.2619   1421.19019     714.3571     465.2619
   1421.17493     715.3527     463.6326   1421.17493     715.3527     463.6326
   1421.15967     714.7175     463.0545   1421.15967     714.7175     463.0545
   1421.14441     714.6044     462.1817   1421.14441     714.6044     462.1817
   1421.12915     714.2697     461.5632   1421.12915     714.2697     461.5632
   1421.11389     713.6035     460.4013   1421.11389     713.6035     460.4013
   1421.09863     714.1479     459.1294   1421.09863     714.1479     459.1294
   1421.08337     713.6429     459.3126   1421.08337     713.6429     459.3126
   1421.06812     713.2261     458.3501   1421.06812     713.2261     458.3501
   1421.05286     713.4354     457.1256   1421.05286     713.4354     457.1256
   1421.03760     712.3801     455.7781   1421.03760     712.3801     455.7781
   1421.02234     713.9715     455.4229   1421.02234     713.9715     455.4229
   1421.00708     711.6609     454.2543   1421.00708     711.6609     454.2543
   1420.99182     712.6498     454.0955   1420.99182     712.6498     454.0955
   1420.97656     712.5687     453.0637   1420.97656     712.5687     453.0637
   1420.96130     712.7494     452.2750   1420.96130     712.7494     452.2750
   1420.94604     712.6530     451.6480   1420.94604     712.6530     451.6480
   1420.93079     712.3149     451.3474   1420.93079     712.3149     451.3474
   1420.91553     711.9357     449.9534   1420.91553     711.9357     449.9534
   1420.90027     712.1628     448.6266   1420.90027     712.1628     448.6266
   1420.88501     711.7778     448.3018   1420.88501     711.7778     448.3018
   1420.86975     711.4189     447.8229   1420.86975     711.4189     447.8229
   1420.85449     711.3735     447.1892   1420.85449     711.3735     447.1892
   1420.83923     711.7441     446.0880   1420.83923     711.7441     446.0880
   1420.82397     710.7026     444.9554   1420.82397     710.7026     444.9554
   1420.80872     711.6370     444.2320   1420.80872     711.6370     444.2320
   1420.79346     710.0500     443.8677   1420.79346     710.0500     443.8677
   1420.77820     710.9899     443.6507   1420.77820     710.9899     443.6507
   1420.76294     711.6527     443.2986   1420.76294     711.6527     443.2986
   1420.74768     710.9929     442.2893   1420.74768     710.9929     442.2893
   1420.73242     711.5971     441.0531   1420.73242     711.5971     441.0531
   1420.71716     710.9210     440.6987   1420.71716     710.9210     440.6987
   1420.70190     712.0891     440.1873   1420.70190     712.0891     440.1873
   1420.68665     712.8693     439.4431   1420.68665     712.8693     439.4431
   1420.67139     711.8097     438.4885   1420.67139     711.8097     438.4885
   1420.65613     712.0789     438.9666   1420.65613     712.0789     438.9666
   1420.64087     712.9860     437.2296   1420.64087     712.9860     437.2296
   1420.62561     712.9827     437.4148   1420.62561     712.9827     437.4148
   1420.61035     713.4421     436.9684   1420.61035     713.4421     436.9684
   1420.59509     714.9876     436.7893   1420.59509     714.9876     436.7893
   1420.57983     716.4503     437.1790   1420.57983     716.4503     437.1790
   1420.56458     718.3423     438.1569   1420.56458     718.3423     438.1569
   1420.54932     723.1302     439.3696   1420.54932     723.1302     439.3696
   1420.53406     728.4238     442.5405   1420.53406     728.4238     442.5405
   1420.51880     733.7883     445.7066   1420.51880     733.7883     445.7066
   1420.50354     742.5283     449.6150   1420.50354     742.5283     449.6150
   1420.48828     755.3699     457.5301   1420.48828     755.3699     457.5301
   1420.47302     776.0961     467.7427   1420.47302     776.0961     467.7427
   1420.45776     810.1966     487.8047   1420.45776     810.1966     487.8047
   1420.44250     865.3968     518.3192   1420.44250     865.3968     518.3192
   1420.42725     934.8085     560.2791   1420.42725     934.8085     560.2791
   1420.41199    1073.1581     637.8088   1420.41199    1073.1581     637.8088
   1420.39673    1375.3680     814.8848   1420.39673    1375.3680     814.8848
   1420.38147    1814.7759    1071.1395   1420.38147    1814.7759    1071.1395
   1420.36621    2084.4407    1221.6373   1420.36621    2084.4407    1221.6373
   1420.35095    2092.3049    1225.5247   1420.35095    2092.3049    1225.5247
   1420.33569    2260.9668    1323.5187   1420.33569    2260.9668    1323.5187
   1420.32043    2578.7104    1505.8340   1420.32043    2578.7104    1505.8340
   1420.30518    2685.5310    1568.1871   1420.30518    2685.5310    1568.1871
   1420.28992    2594.2317    1509.2932   1420.28992    2594.2317    1509.2932
   1420.27466    2374.5454    1382.9330   1420.27466    2374.5454    1382.9330
   1420.25940    2006.4143    1166.2911   1420.25940    2006.4143    1166.2911
   1420.24414    1205.4172     708.9021   1420.24414    1205.4172     708.9021
   1420.22888     909.3716     535.5025   1420.22888     909.3716     535.5025
   1420.21362     802.0536     471.6050   1420.21362     802.0536     471.6050
   1420.19836     754.5240     445.4769   1420.19836     754.5240     445.4769
   1420.18311     734.6740     431.9786   1420.18311     734.6740     431.9786
   1420.16785     723.7463     424.5756   1420.16785     723.7463     424.5756
   1420.15259     716.7909     420.7725   1420.15259     716.7909     420.7725
   1420.13733     711.8839     418.1004   1420.13733     711.8839     418.1004
   1420.12207     709.7226     414.9475   1420.12207     709.7226     414.9475
   1420.10681     706.5863     414.4777   1420.10681     706.5863     414.4777
   1420.09155     703.9400     411.9406   1420.09155     703.9400     411.9406
   1420.07629     702.9141     410.6009   1420.07629     702.9141     410.6009
   1420.06104     701.8486     409.6063   1420.06104     701.8486     409.6063
   1420.04578     701.9719     408.3818   1420.04578     701.9719     408.3818
   1420.03052     701.3423     408.0924   1420.03052     701.3423     408.0924
   1420.01526     700.9813     407.7815   1420.01526     700.9813     407.7815
   1420.00000     702.2353     408.1921   1420.00000     702.2353     408.1921
   1419.98474     703.4892     408.6028   1419.98474     703.4892     408.6028
   1419.96948     703.1104     406.0967   1419.96948     703.1104     406.0967
   1419.95422     699.0405     404.0330   1419.95422     699.0405     404.0330
   1419.93896     699.0167     403.1500   1419.93896     699.0167     403.1500
   1419.92371     698.6342     403.0535   1419.92371     698.6342     403.0535
   1419.90845     697.7664     402.3465   1419.90845     697.7664     402.3465
   1419.89319     697.8177     401.8086   1419.89319     697.8177     401.8086
   1419.87793     698.5976     401.8134   1419.87793     698.5976     401.8134
   1419.86267     697.9904     400.6891   1419.86267     697.9904     400.6891
   1419.84741     697.9558     400.4780   1419.84741     697.9558     400.4780
   1419.83215     698.7389     398.9864   1419.83215     698.7389     398.9864
   1419.81689     698.6796     398.7350   1419.81689     698.6796     398.7350
   1419.80164     697.4090     398.2294   1419.80164     697.4090     398.2294
   1419.78638     696.4989     397.5902   1419.78638     696.4989     397.5902
   1419.77112     697.0338     396.9017   1419.77112     697.0338     396.9017
   1419.75586     696.3751     396.9849   1419.75586     696.3751     396.9849
   1419.74060     697.6522     396.5087   1419.74060     697.6522     396.5087
   1419.72534     697.0140     396.5493   1419.72534     697.0140     396.5493
   1419.71008     696.9545     395.7465   1419.71008     696.9545     395.7465
   1419.69482     697.1500     395.8516   1419.69482     697.1500     395.8516
   1419.67957     697.7961     394.4811   1419.67957     697.7961     394.4811
   1419.66431     696.8415     394.2978   1419.66431     696.8415     394.2978
   1419.64905     698.0023     394.6718   1419.64905     698.0023     394.6718
   1419.63379     697.1251     394.0943   1419.63379     697.1251     394.0943
   1419.61853     697.8872     393.2570   1419.61853     697.8872     393.2570
   1419.60327     698.5209     392.8428   1419.60327     698.5209     392.8428
   1419.58801     698.6607     393.4027   1419.58801     698.6607     393.4027
   1419.57275     698.4328     392.6283   1419.57275     698.4328     392.6283
   1419.55750     698.3952     392.7031   1419.55750     698.3952     392.7031
   1419.54224     698.8285     392.1468   1419.54224     698.8285     392.1468
   1419.52698     698.1154     392.0589   1419.52698     698.1154     392.0589
   1419.51172     698.6945     391.5468   1419.51172     698.6945     391.5468
   1419.49646     699.2916     391.2115   1419.49646     699.2916     391.2115
   1419.48120     699.1469     391.0895   1419.48120     699.1469     391.0895
   1419.46594     699.3837     390.3192   1419.46594     699.3837     390.3192
   1419.45068     698.6589     390.5590   1419.45068     698.6589     390.5590
   1419.43542     699.0147     389.4708   1419.43542     699.0147     389.4708
   1419.42017     699.1089     389.7957   1419.42017     699.1089     389.7957
   1419.40491     700.9189     389.8132   1419.40491     700.9189     389.8132
   1419.38965     700.7007     389.5575   1419.38965     700.7007     389.5575
   1419.37439     700.3354     389.5340   1419.37439     700.3354     389.5340
   1419.35913     701.1019     389.6628   1419.35913     701.1019     389.6628
   1419.34387     702.0152     389.5767   1419.34387     702.0152     389.5767
   1419.32861     701.0829     388.5158   1419.32861     701.0829     388.5158
   1419.31335     701.5667     389.3934   1419.31335     701.5667     389.3934
   1419.29810     702.7797     388.4883   1419.29810     702.7797     388.4883
   1419.28284     702.5720     388.5658   1419.28284     702.5720     388.5658
   1419.26758     702.6527     389.3187   1419.26758     702.6527     389.3187
   1419.25232     701.5946     388.4872   1419.25232     701.5946     388.4872
   1419.23706     702.8463     388.5382   1419.23706     702.8463     388.5382
   1419.22180     703.2323     388.2403   1419.22180     703.2323     388.2403
   1419.20654     703.8408     388.7048   1419.20654     703.8408     388.7048
   1419.19128     704.0027     387.8258   1419.19128     704.0027     387.8258
   1419.17603     704.0028     387.9293   1419.17603     704.0028     387.9293
   1419.16077     704.5999     388.3586   1419.16077     704.5999     388.3586
   1419.14551     704.9069     387.8828   1419.14551     704.9069     387.8828
   1419.13025     705.3739     387.1537   1419.13025     705.3739     387.1537
   1419.11499     705.3477     387.0990   1419.11499     705.3477     387.0990
   1419.09973     706.3853     388.4485   1419.09973     706.3853     388.4485
   1419.08447     706.7626     388.1518   1419.08447     706.7626     388.1518
   1419.06921     706.4433     388.4132   1419.06921     706.4433     388.4132
   1419.05396     706.7073     387.8902   1419.05396     706.7073     387.8902
   1419.03870     706.9597     388.2601   1419.03870     706.9597     388.2601
   1419.02344     707.4888     387.8017   1419.02344     707.4888     387.8017
   1419.00818     708.2200     387.8344   1419.00818     708.2200     387.8344
   1418.99292     708.7888     387.6871   1418.99292     708.7888     387.6871
   1418.97766     709.2574     388.6325   1418.97766     709.2574     388.6325
   1418.96240     710.5634     388.5434   1418.96240     710.5634     388.5434
   1418.94714     708.8927     388.4551   1418.94714     708.8927     388.4551
   1418.93188     710.4922     388.5422   1418.93188     710.4922     388.5422
   1418.91663     711.5355     388.5345   1418.91663     711.5355     388.5345
   1418.90137     710.8599     389.0616   1418.90137     710.8599     389.0616
   1418.88611     711.3967     388.2563   1418.88611     711.3967     388.2563
   1418.87085     711.7903     389.0918   1418.87085     711.7903     389.0918
   1418.85559     712.7769     389.3411   1418.85559     712.7769     389.3411
   1418.84033     713.1433     389.7375   1418.84033     713.1433     389.7375
   1418.82507     713.3074     389.3456   1418.82507     713.3074     389.3456
   1418.80981     713.3425     390.3524   1418.80981     713.3425     390.3524
   1418.79456     715.8000     389.8027   1418.79456     715.8000     389.8027
   1418.77930     713.9648     390.1562   1418.77930     713.9648     390.1562
   1418.76404     716.0803     390.2022   1418.76404     716.0803     390.2022
   1418.74878     716.1512     390.8811   1418.74878     716.1512     390.8811
   1418.73352     715.4792     391.6544   1418.73352     715.4792     391.6544
   1418.71826     717.9840     391.5890   1418.71826     717.9840     391.5890
   1418.70300     716.7126     391.7341   1418.70300     716.7126     391.7341
   1418.68774     718.4120     391.6301   1418.68774     718.4120     391.6301
   1418.67249     718.3742     391.6195   1418.67249     718.3742     391.6195
   1418.65723     720.3376     392.2635   1418.65723     720.3376     392.2635
   1418.64197     720.4778     393.0779   1418.64197     720.4778     393.0779
   1418.62671     720.2728     393.4003   1418.62671     720.2728     393.4003
   1418.61145     721.9034     393.2482   1418.61145     721.9034     393.2482
   1418.59619     721.8560     393.6329   1418.59619     721.8560     393.6329
   1418.58093     722.5021     393.7128   1418.58093     722.5021     393.7128
   1418.56567     723.9008     394.0955   1418.56567     723.9008     394.0955
   1418.55042     724.0057     395.1560   1418.55042     724.0057     395.1560
   1418.53516     725.0914     395.5048   1418.53516     725.0914     395.5048
   1418.51990     724.8700     395.9013   1418.51990     724.8700     395.9013
   1418.50464     726.1891     396.4193   1418.50464     726.1891     396.4193
   1418.48938     725.8444     396.5594   1418.48938     725.8444     396.5594
   1418.47412     726.7875     396.5628   1418.47412     726.7875     396.5628
   1418.45886     727.6588     397.3223   1418.45886     727.6588     397.3223
   1418.44360     729.0912     397.9597   1418.44360     729.0912     397.9597
   1418.42834     729.2693     398.0895   1418.42834     729.2693     398.0895
   1418.41309     729.4044     398.8284   1418.41309     729.4044     398.8284
   1418.39783     729.2057     398.8941   1418.39783     729.2057     398.8941
   1418.38257     730.7945     399.5594   1418.38257     730.7945     399.5594
   1418.36731     731.8372     400.0814   1418.36731     731.8372     400.0814
   1418.35205     730.7869     401.0486   1418.35205     730.7869     401.0486
   1418.33679     733.1714     401.7520   1418.33679     733.1714     401.7520
   1418.32153     733.3477     402.0479   1418.32153     733.3477     402.0479
   1418.30627     734.3370     402.7411   1418.30627     734.3370     402.7411
   1418.29102     734.4901     403.4815   1418.29102     734.4901     403.4815
   1418.27576     736.1962     402.9879   1418.27576     736.1962     402.9879
   1418.26050     736.1828     404.5461   1418.26050     736.1828     404.5461
   1418.24524     737.0206     404.1725   1418.24524     737.0206     404.1725
   1418.22998     737.7352     405.2591   1418.22998     737.7352     405.2591
   1418.21472     738.9921     405.2824   1418.21472     738.9921     405.2824
   1418.19946     739.5079     406.9035   1418.19946     739.5079     406.9035
   1418.18420     740.1743     407.1409   1418.18420     740.1743     407.1409
   1418.16895     740.6923     407.0473   1418.16895     740.6923     407.0473
   1418.15369     741.1484     407.9205   1418.15369     741.1484     407.9205
   1418.13843     741.6403     408.9203   1418.13843     741.6403     408.9203
   1418.12317     742.1871     409.2851   1418.12317     742.1871     409.2851
   1418.10791     743.5298     410.2911   1418.10791     743.5298     410.2911
   1418.09265     744.2084     411.8716   1418.09265     744.2084     411.8716
   1418.07739     746.6539     411.7661   1418.07739     746.6539     411.7661
   1418.06213     746.2835     412.2918   1418.06213     746.2835     412.2918
   1418.04688     747.2026     413.2264   1418.04688     747.2026     413.2264
   1418.03162     747.9573     413.9991   1418.03162     747.9573     413.9991
   1418.01636     747.7401     414.4045   1418.01636     747.7401     414.4045
   1418.00110     748.8904     415.5036   1418.00110     748.8904     415.5036
   1417.98584     750.4168     416.7266   1417.98584     750.4168     416.7266
   1417.97058     750.4775     417.1985   1417.97058     750.4775     417.1985
   1417.95532     752.2101     417.8881   1417.95532     752.2101     417.8881
   1417.94006     753.4064     418.6843   1417.94006     753.4064     418.6843
   1417.92480     752.8116     419.4893   1417.92480     752.8116     419.4893
   1417.90955     753.0447     420.1331   1417.90955     753.0447     420.1331
   1417.89429     755.8157     420.6126   1417.89429     755.8157     420.6126
   1417.87903     755.8828     421.7263   1417.87903     755.8828     421.7263
   1417.86377     756.3759     422.3321   1417.86377     756.3759     422.3321
   1417.84851     758.1420     423.3472   1417.84851     758.1420     423.3472
   1417.83325     758.4711     424.6608   1417.83325     758.4711     424.6608
   1417.81799     757.9563     424.8713   1417.81799     757.9563     424.8713
   1417.80273     759.9169     425.7096   1417.80273     759.9169     425.7096
   1417.78748     760.3524     426.4845   1417.78748     760.3524     426.4845
   1417.77222     762.5446     427.5868   1417.77222     762.5446     427.5868
   1417.75696     761.6653     428.1783   1417.75696     761.6653     428.1783
   1417.74170     762.2028     428.8958   1417.74170     762.2028     428.8958
   1417.72644     763.7527     431.1340   1417.72644     763.7527     431.1340
   1417.71118     764.2812     431.2443   1417.71118     764.2812     431.2443
   1417.69592     766.3533     432.2513   1417.69592     766.3533     432.2513
   1417.68066     766.3267     432.3970   1417.68066     766.3267     432.3970
   1417.66541     767.4366     434.1992   1417.66541     767.4366     434.1992
   1417.65015     768.1752     434.7971   1417.65015     768.1752     434.7971
   1417.63489     769.0963     436.3506   1417.63489     769.0963     436.3506
   1417.61963     770.7437     436.4948   1417.61963     770.7437     436.4948
   1417.60437     770.4916     437.3806   1417.60437     770.4916     437.3806
   1417.58911     770.5909     438.4566   1417.58911     770.5909     438.4566
   1417.57385     773.0258     439.8815   1417.57385     773.0258     439.8815
   1417.55859     772.5406     440.6009   1417.55859     772.5406     440.6009
   1417.54333     774.2432     441.2303   1417.54333     774.2432     441.2303
   1417.52808     774.1925     442.5008   1417.52808     774.1925     442.5008
   1417.51282     776.4147     443.5421   1417.51282     776.4147     443.5421
   1417.49756     776.2420     444.9962   1417.49756     776.2420     444.9962
   1417.48230     776.8446     446.2520   1417.48230     776.8446     446.2520
   1417.46704     777.5044     446.7162   1417.46704     777.5044     446.7162
   1417.45178     776.4445     447.0576   1417.45178     776.4445     447.0576
   1417.43652     778.2835     448.9604   1417.43652     778.2835     448.9604
   1417.42126     780.0834     449.3283   1417.42126     780.0834     449.3283
   1417.40601     780.9301     451.3811   1417.40601     780.9301     451.3811
   1417.39075     780.2358     451.4291   1417.39075     780.2358     451.4291
   1417.37549     781.6451     452.7033   1417.37549     781.6451     452.7033
   1417.36023     781.7543     453.3697   1417.36023     781.7543     453.3697
   1417.34497     783.2913     454.8116   1417.34497     783.2913     454.8116
   1417.32971     783.6418     455.7807   1417.32971     783.6418     455.7807
   1417.31445     784.0859     457.2927   1417.31445     784.0859     457.2927
   1417.29919     784.8342     457.5210   1417.29919     784.8342     457.5210
   1417.28394     785.5375     459.2081   1417.28394     785.5375     459.2081
   1417.26868     787.3527     459.7208   1417.26868     787.3527     459.7208
   1417.25342     786.7358     460.6578   1417.25342     786.7358     460.6578
   1417.23816     788.3826     461.2842   1417.23816     788.3826     461.2842
   1417.22290     789.2766     462.5497   1417.22290     789.2766     462.5497
   1417.20764     789.1031     464.3220   1417.20764     789.1031     464.3220
   1417.19238     788.9962     465.2203   1417.19238     788.9962     465.2203
   1417.17712     791.6081     465.6578   1417.17712     791.6081     465.6578
   1417.16187     790.0675     466.8280   1417.16187     790.0675     466.8280
   1417.14661     792.3364     468.4088   1417.14661     792.3364     468.4088
   1417.13135     790.6985     469.5250   1417.13135     790.6985     469.5250
   1417.11609     791.6631     470.0842   1417.11609     791.6631     470.0842
   1417.10083     794.2865     471.0087   1417.10083     794.2865     471.0087
   1417.08557     794.3841     472.2364   1417.08557     794.3841     472.2364
   1417.07031     794.9171     473.3236   1417.07031     794.9171     473.3236
   1417.05505     794.8102     474.7624   1417.05505     794.8102     474.7624
   1417.03979     795.6066     475.1026   1417.03979     795.6066     475.1026
   1417.02454     795.7762     475.6300   1417.02454     795.7762     475.6300
   1417.00928     796.7872     477.1863   1417.00928     796.7872     477.1863
   1416.99402     795.6642     478.5048   1416.99402     795.6642     478.5048
   1416.97876     797.5020     479.2201   1416.97876     797.5020     479.2201
   1416.96350     797.2146     479.7598   1416.96350     797.2146     479.7598
   1416.94824     798.9219     481.0770   1416.94824     798.9219     481.0770
   1416.93298     799.0929     482.2299   1416.93298     799.0929     482.2299
   1416.91772     798.5247     482.9374   1416.91772     798.5247     482.9374
   1416.90247     799.6280     484.3067   1416.90247     799.6280     484.3067
   1416.88721     798.9360     484.9667   1416.88721     798.9360     484.9667
   1416.87195     801.1238     485.4105   1416.87195     801.1238     485.4105
   1416.85669     800.2795     486.5061   1416.85669     800.2795     486.5061
   1416.84143     801.6269     488.4544   1416.84143     801.6269     488.4544
   1416.82617     801.6661     488.3878   1416.82617     801.6661     488.3878
   1416.81091     802.2172     489.8580   1416.81091     802.2172     489.8580
   1416.79565     802.1229     490.3714   1416.79565     802.1229     490.3714
   1416.78040     801.4768     489.8868   1416.78040     801.4768     489.8868
   1416.76514     802.5416     492.4939   1416.76514     802.5416     492.4939
   1416.74988     802.1946     492.9839   1416.74988     802.1946     492.9839
   1416.73462     802.0547     493.1124   1416.73462     802.0547     493.1124
   1416.71936     803.6993     494.2096   1416.71936     803.6993     494.2096
   1416.70410     802.5843     495.1708   1416.70410     802.5843     495.1708
   1416.68884     802.2321     495.2629   1416.68884     802.2321     495.2629
   1416.67358     804.5292     497.2092   1416.67358     804.5292     497.2092
   1416.65833     804.1113     496.9908   1416.65833     804.1113     496.9908
   1416.64307     803.6494     497.9250   1416.64307     803.6494     497.9250
   1416.62781     803.9852     498.6887   1416.62781     803.9852     498.6887
   1416.61255     804.3121     499.3983   1416.61255     804.3121     499.3983
   1416.59729     803.5173     500.2003   1416.59729     803.5173     500.2003
   1416.58203     804.7579     500.7565   1416.58203     804.7579     500.7565
   1416.56677     803.6633     501.5767   1416.56677     803.6633     501.5767
   1416.55151     804.6129     502.0732   1416.55151     804.6129     502.0732
   1416.53625     803.5016     502.6136   1416.53625     803.5016     502.6136
   1416.52100     803.7909     503.2173   1416.52100     803.7909     503.2173
   1416.50574     804.4562     503.8925   1416.50574     804.4562     503.8925
   1416.49048     803.9067     504.1072   1416.49048     803.9067     504.1072
   1416.47522     804.8524     504.4621   1416.47522     804.8524     504.4621
   1416.45996     804.0620     505.3190   1416.45996     804.0620     505.3190
   1416.44470     804.1358     506.4414   1416.44470     804.1358     506.4414
   1416.42944     802.7241     506.4120   1416.42944     802.7241     506.4120
   1416.41418     803.7557     506.0082   1416.41418     803.7557     506.0082
   1416.39893     802.3447     507.0085   1416.39893     802.3447     507.0085
   1416.38367     803.4341     507.7686   1416.38367     803.4341     507.7686
   1416.36841     803.1895     507.8582   1416.36841     803.1895     507.8582
   1416.35315     802.1410     508.3435   1416.35315     802.1410     508.3435
   1416.33789     801.9678     508.0496   1416.33789     801.9678     508.0496
   1416.32263     803.8222     509.2935   1416.32263     803.8222     509.2935
   1416.30737     802.2831     509.7666   1416.30737     802.2831     509.7666
   1416.29211     801.7164     509.4899   1416.29211     801.7164     509.4899
   1416.27686     802.0861     510.9697   1416.27686     802.0861     510.9697
   1416.26160     800.6613     510.2726   1416.26160     800.6613     510.2726
   1416.24634     801.1374     510.9055   1416.24634     801.1374     510.9055
   1416.23108     800.5768     511.2508   1416.23108     800.5768     511.2508
   1416.21582     801.8157     511.8103   1416.21582     801.8157     511.8103
   1416.20056     800.8036     511.5711   1416.20056     800.8036     511.5711
   1416.18530     799.6544     512.2939   1416.18530     799.6544     512.2939
   1416.17004     799.1022     512.3073   1416.17004     799.1022     512.3073
   1416.15479     799.2280     513.0595   1416.15479     799.2280     513.0595
   1416.13953     799.7836     512.6419   1416.13953     799.7836     512.6419
   1416.12427     797.8475     513.2438   1416.12427     797.8475     513.2438
   1416.10901     797.6669     512.6048   1416.10901     797.6669     512.6048
   1416.09375     797.8841     513.4376   1416.09375     797.8841     513.4376
   1416.07849     797.6292     513.1101   1416.07849     797.6292     513.1101
   1416.06323     796.7653     513.5663   1416.06323     796.7653     513.5663
   1416.04797     796.0346     513.3569   1416.04797     796.0346     513.3569
   1416.03271     795.2437     514.0586   1416.03271     795.2437     514.0586
   1416.01746     794.0481     513.0745   1416.01746     794.0481     513.0745
   1416.00220     794.9343     513.6356   1416.00220     794.9343     513.6356
   1415.98694     793.0361     512.4944   1415.98694     793.0361     512.4944
   1415.97168     792.9850     514.9218   1415.97168     792.9850     514.9218
   1415.95642     791.7711     513.7453   1415.95642     791.7711     513.7453
   1415.94116     792.3652     514.6016   1415.94116     792.3652     514.6016
   1415.92590     791.4182     514.8807   1415.92590     791.4182     514.8807
   1415.91064     791.8725     513.8605   1415.91064     791.8725     513.8605
   1415.89539     790.2288     514.1049   1415.89539     790.2288     514.1049
   1415.88013     789.1837     513.7169   1415.88013     789.1837     513.7169
   1415.86487     788.9244     514.6449   1415.86487     788.9244     514.6449
   1415.84961     788.4206     514.3336   1415.84961     788.4206     514.3336
   1415.83435     788.3606     514.0459   1415.83435     788.3606     514.0459
   1415.81909     785.9331     514.2892   1415.81909     785.9331     514.2892
   1415.80383     785.7272     513.5141   1415.80383     785.7272     513.5141
   1415.78857     785.5146     514.3842   1415.78857     785.5146     514.3842
   1415.77332     785.7181     512.5818   1415.77332     785.7181     512.5818
   1415.75806     783.9197     513.0463   1415.75806     783.9197     513.0463
   1415.74280     784.8156     513.9241   1415.74280     784.8156     513.9241
   1415.72754     783.2723     513.4702   1415.72754     783.2723     513.4702
   1415.71228     782.7667     513.4555   1415.71228     782.7667     513.4555
   1415.69702     782.0009     513.4400   1415.69702     782.0009     513.4400
   1415.68176     780.8372     513.7337   1415.68176     780.8372     513.7337
   1415.66650     779.4094     513.4976   1415.66650     779.4094     513.4976
   1415.65125     779.0093     512.9459   1415.65125     779.0093     512.9459
   1415.63599     777.4667     513.3196   1415.63599     777.4667     513.3196
   1415.62073     777.1932     513.5524   1415.62073     777.1932     513.5524
   1415.60547     776.9774     512.1203   1415.60547     776.9774     512.1203
   1415.59021     775.8129     512.6865   1415.59021     775.8129     512.6865
   1415.57495     775.0574     512.4477   1415.57495     775.0574     512.4477
   1415.55969     773.7172     512.2758   1415.55969     773.7172     512.2758
   1415.54443     772.3363     512.2198   1415.54443     772.3363     512.2198
   1415.52917     772.8288     511.3183   1415.52917     772.8288     511.3183
   1415.51392     770.1348     510.6606   1415.51392     770.1348     510.6606
   1415.49866     769.6901     511.0917   1415.49866     769.6901     511.0917
   1415.48340     769.1351     511.5512   1415.48340     769.1351     511.5512
   1415.46814     768.7584     510.3399   1415.46814     768.7584     510.3399
   1415.45288     767.7712     510.7854   1415.45288     767.7712     510.7854
   1415.43762     766.6917     510.9168   1415.43762     766.6917     510.9168
   1415.42236     765.5429     510.0332   1415.42236     765.5429     510.0332
   1415.40710     765.1465     509.3747   1415.40710     765.1465     509.3747
   1415.39185     763.6294     509.1748   1415.39185     763.6294     509.1748
   1415.37659     761.0207     509.0889   1415.37659     761.0207     509.0889
   1415.36133     761.2498     508.8584   1415.36133     761.2498     508.8584
   1415.34607     759.9940     509.4026   1415.34607     759.9940     509.4026
   1415.33081     759.5365     508.0898   1415.33081     759.5365     508.0898
   1415.31555     758.6761     508.6747   1415.31555     758.6761     508.6747
   1415.30029     756.5764     508.5014   1415.30029     756.5764     508.5014
   1415.28503     755.8427     506.8257   1415.28503     755.8427     506.8257
   1415.26978     755.9506     506.9299   1415.26978     755.9506     506.9299
   1415.25452     753.3837     506.5904   1415.25452     753.3837     506.5904
   1415.23926     752.4005     506.0189   1415.23926     752.4005     506.0189
   1415.22400     750.4451     505.3242   1415.22400     750.4451     505.3242
   1415.20874     748.9991     505.6976   1415.20874     748.9991     505.6976
   1415.19348     748.7283     504.6245   1415.19348     748.7283     504.6245
   1415.17822     747.2217     504.3557   1415.17822     747.2217     504.3557
   1415.16296     746.0728     504.6235   1415.16296     746.0728     504.6235
   1415.14771     744.5749     503.6708   1415.14771     744.5749     503.6708
   1415.13245     743.7155     503.0980   1415.13245     743.7155     503.0980
   1415.11719     742.5614     502.7991   1415.11719     742.5614     502.7991
   1415.10193     740.4943     502.5158   1415.10193     740.4943     502.5158
   1415.08667     738.2524     501.8192   1415.08667     738.2524     501.8192
   1415.07141     737.9471     501.1925   1415.07141     737.9471     501.1925
   1415.05615     735.9371     500.1475   1415.05615     735.9371     500.1475
   1415.04089     735.5732     500.3355   1415.04089     735.5732     500.3355
   1415.02563     733.5407     499.9455   1415.02563     733.5407     499.9455
   1415.01038     733.2417     498.8829   1415.01038     733.2417     498.8829
   1414.99512     732.3440     499.0418   1414.99512     732.3440     499.0418
   1414.97986     730.1569     497.9789   1414.97986     730.1569     497.9789
   1414.96460     728.3163     497.4257   1414.96460     728.3163     497.4257
   1414.94934     726.0297     496.4042   1414.94934     726.0297     496.4042
   1414.93408     725.9337     494.7254   1414.93408     725.9337     494.7254
   1414.91882     723.8712     494.6117   1414.91882     723.8712     494.6117
   1414.90356     722.5934     494.3882   1414.90356     722.5934     494.3882
   1414.88831     720.4976     494.0989   1414.88831     720.4976     494.0989
   1414.87305     718.4750     492.8971   1414.87305     718.4750     492.8971
   1414.85779     716.8207     492.1528   1414.85779     716.8207     492.1528
   1414.84253     714.5196     491.7146   1414.84253     714.5196     491.7146
   1414.82727     713.0610     491.5812   1414.82727     713.0610     491.5812
   1414.81201     711.5396     489.8879   1414.81201     711.5396     489.8879
   1414.79675     710.4781     489.4384   1414.79675     710.4781     489.4384
   1414.78149     708.8866     488.4060   1414.78149     708.8866     488.4060
   1414.76624     706.6895     487.9776   1414.76624     706.6895     487.9776
   1414.75098     704.5443     487.7982   1414.75098     704.5443     487.7982
   1414.73572     703.2311     486.1804   1414.73572     703.2311     486.1804
   1414.72046     701.4202     485.7721   1414.72046     701.4202     485.7721
   1414.70520     698.9053     484.4534   1414.70520     698.9053     484.4534
   1414.68994     697.1521     483.4740   1414.68994     697.1521     483.4740
   1414.67468     695.5550     482.9621   1414.67468     695.5550     482.9621
   1414.65942     694.1878     481.6949   1414.65942     694.1878     481.6949
   1414.64417     692.8818     480.6464   1414.64417     692.8818     480.6464
   1414.62891     689.9148     479.9800   1414.62891     689.9148     479.9800
   1414.61365     688.7668     478.6478   1414.61365     688.7668     478.6478
   1414.59839     685.3654     477.3320   1414.59839     685.3654     477.3320
   1414.58313     683.4896     476.8791   1414.58313     683.4896     476.8791
   1414.56787     682.2139     475.3907   1414.56787     682.2139     475.3907
   1414.55261     679.0708     474.9333   1414.55261     679.0708     474.9333
   1414.53735     678.1378     473.8919   1414.53735     678.1378     473.8919
   1414.52209     675.4918     472.8358   1414.52209     675.4918     472.8358
   1414.50684     673.8791     471.8408   1414.50684     673.8791     471.8408
   1414.49158     671.3981     470.8994   1414.49158     671.3981     470.8994
   1414.47632     670.4149     469.5847   1414.47632     670.4149     469.5847
   1414.46106     666.9167     468.7245   1414.46106     666.9167     468.7245
   1414.44580     665.3251     467.0493   1414.44580     665.3251     467.0493
   1414.43054     662.6272     465.6639   1414.43054     662.6272     465.6639
   1414.41528     661.7225     465.1129   1414.41528     661.7225     465.1129
   1414.40002     657.6391     463.7919   1414.40002     657.6391     463.7919
   1414.38477     655.9412     461.4247   1414.38477     655.9412     461.4247
   1414.36951     653.8746     461.2916   1414.36951     653.8746     461.2916
   1414.35425     651.4156     460.5902   1414.35425     651.4156     460.5902
   1414.33899     649.4227     459.0419   1414.33899     649.4227     459.0419
   1414.32373     646.6754     457.4415   1414.32373     646.6754     457.4415
   1414.30847     644.6276     456.3655   1414.30847     644.6276     456.3655
   1414.29321     642.2769     455.5348   1414.29321     642.2769     455.5348
   1414.27795     640.1044     453.8979   1414.27795     640.1044     453.8979
   1414.26270     636.4171     452.6938   1414.26270     636.4171     452.6938
   1414.24744     635.3055     451.3477   1414.24744     635.3055     451.3477
   1414.23218     632.6390     449.2653   1414.23218     632.6390     449.2653
   1414.21692     630.4601     448.4048   1414.21692     630.4601     448.4048
   1414.20166     627.1329     446.9962   1414.20166     627.1329     446.9962
   1414.18640     624.7927     445.2469   1414.18640     624.7927     445.2469
   1414.17114     622.1130     443.3546   1414.17114     622.1130     443.3546
   1414.15588     620.3676     442.8754   1414.15588     620.3676     442.8754
   1414.14062     617.9073     441.5689   1414.14062     617.9073     441.5689
   1414.12537     615.8409     440.5621   1414.12537     615.8409     440.5621
   1414.11011     612.2519     438.5870   1414.11011     612.2519     438.5870
   1414.09485     610.0313     437.1188   1414.09485     610.0313     437.1188
   1414.07959     607.4060     435.1885   1414.07959     607.4060     435.1885
   1414.06433     604.5453     434.1000   1414.06433     604.5453     434.1000
   1414.04907     602.2053     432.2328   1414.04907     602.2053     432.2328
   1414.03381     599.4957     431.1452   1414.03381     599.4957     431.1452
   1414.01855     596.9629     429.5667   1414.01855     596.9629     429.5667
   1414.00330     613.7545     434.2466   1414.00330     613.7545     434.2466
   1413.98804     592.8542     427.6095   1413.98804     592.8542     427.6095
   1413.97278     590.3592     425.1346   1413.97278     590.3592     425.1346
   1413.95752     586.8580     424.1058   1413.95752     586.8580     424.1058
   1413.94226     583.9219     421.6253   1413.94226     583.9219     421.6253
   1413.92700     580.9251     420.2487   1413.92700     580.9251     420.2487
   1413.91174     577.3394     419.0162   1413.91174     577.3394     419.0162
   1413.89648     575.4639     417.9956   1413.89648     575.4639     417.9956
   1413.88123     572.6884     415.6647   1413.88123     572.6884     415.6647
   1413.86597     569.5733     414.4107   1413.86597     569.5733     414.4107
   1413.85071     566.9122     412.0714   1413.85071     566.9122     412.0714
   1413.83545     564.6099     410.8235   1413.83545     564.6099     410.8235
   1413.82019     561.3329     409.6557   1413.82019     561.3329     409.6557
   1413.80493     558.7418     407.7135   1413.80493     558.7418     407.7135
   1413.78967     556.2097     406.5864   1413.78967     556.2097     406.5864
   1413.77441     553.1702     404.0142   1413.77441     553.1702     404.0142
   1413.75916     550.4070     402.9641   1413.75916     550.4070     402.9641
   1413.74390     547.4435     401.2840   1413.74390     547.4435     401.2840
   1413.72864     545.1871     399.8991   1413.72864     545.1871     399.8991
   1413.71338     540.8049     397.9956   1413.71338     540.8049     397.9956
   1413.69812     538.8173     395.8258   1413.69812     538.8173     395.8258
   1413.68286     536.4755     395.0009   1413.68286     536.4755     395.0009
   1413.66760     533.2114     393.4235   1413.66760     533.2114     393.4235
   1413.65234     531.2174     391.9603   1413.65234     531.2174     391.9603
   1413.63708     527.9788     389.9810   1413.63708     527.9788     389.9810
   1413.62183     525.5883     388.7834   1413.62183     525.5883     388.7834
   1413.60657     521.1394     386.9318   1413.60657     521.1394     386.9318
   1413.59131     519.3984     384.9717   1413.59131     519.3984     384.9717
   1413.57605     516.2917     383.2279   1413.57605     516.2917     383.2279
   1413.56079     513.1359     382.5348   1413.56079     513.1359     382.5348
   1413.54553     511.3641     380.0148   1413.54553     511.3641     380.0148
   1413.53027     508.7313     379.6368   1413.53027     508.7313     379.6368
   1413.51501     504.9300     377.5046   1413.51501     504.9300     377.5046
   1413.49976     503.1551     375.1783   1413.49976     503.1551     375.1783
   1413.48450     500.2391     373.5825   1413.48450     500.2391     373.5825
   1413.46924     496.8897     372.1316   1413.46924     496.8897     372.1316
   1413.45398     495.2663     370.8467   1413.45398     495.2663     370.8467
   1413.43872     491.7617     369.2415   1413.43872     491.7617     369.2415
   1413.42346     489.0755     367.9558   1413.42346     489.0755     367.9558
   1413.40820     487.0198     366.5133   1413.40820     487.0198     366.5133
   1413.39294     483.4089     364.9374   1413.39294     483.4089     364.9374
   1413.37769     480.8907     362.6318   1413.37769     480.8907     362.6318
   1413.36243     478.2556     361.3784   1413.36243     478.2556     361.3784
   1413.34717     475.6425     359.2373   1413.34717     475.6425     359.2373
   1413.33191     473.2439     358.6577   1413.33191     473.2439     358.6577
   1413.31665     469.7746     357.0481   1413.31665     469.7746     357.0481
   1413.30139     467.8144     355.8653   1413.30139     467.8144     355.8653
   1413.28613     465.5016     354.4055   1413.28613     465.5016     354.4055
   1413.27087     463.5089     352.9709   1413.27087     463.5089     352.9709
   1413.25562     460.1063     351.3200   1413.25562     460.1063     351.3200
   1413.24036     458.0675     349.8222   1413.24036     458.0675     349.8222
   1413.22510     455.5588     349.0239   1413.22510     455.5588     349.0239
   1413.20984     453.2629     347.4293   1413.20984     453.2629     347.4293
   1413.19458     450.1298     346.2183   1413.19458     450.1298     346.2183
   1413.17932     448.0317     344.3557   1413.17932     448.0317     344.3557
   1413.16406     445.3430     343.3703   1413.16406     445.3430     343.3703
   1413.14880     443.1974     342.0934   1413.14880     443.1974     342.0934
   1413.13354     440.4129     340.8759   1413.13354     440.4129     340.8759
   1413.11829     438.1875     339.5107   1413.11829     438.1875     339.5107
   1413.10303     436.5635     337.9205   1413.10303     436.5635     337.9205
   1413.08777     434.1041     337.3973   1413.08777     434.1041     337.3973
   1413.07251     432.2767     336.4368   1413.07251     432.2767     336.4368
   1413.05725     429.2185     335.3465   1413.05725     429.2185     335.3465
   1413.04199     427.3694     333.9728   1413.04199     427.3694     333.9728
   1413.02673     425.2321     332.9896   1413.02673     425.2321     332.9896
   1413.01147     423.1915     332.1512   1413.01147     423.1915     332.1512
   1412.99622     420.9572     331.1925   1412.99622     420.9572     331.1925
   1412.98096     419.0964     330.4077   1412.98096     419.0964     330.4077
   1412.96570     417.1709     329.3884   1412.96570     417.1709     329.3884
   1412.95044     415.0230     328.2976   1412.95044     415.0230     328.2976
   1412.93518     413.9338     327.4637   1412.93518     413.9338     327.4637
   1412.91992     411.1480     326.4611   1412.91992     411.1480     326.4611
   1412.90466     409.2014     325.8068   1412.90466     409.2014     325.8068
   1412.88940     408.0559     324.8162   1412.88940     408.0559     324.8162
   1412.87415     405.4738     325.0396   1412.87415     405.4738     325.0396
   1412.85889     404.5482     324.1220   1412.85889     404.5482     324.1220
   1412.84363     402.7671     324.0084   1412.84363     402.7671     324.0084
   1412.82837     401.0339     322.5136   1412.82837     401.0339     322.5136
   1412.81311     399.6000     321.6918   1412.81311     399.6000     321.6918
   1412.79785     398.0625     321.6718   1412.79785     398.0625     321.6718
   1412.78259     396.4302     320.7920   1412.78259     396.4302     320.7920
   1412.76733     394.9417     321.1348   1412.76733     394.9417     321.1348
   1412.75208     394.0805     320.2368   1412.75208     394.0805     320.2368
   1412.73682     391.9624     320.4960   1412.73682     391.9624     320.4960
   1412.72156     390.7900     320.1295   1412.72156     390.7900     320.1295
   1412.70630     390.0665     320.2138   1412.70630     390.0665     320.2138
   1412.69104     388.4350     319.5058   1412.69104     388.4350     319.5058
   1412.67578     387.8572     319.7652   1412.67578     387.8572     319.7652
   1412.66052     386.6413     319.4381   1412.66052     386.6413     319.4381
   1412.64526     386.0871     319.2264   1412.64526     386.0871     319.2264
   1412.63000     384.7228     318.9337   1412.63000     384.7228     318.9337
   1412.61475     383.5178     318.8954   1412.61475     383.5178     318.8954
   1412.59949     382.9007     319.5690   1412.59949     382.9007     319.5690
   1412.58423     382.3914     320.1438   1412.58423     382.3914     320.1438
   1412.56897     381.3665     320.3265   1412.56897     381.3665     320.3265
   1412.55371     380.4967     320.2830   1412.55371     380.4967     320.2830
   1412.53845     379.5778     320.6717   1412.53845     379.5778     320.6717
   1412.52319     378.9081     321.1674   1412.52319     378.9081     321.1674
   1412.50793     379.2825     321.8469   1412.50793     379.2825     321.8469
   1412.49268     378.1099     321.7992   1412.49268     378.1099     321.7992
   1412.47742     376.7399     322.2157   1412.47742     376.7399     322.2157
   1412.46216     376.9865     323.3320   1412.46216     376.9865     323.3320
   1412.44690     376.3090     323.4918   1412.44690     376.3090     323.4918
   1412.43164     376.1025     324.8022   1412.43164     376.1025     324.8022
   1412.41638     376.5173     325.2796   1412.41638     376.5173     325.2796
   1412.40112     375.9152     326.1327   1412.40112     375.9152     326.1327
   1412.38586     375.0268     326.7802   1412.38586     375.0268     326.7802
   1412.37061     375.6032     327.8303   1412.37061     375.6032     327.8303
   1412.35535     375.2439     328.7052   1412.35535     375.2439     328.7052
   1412.34009     375.6578     329.8253   1412.34009     375.6578     329.8253
   1412.32483     376.7476     331.2877   1412.32483     376.7476     331.2877
   1412.30957     375.9572     332.5487   1412.30957     375.9572     332.5487
   1412.29431     376.0794     333.4549   1412.29431     376.0794     333.4549
   1412.27905     376.5125     334.6407   1412.27905     376.5125     334.6407
   1412.26379     376.5151     336.0610   1412.26379     376.5151     336.0610
   1412.24854     377.2365     337.3493   1412.24854     377.2365     337.3493
   1412.23328     377.6953     339.3555   1412.23328     377.6953     339.3555
   1412.21802     377.8708     339.9347   1412.21802     377.8708     339.9347
   1412.20276     378.7737     341.7587   1412.20276     378.7737     341.7587