#     FILENAME=!Skynet_57528_lach-hhg-156_20512_20980.cyb.fits
#     BASENAME=Skynet_57528_lach-hhg-156_20512_20980
#     SRC_NAME=lach-hhg-156
#     OBSERVER=hhgmadison16_9500
#     DATE_OBS=2016-05-20T17:49:46.680
#        OBSID=20512
#      SCANNUM=20980
#          MJD=57528.7439
#          UTC=64275
#     SCANTYPE=track
#     DATAMODE=HIRES
#     TUNEFREQ=1420.0000
# Actual_FREQ1=1420.0000
# Actual_FREQ2=1420.0000
#    LO1Tuning=6870.000
#     RFFILTER=1355_1435
#        OBSBW=-15.6250
#        NCHAN=1024 
#        FOCUS=37.0709
#           RA=04:31:22.13
#          DEC=48:13:50.42
#      RA(hrs)=4.522800
#     DEC(deg)=48.230700
#    AZIM(deg)=6.260
#    ELEV(deg)=80.027
#     IFattens=10.00, 9.00
#      WARNING=None
#    TCAL_XL1=7.9635
#    TCAL_YR1=9.1340
#    TCAL_XL2=7.9635
#    TCAL_YR2=9.1340
#     TRX_XL1=11.7060
#     TRX_YR1=11.7060
#     TRX_XL2=11.7060
#     TRX_YR2=11.7060
#        TAVE=1.0000
#Freq1(MHz)          XL1          YR1  Freq2(MHz)          XL2          YR2 

   1427.81250     377.2175     339.6338   1427.81250     377.2175     339.6338
   1427.79724     377.7975     341.1953   1427.79724     377.7975     341.1953
   1427.78198     378.5793     342.8022   1427.78198     378.5793     342.8022
   1427.76672     379.3586     344.1921   1427.76672     379.3586     344.1921
   1427.75146     379.8268     345.5095   1427.75146     379.8268     345.5095
   1427.73621     381.6172     347.4355   1427.73621     381.6172     347.4355
   1427.72095     381.9380     349.1527   1427.72095     381.9380     349.1527
   1427.70569     382.9390     351.3415   1427.70569     382.9390     351.3415
   1427.69043     384.1310     352.4427   1427.69043     384.1310     352.4427
   1427.67517     384.5698     354.8180   1427.67517     384.5698     354.8180
   1427.65991     385.9230     357.4168   1427.65991     385.9230     357.4168
   1427.64465     387.1862     358.9958   1427.64465     387.1862     358.9958
   1427.62939     388.2966     360.9963   1427.62939     388.2966     360.9963
   1427.61414     389.4602     363.0346   1427.61414     389.4602     363.0346
   1427.59888     390.8882     365.6304   1427.59888     390.8882     365.6304
   1427.58362     392.3399     366.8312   1427.58362     392.3399     366.8312
   1427.56836     394.3142     369.4171   1427.56836     394.3142     369.4171
   1427.55310     395.0659     371.5198   1427.55310     395.0659     371.5198
   1427.53784     397.6374     373.5002   1427.53784     397.6374     373.5002
   1427.52258     398.8290     376.1477   1427.52258     398.8290     376.1477
   1427.50732     399.5917     377.5001   1427.50732     399.5917     377.5001
   1427.49207     401.3690     380.5478   1427.49207     401.3690     380.5478
   1427.47681     402.6547     382.5752   1427.47681     402.6547     382.5752
   1427.46155     404.9362     385.2240   1427.46155     404.9362     385.2240
   1427.44629     406.6661     387.9789   1427.44629     406.6661     387.9789
   1427.43103     409.3542     390.5634   1427.43103     409.3542     390.5634
   1427.41577     410.6727     392.7640   1427.41577     410.6727     392.7640
   1427.40051     412.4811     395.6400   1427.40051     412.4811     395.6400
   1427.38525     413.8992     398.3005   1427.38525     413.8992     398.3005
   1427.37000     417.3531     400.1566   1427.37000     417.3531     400.1566
   1427.35474     418.5320     402.7643   1427.35474     418.5320     402.7643
   1427.33948     420.7108     405.1194   1427.33948     420.7108     405.1194
   1427.32422     422.3862     407.9645   1427.32422     422.3862     407.9645
   1427.30896     424.9897     410.4874   1427.30896     424.9897     410.4874
   1427.29370     426.9252     413.9434   1427.29370     426.9252     413.9434
   1427.27844     429.0269     415.0335   1427.27844     429.0269     415.0335
   1427.26318     431.3725     418.1968   1427.26318     431.3725     418.1968
   1427.24792     433.9212     420.6061   1427.24792     433.9212     420.6061
   1427.23267     436.8399     423.3275   1427.23267     436.8399     423.3275
   1427.21741     439.5100     426.1111   1427.21741     439.5100     426.1111
   1427.20215     441.3602     428.7744   1427.20215     441.3602     428.7744
   1427.18689     443.9319     431.5627   1427.18689     443.9319     431.5627
   1427.17163     446.1946     434.1816   1427.17163     446.1946     434.1816
   1427.15637     449.1754     436.8282   1427.15637     449.1754     436.8282
   1427.14111     451.5081     439.0336   1427.14111     451.5081     439.0336
   1427.12585     453.9279     441.9345   1427.12585     453.9279     441.9345
   1427.11060     456.9743     444.5397   1427.11060     456.9743     444.5397
   1427.09534     459.1187     448.0418   1427.09534     459.1187     448.0418
   1427.08008     462.0946     450.3426   1427.08008     462.0946     450.3426
   1427.06482     464.7879     452.1548   1427.06482     464.7879     452.1548
   1427.04956     467.3496     455.3069   1427.04956     467.3496     455.3069
   1427.03430     470.2023     457.7302   1427.03430     470.2023     457.7302
   1427.01904     473.4385     460.3166   1427.01904     473.4385     460.3166
   1427.00378     475.7544     463.0594   1427.00378     475.7544     463.0594
   1426.98853     477.6175     465.7220   1426.98853     477.6175     465.7220
   1426.97327     481.5766     468.9033   1426.97327     481.5766     468.9033
   1426.95801     484.3094     470.7044   1426.95801     484.3094     470.7044
   1426.94275     486.2800     473.6053   1426.94275     486.2800     473.6053
   1426.92749     489.7199     476.1247   1426.92749     489.7199     476.1247
   1426.91223     493.2380     478.8057   1426.91223     493.2380     478.8057
   1426.89697     496.3109     481.7332   1426.89697     496.3109     481.7332
   1426.88171     498.3615     484.0775   1426.88171     498.3615     484.0775
   1426.86646     502.4601     486.6770   1426.86646     502.4601     486.6770
   1426.85120     505.9070     489.0438   1426.85120     505.9070     489.0438
   1426.83594     508.2323     491.1936   1426.83594     508.2323     491.1936
   1426.82068     511.6466     494.6481   1426.82068     511.6466     494.6481
   1426.80542     514.0829     497.3168   1426.80542     514.0829     497.3168
   1426.79016     518.0206     499.7994   1426.79016     518.0206     499.7994
   1426.77490     520.0165     501.2086   1426.77490     520.0165     501.2086
   1426.75964     523.6413     503.8925   1426.75964     523.6413     503.8925
   1426.74438     527.4553     506.4906   1426.74438     527.4553     506.4906
   1426.72913     528.6693     508.9003   1426.72913     528.6693     508.9003
   1426.71387     532.7069     510.9752   1426.71387     532.7069     510.9752
   1426.69861     535.8713     513.1730   1426.69861     535.8713     513.1730
   1426.68335     539.6652     515.5571   1426.68335     539.6652     515.5571
   1426.66809     541.4305     517.4643   1426.66809     541.4305     517.4643
   1426.65283     544.8557     520.3356   1426.65283     544.8557     520.3356
   1426.63757     547.4265     522.4807   1426.63757     547.4265     522.4807
   1426.62231     552.8094     525.7711   1426.62231     552.8094     525.7711
   1426.60706     554.6812     526.7510   1426.60706     554.6812     526.7510
   1426.59180     557.6122     528.9628   1426.59180     557.6122     528.9628
   1426.57654     560.8089     530.2198   1426.57654     560.8089     530.2198
   1426.56128     563.5710     532.6196   1426.56128     563.5710     532.6196
   1426.54602     565.9919     535.3150   1426.54602     565.9919     535.3150
   1426.53076     569.2556     537.2972   1426.53076     569.2556     537.2972
   1426.51550     572.9301     539.7141   1426.51550     572.9301     539.7141
   1426.50024     575.7463     541.7540   1426.50024     575.7463     541.7540
   1426.48499     579.2759     544.4965   1426.48499     579.2759     544.4965
   1426.46973     583.1232     544.5748   1426.46973     583.1232     544.5748
   1426.45447     586.0151     548.1077   1426.45447     586.0151     548.1077
   1426.43921     588.4583     550.2676   1426.43921     588.4583     550.2676
   1426.42395     590.5787     551.1797   1426.42395     590.5787     551.1797
   1426.40869     594.3186     553.3710   1426.40869     594.3186     553.3710
   1426.39343     597.6751     553.8438   1426.39343     597.6751     553.8438
   1426.37817     601.2977     557.4955   1426.37817     601.2977     557.4955
   1426.36292     603.0133     559.1529   1426.36292     603.0133     559.1529
   1426.34766     606.5498     560.5314   1426.34766     606.5498     560.5314
   1426.33240     608.7357     562.0893   1426.33240     608.7357     562.0893
   1426.31714     612.4395     563.7650   1426.31714     612.4395     563.7650
   1426.30188     615.2502     565.1599   1426.30188     615.2502     565.1599
   1426.28662     618.0938     567.1500   1426.28662     618.0938     567.1500
   1426.27136     620.3531     568.2874   1426.27136     620.3531     568.2874
   1426.25610     623.6450     570.6158   1426.25610     623.6450     570.6158
   1426.24084     626.2403     572.8206   1426.24084     626.2403     572.8206
   1426.22559     629.5911     572.7987   1426.22559     629.5911     572.7987
   1426.21033     632.5096     575.2927   1426.21033     632.5096     575.2927
   1426.19507     635.3535     576.3717   1426.19507     635.3535     576.3717
   1426.17981     637.4400     577.9993   1426.17981     637.4400     577.9993
   1426.16455     641.3608     579.3178   1426.16455     641.3608     579.3178
   1426.14929     643.2812     581.3284   1426.14929     643.2812     581.3284
   1426.13403     646.8246     582.3157   1426.13403     646.8246     582.3157
   1426.11877     648.5204     583.4806   1426.11877     648.5204     583.4806
   1426.10352     653.2186     584.8813   1426.10352     653.2186     584.8813
   1426.08826     653.7209     586.1633   1426.08826     653.7209     586.1633
   1426.07300     658.0925     588.1768   1426.07300     658.0925     588.1768
   1426.05774     660.2622     589.1200   1426.05774     660.2622     589.1200
   1426.04248     662.0261     590.0211   1426.04248     662.0261     590.0211
   1426.02722     663.7484     591.6978   1426.02722     663.7484     591.6978
   1426.01196     667.8392     592.6642   1426.01196     667.8392     592.6642
   1425.99670     671.0831     593.8442   1425.99670     671.0831     593.8442
   1425.98145     671.8682     595.5723   1425.98145     671.8682     595.5723
   1425.96619     674.4377     596.4670   1425.96619     674.4377     596.4670
   1425.95093     677.1254     596.9807   1425.95093     677.1254     596.9807
   1425.93567     679.2568     597.3419   1425.93567     679.2568     597.3419
   1425.92041     681.5400     598.2183   1425.92041     681.5400     598.2183
   1425.90515     684.2010     600.0087   1425.90515     684.2010     600.0087
   1425.88989     686.8689     602.1503   1425.88989     686.8689     602.1503
   1425.87463     688.3828     602.1673   1425.87463     688.3828     602.1673
   1425.85938     691.1021     602.5348   1425.85938     691.1021     602.5348
   1425.84412     692.9528     604.1726   1425.84412     692.9528     604.1726
   1425.82886     694.7380     605.1221   1425.82886     694.7380     605.1221
   1425.81360     698.1791     604.9783   1425.81360     698.1791     604.9783
   1425.79834     699.9799     607.0504   1425.79834     699.9799     607.0504
   1425.78308     700.9830     607.2542   1425.78308     700.9830     607.2542
   1425.76782     704.3624     607.8969   1425.76782     704.3624     607.8969
   1425.75256     706.7343     608.8129   1425.75256     706.7343     608.8129
   1425.73730     707.3812     609.2560   1425.73730     707.3812     609.2560
   1425.72205     710.2987     609.8533   1425.72205     710.2987     609.8533
   1425.70679     711.4398     610.3234   1425.70679     711.4398     610.3234
   1425.69153     713.5040     611.0787   1425.69153     713.5040     611.0787
   1425.67627     715.3805     612.2790   1425.67627     715.3805     612.2790
   1425.66101     717.4882     613.2264   1425.66101     717.4882     613.2264
   1425.64575     719.8504     613.8248   1425.64575     719.8504     613.8248
   1425.63049     720.4036     613.5865   1425.63049     720.4036     613.5865
   1425.61523     722.1156     615.3525   1425.61523     722.1156     615.3525
   1425.59998     723.9039     615.2914   1425.59998     723.9039     615.2914
   1425.58472     726.3258     616.5101   1425.58472     726.3258     616.5101
   1425.56946     727.3985     617.1768   1425.56946     727.3985     617.1768
   1425.55420     729.9551     617.0634   1425.55420     729.9551     617.0634
   1425.53894     728.9781     617.5899   1425.53894     728.9781     617.5899
   1425.52368     731.4581     617.4902   1425.52368     731.4581     617.4902
   1425.50842     735.1047     618.2534   1425.50842     735.1047     618.2534
   1425.49316     734.3925     619.1761   1425.49316     734.3925     619.1761
   1425.47791     735.7226     618.0887   1425.47791     735.7226     618.0887
   1425.46265     738.5292     619.3674   1425.46265     738.5292     619.3674
   1425.44739     739.4623     620.3832   1425.44739     739.4623     620.3832
   1425.43213     742.3746     619.9012   1425.43213     742.3746     619.9012
   1425.41687     741.4848     621.3497   1425.41687     741.4848     621.3497
   1425.40161     742.7594     620.1018   1425.40161     742.7594     620.1018
   1425.38635     745.8394     620.5399   1425.38635     745.8394     620.5399
   1425.37109     746.3491     621.8603   1425.37109     746.3491     621.8603
   1425.35583     746.6019     621.7864   1425.35583     746.6019     621.7864
   1425.34058     747.7379     622.0180   1425.34058     747.7379     622.0180
   1425.32532     748.4777     622.3461   1425.32532     748.4777     622.3461
   1425.31006     749.8608     622.9011   1425.31006     749.8608     622.9011
   1425.29480     752.2361     623.7150   1425.29480     752.2361     623.7150
   1425.27954     752.1715     623.5294   1425.27954     752.1715     623.5294
   1425.26428     753.9736     623.7428   1425.26428     753.9736     623.7428
   1425.24902     754.2311     623.3257   1425.24902     754.2311     623.3257
   1425.23376     756.4543     622.4080   1425.23376     756.4543     622.4080
   1425.21851     755.9177     623.5880   1425.21851     755.9177     623.5880
   1425.20325     757.1937     624.3635   1425.20325     757.1937     624.3635
   1425.18799     758.0925     623.3522   1425.18799     758.0925     623.3522
   1425.17273     757.7187     623.9841   1425.17273     757.7187     623.9841
   1425.15747     759.1398     623.7355   1425.15747     759.1398     623.7355
   1425.14221     759.4589     624.4709   1425.14221     759.4589     624.4709
   1425.12695     762.5771     625.0131   1425.12695     762.5771     625.0131
   1425.11169     762.1984     624.6408   1425.11169     762.1984     624.6408
   1425.09644     762.9907     624.1348   1425.09644     762.9907     624.1348
   1425.08118     762.3104     624.4471   1425.08118     762.3104     624.4471
   1425.06592     762.4358     624.7844   1425.06592     762.4358     624.7844
   1425.05066     763.3976     624.5121   1425.05066     763.3976     624.5121
   1425.03540     764.5790     624.9041   1425.03540     764.5790     624.9041
   1425.02014     765.2109     624.3265   1425.02014     765.2109     624.3265
   1425.00488     764.2522     624.8024   1425.00488     764.2522     624.8024
   1424.98962     767.4476     624.4164   1424.98962     767.4476     624.4164
   1424.97437     766.6149     625.0007   1424.97437     766.6149     625.0007
   1424.95911     766.9521     624.0522   1424.95911     766.9521     624.0522
   1424.94385     766.9177     623.7238   1424.94385     766.9177     623.7238
   1424.92859     768.1674     624.3829   1424.92859     768.1674     624.3829
   1424.91333     768.5319     624.3811   1424.91333     768.5319     624.3811
   1424.89807     768.6378     623.2465   1424.89807     768.6378     623.2465
   1424.88281     767.5967     623.1127   1424.88281     767.5967     623.1127
   1424.86755     767.7467     623.5685   1424.86755     767.7467     623.5685
   1424.85229     769.1837     623.5560   1424.85229     769.1837     623.5560
   1424.83704     768.8750     622.5018   1424.83704     768.8750     622.5018
   1424.82178     768.3024     623.7844   1424.82178     768.3024     623.7844
   1424.80652     769.7386     622.5754   1424.80652     769.7386     622.5754
   1424.79126     769.7101     622.6920   1424.79126     769.7101     622.6920
   1424.77600     770.6882     623.0328   1424.77600     770.6882     623.0328
   1424.76074     769.5172     621.8079   1424.76074     769.5172     621.8079
   1424.74548     770.7382     622.5280   1424.74548     770.7382     622.5280
   1424.73022     770.3229     621.9288   1424.73022     770.3229     621.9288
   1424.71497     769.5245     621.0582   1424.71497     769.5245     621.0582
   1424.69971     770.7101     620.9480   1424.69971     770.7101     620.9480
   1424.68445     770.3754     621.3408   1424.68445     770.3754     621.3408
   1424.66919     771.1818     620.2120   1424.66919     771.1818     620.2120
   1424.65393     771.2245     620.8650   1424.65393     771.2245     620.8650
   1424.63867     770.4595     620.0792   1424.63867     770.4595     620.0792
   1424.62341     770.4160     619.1020   1424.62341     770.4160     619.1020
   1424.60815     769.8152     620.2079   1424.60815     769.8152     620.2079
   1424.59290     769.8993     619.8656   1424.59290     769.8993     619.8656
   1424.57764     771.0099     618.8925   1424.57764     771.0099     618.8925
   1424.56238     768.7422     619.1633   1424.56238     768.7422     619.1633
   1424.54712     768.6082     619.4393   1424.54712     768.6082     619.4393
   1424.53186     769.7715     617.7830   1424.53186     769.7715     617.7830
   1424.51660     769.4508     617.1902   1424.51660     769.4508     617.1902
   1424.50134     769.6309     618.0731   1424.50134     769.6309     618.0731
   1424.48608     768.7379     616.4699   1424.48608     768.7379     616.4699
   1424.47083     768.4512     616.7691   1424.47083     768.4512     616.7691
   1424.45557     769.1652     615.7576   1424.45557     769.1652     615.7576
   1424.44031     768.1470     616.2415   1424.44031     768.1470     616.2415
   1424.42505     766.7651     616.0525   1424.42505     766.7651     616.0525
   1424.40979     767.7671     614.4266   1424.40979     767.7671     614.4266
   1424.39453     767.5088     614.8774   1424.39453     767.5088     614.8774
   1424.37927     766.6599     614.1138   1424.37927     766.6599     614.1138
   1424.36401     767.0224     613.7338   1424.36401     767.0224     613.7338
   1424.34875     766.2095     613.8194   1424.34875     766.2095     613.8194
   1424.33350     766.2414     612.0618   1424.33350     766.2414     612.0618
   1424.31824     765.5303     612.0189   1424.31824     765.5303     612.0189
   1424.30298     766.3269     612.2053   1424.30298     766.3269     612.2053
   1424.28772     764.3107     611.7703   1424.28772     764.3107     611.7703
   1424.27246     764.2514     610.7910   1424.27246     764.2514     610.7910
   1424.25720     764.0522     611.3370   1424.25720     764.0522     611.3370
   1424.24194     763.7274     611.1515   1424.24194     763.7274     611.1515
   1424.22668     762.7411     610.6701   1424.22668     762.7411     610.6701
   1424.21143     763.4969     609.9462   1424.21143     763.4969     609.9462
   1424.19617     761.8984     610.0936   1424.19617     761.8984     610.0936
   1424.18091     762.1345     608.7723   1424.18091     762.1345     608.7723
   1424.16565     762.2881     609.1010   1424.16565     762.2881     609.1010
   1424.15039     761.6727     608.4570   1424.15039     761.6727     608.4570
   1424.13513     761.0084     606.3111   1424.13513     761.0084     606.3111
   1424.11987     760.4813     606.7633   1424.11987     760.4813     606.7633
   1424.10461     758.9270     605.9958   1424.10461     758.9270     605.9958
   1424.08936     759.8464     605.3156   1424.08936     759.8464     605.3156
   1424.07410     758.4887     606.1447   1424.07410     758.4887     606.1447
   1424.05884     758.6725     604.7260   1424.05884     758.6725     604.7260
   1424.04358     759.1813     604.3583   1424.04358     759.1813     604.3583
   1424.02832     757.9239     604.9300   1424.02832     757.9239     604.9300
   1424.01306     756.7054     603.0429   1424.01306     756.7054     603.0429
   1423.99780     756.7037     603.0104   1423.99780     756.7037     603.0104
   1423.98254     756.8294     602.6696   1423.98254     756.8294     602.6696
   1423.96729     753.6146     602.9515   1423.96729     753.6146     602.9515
   1423.95203     755.5857     601.8749   1423.95203     755.5857     601.8749
   1423.93677     755.3722     601.2397   1423.93677     755.3722     601.2397
   1423.92151     754.4628     601.3375   1423.92151     754.4628     601.3375
   1423.90625     754.3422     601.1264   1423.90625     754.3422     601.1264
   1423.89099     753.9000     599.8467   1423.89099     753.9000     599.8467
   1423.87573     753.4342     599.9221   1423.87573     753.4342     599.9221
   1423.86047     752.8287     599.1628   1423.86047     752.8287     599.1628
   1423.84521     752.3312     599.5694   1423.84521     752.3312     599.5694
   1423.82996     751.3549     597.3111   1423.82996     751.3549     597.3111
   1423.81470     750.8769     597.6772   1423.81470     750.8769     597.6772
   1423.79944     749.9677     597.1562   1423.79944     749.9677     597.1562
   1423.78418     750.3131     596.3319   1423.78418     750.3131     596.3319
   1423.76892     748.7473     595.5489   1423.76892     748.7473     595.5489
   1423.75366     749.3932     595.5894   1423.75366     749.3932     595.5894
   1423.73840     748.0586     594.8729   1423.73840     748.0586     594.8729
   1423.72314     747.9375     594.1337   1423.72314     747.9375     594.1337
   1423.70789     746.3006     594.0613   1423.70789     746.3006     594.0613
   1423.69263     746.6562     593.6295   1423.69263     746.6562     593.6295
   1423.67737     747.8767     591.8163   1423.67737     747.8767     591.8163
   1423.66211     745.4554     593.1432   1423.66211     745.4554     593.1432
   1423.64685     745.8896     591.3925   1423.64685     745.8896     591.3925
   1423.63159     745.1146     590.7169   1423.63159     745.1146     590.7169
   1423.61633     745.1217     590.8584   1423.61633     745.1217     590.8584
   1423.60107     743.7110     589.9785   1423.60107     743.7110     589.9785
   1423.58582     743.5249     590.7881   1423.58582     743.5249     590.7881
   1423.57056     743.0530     587.7328   1423.57056     743.0530     587.7328
   1423.55530     742.4033     588.8106   1423.55530     742.4033     588.8106
   1423.54004     741.4687     587.3607   1423.54004     741.4687     587.3607
   1423.52478     742.2007     587.5931   1423.52478     742.2007     587.5931
   1423.50952     740.6619     586.5660   1423.50952     740.6619     586.5660
   1423.49426     741.1194     585.3654   1423.49426     741.1194     585.3654
   1423.47900     741.1647     585.6086   1423.47900     741.1647     585.6086
   1423.46375     738.8329     584.4053   1423.46375     738.8329     584.4053
   1423.44849     738.5742     584.5185   1423.44849     738.5742     584.5185
   1423.43323     738.3862     583.8865   1423.43323     738.3862     583.8865
   1423.41797     739.4840     582.6885   1423.41797     739.4840     582.6885
   1423.40271     737.7759     582.7561   1423.40271     737.7759     582.7561
   1423.38745     737.5590     582.0569   1423.38745     737.5590     582.0569
   1423.37219     736.6194     581.1717   1423.37219     736.6194     581.1717
   1423.35693     736.6273     580.6667   1423.35693     736.6273     580.6667
   1423.34167     736.6276     581.3251   1423.34167     736.6276     581.3251
   1423.32642     735.8148     579.2053   1423.32642     735.8148     579.2053
   1423.31116     733.6735     579.4834   1423.31116     733.6735     579.4834
   1423.29590     734.9537     578.1371   1423.29590     734.9537     578.1371
   1423.28064     734.5173     577.9515   1423.28064     734.5173     577.9515
   1423.26538     732.9106     576.8383   1423.26538     732.9106     576.8383
   1423.25012     734.5374     577.3023   1423.25012     734.5374     577.3023
   1423.23486     732.9307     576.3281   1423.23486     732.9307     576.3281
   1423.21960     732.3114     574.7062   1423.21960     732.3114     574.7062
   1423.20435     732.9803     575.2196   1423.20435     732.9803     575.2196
   1423.18909     732.9330     574.7787   1423.18909     732.9330     574.7787
   1423.17383     731.9078     573.7401   1423.17383     731.9078     573.7401
   1423.15857     731.6669     573.3687   1423.15857     731.6669     573.3687
   1423.14331     731.4451     572.4027   1423.14331     731.4451     572.4027
   1423.12805     730.4840     572.2127   1423.12805     730.4840     572.2127
   1423.11279     729.7455     570.4427   1423.11279     729.7455     570.4427
   1423.09753     730.3099     569.9029   1423.09753     730.3099     569.9029
   1423.08228     729.6596     570.5074   1423.08228     729.6596     570.5074
   1423.06702     729.2542     568.7938   1423.06702     729.2542     568.7938
   1423.05176     728.9283     568.9462   1423.05176     728.9283     568.9462
   1423.03650     728.2722     567.4045   1423.03650     728.2722     567.4045
   1423.02124     728.7809     566.0641   1423.02124     728.7809     566.0641
   1423.00598     727.4459     566.6451   1423.00598     727.4459     566.6451
   1422.99072     727.0055     565.1084   1422.99072     727.0055     565.1084
   1422.97546     726.9658     564.0071   1422.97546     726.9658     564.0071
   1422.96021     727.7643     564.0193   1422.96021     727.7643     564.0193
   1422.94495     726.3207     562.9591   1422.94495     726.3207     562.9591
   1422.92969     725.7986     562.6566   1422.92969     725.7986     562.6566
   1422.91443     726.3459     561.9771   1422.91443     726.3459     561.9771
   1422.89917     725.6797     560.9471   1422.89917     725.6797     560.9471
   1422.88391     725.0163     560.6451   1422.88391     725.0163     560.6451
   1422.86865     724.5986     559.8336   1422.86865     724.5986     559.8336
   1422.85339     724.8378     559.2670   1422.85339     724.8378     559.2670
   1422.83813     725.7048     558.2668   1422.83813     725.7048     558.2668
   1422.82288     724.4103     557.8278   1422.82288     724.4103     557.8278
   1422.80762     723.8154     556.7453   1422.80762     723.8154     556.7453
   1422.79236     725.1233     556.2253   1422.79236     725.1233     556.2253
   1422.77710     723.3564     555.6735   1422.77710     723.3564     555.6735
   1422.76184     723.9063     554.5692   1422.76184     723.9063     554.5692
   1422.74658     723.0059     554.6419   1422.74658     723.0059     554.6419
   1422.73132     724.0605     553.9055   1422.73132     724.0605     553.9055
   1422.71606     722.8311     552.8148   1422.71606     722.8311     552.8148
   1422.70081     721.8405     551.5279   1422.70081     721.8405     551.5279
   1422.68555     722.7585     551.0460   1422.68555     722.7585     551.0460
   1422.67029     722.0813     550.6910   1422.67029     722.0813     550.6910
   1422.65503     721.1041     550.2214   1422.65503     721.1041     550.2214
   1422.63977     721.0275     549.9021   1422.63977     721.0275     549.9021
   1422.62451     721.5836     548.4672   1422.62451     721.5836     548.4672
   1422.60925     722.4714     547.6334   1422.60925     722.4714     547.6334
   1422.59399     721.2393     547.2142   1422.59399     721.2393     547.2142
   1422.57874     719.9637     545.9672   1422.57874     719.9637     545.9672
   1422.56348     720.9018     545.6159   1422.56348     720.9018     545.6159
   1422.54822     721.4590     544.2059   1422.54822     721.4590     544.2059
   1422.53296     720.0428     544.4011   1422.53296     720.0428     544.4011
   1422.51770     721.4667     542.5461   1422.51770     721.4667     542.5461
   1422.50244     719.9936     542.4075   1422.50244     719.9936     542.4075
   1422.48718     719.2093     541.1514   1422.48718     719.2093     541.1514
   1422.47192     719.9990     541.1681   1422.47192     719.9990     541.1681
   1422.45667     720.4222     540.4604   1422.45667     720.4222     540.4604
   1422.44141     719.0455     539.5130   1422.44141     719.0455     539.5130
   1422.42615     718.6447     538.4464   1422.42615     718.6447     538.4464
   1422.41089     719.9012     537.5565   1422.41089     719.9012     537.5565
   1422.39563     718.3103     536.2890   1422.39563     718.3103     536.2890
   1422.38037     719.8450     536.4330   1422.38037     719.8450     536.4330
   1422.36511     718.8275     535.4467   1422.36511     718.8275     535.4467
   1422.34985     718.2750     534.9515   1422.34985     718.2750     534.9515
   1422.33459     718.0942     533.4299   1422.33459     718.0942     533.4299
   1422.31934     718.1537     532.8361   1422.31934     718.1537     532.8361
   1422.30408     719.1567     532.1163   1422.30408     719.1567     532.1163
   1422.28882     718.8116     530.8466   1422.28882     718.8116     530.8466
   1422.27356     717.4403     530.1531   1422.27356     717.4403     530.1531
   1422.25830     717.6042     529.5564   1422.25830     717.6042     529.5564
   1422.24304     718.7160     528.8321   1422.24304     718.7160     528.8321
   1422.22778     717.8992     527.4861   1422.22778     717.8992     527.4861
   1422.21252     718.9934     528.0617   1422.21252     718.9934     528.0617
   1422.19727     717.7669     526.7159   1422.19727     717.7669     526.7159
   1422.18201     717.9028     525.5692   1422.18201     717.9028     525.5692
   1422.16675     717.3701     524.9980   1422.16675     717.3701     524.9980
   1422.15149     717.2610     523.9801   1422.15149     717.2610     523.9801
   1422.13623     717.2400     522.8583   1422.13623     717.2400     522.8583
   1422.12097     717.5795     523.6094   1422.12097     717.5795     523.6094
   1422.10571     716.4688     521.2255   1422.10571     716.4688     521.2255
   1422.09045     717.2731     521.4733   1422.09045     717.2731     521.4733
   1422.07520     716.6580     519.8508   1422.07520     716.6580     519.8508
   1422.05994     717.6013     519.1577   1422.05994     717.6013     519.1577
   1422.04468     716.8760     518.2455   1422.04468     716.8760     518.2455
   1422.02942     717.5359     517.4851   1422.02942     717.5359     517.4851
   1422.01416     716.5505     516.5611   1422.01416     716.5505     516.5611
   1421.99890     717.7430     515.5627   1421.99890     717.7430     515.5627
   1421.98364     717.9735     514.0904   1421.98364     717.9735     514.0904
   1421.96838     716.8422     514.0821   1421.96838     716.8422     514.0821
   1421.95312     716.1281     513.4265   1421.95312     716.1281     513.4265
   1421.93787     714.7312     512.1526   1421.93787     714.7312     512.1526
   1421.92261     716.4970     510.6093   1421.92261     716.4970     510.6093
   1421.90735     716.9371     511.3464   1421.90735     716.9371     511.3464
   1421.89209     716.8162     508.8772   1421.89209     716.8162     508.8772
   1421.87683     716.8404     508.8485   1421.87683     716.8404     508.8485
   1421.86157     716.2901     508.0661   1421.86157     716.2901     508.0661
   1421.84631     716.0699     506.9043   1421.84631     716.0699     506.9043
   1421.83105     715.4044     505.3990   1421.83105     715.4044     505.3990
   1421.81580     715.5469     505.5655   1421.81580     715.5469     505.5655
   1421.80054     716.5071     504.8226   1421.80054     716.5071     504.8226
   1421.78528     715.8278     502.7995   1421.78528     715.8278     502.7995
   1421.77002     716.6990     503.0114   1421.77002     716.6990     503.0114
   1421.75476     716.6724     501.7681   1421.75476     716.6724     501.7681
   1421.73950     715.2053     501.1055   1421.73950     715.2053     501.1055
   1421.72424     715.8448     499.2293   1421.72424     715.8448     499.2293
   1421.70898     715.1299     500.0253   1421.70898     715.1299     500.0253
   1421.69373     716.1732     498.1266   1421.69373     716.1732     498.1266
   1421.67847     715.3013     497.1002   1421.67847     715.3013     497.1002
   1421.66321     713.6572     496.5046   1421.66321     713.6572     496.5046
   1421.64795     715.3992     495.9726   1421.64795     715.3992     495.9726
   1421.63269     715.9661     494.3838   1421.63269     715.9661     494.3838
   1421.61743     715.2483     493.6078   1421.61743     715.2483     493.6078
   1421.60217     713.8087     493.1260   1421.60217     713.8087     493.1260
   1421.58691     715.0262     491.7267   1421.58691     715.0262     491.7267
   1421.57166     714.7315     490.9431   1421.57166     714.7315     490.9431
   1421.55640     715.3800     490.0649   1421.55640     715.3800     490.0649
   1421.54114     715.8359     489.5544   1421.54114     715.8359     489.5544
   1421.52588     714.8450     488.2403   1421.52588     714.8450     488.2403
   1421.51062     714.7050     487.5945   1421.51062     714.7050     487.5945
   1421.49536     714.9562     486.9298   1421.49536     714.9562     486.9298
   1421.48010     714.6738     485.1837   1421.48010     714.6738     485.1837
   1421.46484     714.0021     484.4268   1421.46484     714.0021     484.4268
   1421.44958     715.4713     483.7733   1421.44958     715.4713     483.7733
   1421.43433     715.0170     482.8165   1421.43433     715.0170     482.8165
   1421.41907     714.6613     481.7048   1421.41907     714.6613     481.7048
   1421.40381     714.4379     481.4361   1421.40381     714.4379     481.4361
   1421.38855     713.7134     479.3870   1421.38855     713.7134     479.3870
   1421.37329     714.1730     479.2897   1421.37329     714.1730     479.2897
   1421.35803     713.9811     478.5618   1421.35803     713.9811     478.5618
   1421.34277     715.2418     477.5687   1421.34277     715.2418     477.5687
   1421.32751     713.6567     476.6533   1421.32751     713.6567     476.6533
   1421.31226     712.8678     476.4508   1421.31226     712.8678     476.4508
   1421.29700     713.2683     474.8336   1421.29700     713.2683     474.8336
   1421.28174     712.9574     474.0677   1421.28174     712.9574     474.0677
   1421.26648     714.4214     473.2964   1421.26648     714.4214     473.2964
   1421.25122     713.8954     472.1479   1421.25122     713.8954     472.1479
   1421.23596     712.1360     471.5445   1421.23596     712.1360     471.5445
   1421.22070     712.7115     469.7976   1421.22070     712.7115     469.7976
   1421.20544     712.7870     469.1574   1421.20544     712.7870     469.1574
   1421.19019     711.9194     467.9250   1421.19019     711.9194     467.9250
   1421.17493     712.4913     467.5728   1421.17493     712.4913     467.5728
   1421.15967     711.7930     467.0172   1421.15967     711.7930     467.0172
   1421.14441     710.9379     464.6448   1421.14441     710.9379     464.6448
   1421.12915     712.1321     464.3859   1421.12915     712.1321     464.3859
   1421.11389     711.8719     464.0508   1421.11389     711.8719     464.0508
   1421.09863     711.6312     462.8303   1421.09863     711.6312     462.8303
   1421.08337     712.0175     462.9255   1421.08337     712.0175     462.9255
   1421.06812     712.2333     461.0020   1421.06812     712.2333     461.0020
   1421.05286     712.4852     460.4271   1421.05286     712.4852     460.4271
   1421.03760     710.4619     459.8180   1421.03760     710.4619     459.8180
   1421.02234     712.5614     458.7593   1421.02234     712.5614     458.7593
   1421.00708     711.8885     459.1151   1421.00708     711.8885     459.1151
   1420.99182     713.5872     457.2479   1420.99182     713.5872     457.2479
   1420.97656     713.7294     457.3221   1420.97656     713.7294     457.3221
   1420.96130     714.4214     456.1768   1420.96130     714.4214     456.1768
   1420.94604     715.9587     456.9330   1420.94604     715.9587     456.9330
   1420.93079     717.1154     456.2589   1420.93079     717.1154     456.2589
   1420.91553     717.9853     455.9974   1420.91553     717.9853     455.9974
   1420.90027     719.4322     456.1289   1420.90027     719.4322     456.1289
   1420.88501     719.0594     456.2787   1420.88501     719.0594     456.2787
   1420.86975     720.7269     455.8177   1420.86975     720.7269     455.8177
   1420.85449     720.7491     454.7817   1420.85449     720.7491     454.7817
   1420.83923     720.4604     454.1138   1420.83923     720.4604     454.1138
   1420.82397     720.8771     454.5732   1420.82397     720.8771     454.5732
   1420.80872     722.1844     453.8964   1420.80872     722.1844     453.8964
   1420.79346     725.0359     454.8264   1420.79346     725.0359     454.8264
   1420.77820     727.9211     455.8758   1420.77820     727.9211     455.8758
   1420.76294     731.0563     457.4891   1420.76294     731.0563     457.4891
   1420.74768     740.7938     461.2165   1420.74768     740.7938     461.2165
   1420.73242     755.8995     470.6285   1420.73242     755.8995     470.6285
   1420.71716     757.6036     471.0919   1420.71716     757.6036     471.0919
   1420.70190     761.1528     471.3629   1420.70190     761.1528     471.3629
   1420.68665     773.5193     478.8174   1420.68665     773.5193     478.8174
   1420.67139     796.3423     491.3109   1420.67139     796.3423     491.3109
   1420.65613     812.2623     500.1859   1420.65613     812.2623     500.1859
   1420.64087     831.6971     511.1055   1420.64087     831.6971     511.1055
   1420.62561     910.3828     555.6733   1420.62561     910.3828     555.6733
   1420.61035    1195.4559     723.3942   1420.61035    1195.4559     723.3942
   1420.59509    1546.0389     930.7971   1420.59509    1546.0389     930.7971
   1420.57983    1622.0250     975.0943   1420.57983    1622.0250     975.0943
   1420.56458    1633.0321     978.6009   1420.56458    1633.0321     978.6009
   1420.54932    1758.0885    1049.2883   1420.54932    1758.0885    1049.2883
   1420.53406    1998.4137    1190.1394   1420.53406    1998.4137    1190.1394
   1420.51880    2232.7227    1328.3005   1420.51880    2232.7227    1328.3005
   1420.50354    2286.9326    1355.3290   1420.50354    2286.9326    1355.3290
   1420.48828    2095.9319    1242.1206   1420.48828    2095.9319    1242.1206
   1420.47302    1983.7866    1173.3593   1420.47302    1983.7866    1173.3593
   1420.45776    2008.9103    1187.9282   1420.45776    2008.9103    1187.9282
   1420.44250    2001.8739    1182.9069   1420.44250    2001.8739    1182.9069
   1420.42725    1811.7830    1070.5477   1420.42725    1811.7830    1070.5477
   1420.41199    1685.9790     991.9030   1420.41199    1685.9790     991.9030
   1420.39673    1676.4055     989.1732   1420.39673    1676.4055     989.1732
   1420.38147    1696.2637     995.9077   1420.38147    1696.2637     995.9077
   1420.36621    1727.2738    1010.9700   1420.36621    1727.2738    1010.9700
   1420.35095    1575.8433     921.5500   1420.35095    1575.8433     921.5500
   1420.33569    1361.1801     798.1714   1420.33569    1361.1801     798.1714
   1420.32043    1002.3497     591.4771   1420.32043    1002.3497     591.4771
   1420.30518     850.2535     502.4734   1420.30518     850.2535     502.4734
   1420.28992     793.2709     468.7820   1420.28992     793.2709     468.7820
   1420.27466     757.6517     447.5049   1420.27466     757.6517     447.5049
   1420.25940     736.1115     435.2615   1420.25940     736.1115     435.2615
   1420.24414     724.3991     427.0323   1420.24414     724.3991     427.0323
   1420.22888     717.2706     423.0319   1420.22888     717.2706     423.0319
   1420.21362     713.6990     419.2355   1420.21362     713.6990     419.2355
   1420.19836     709.5781     417.2255   1420.19836     709.5781     417.2255
   1420.18311     707.7299     415.6121   1420.18311     707.7299     415.6121
   1420.16785     706.1248     413.8300   1420.16785     706.1248     413.8300
   1420.15259     705.0783     412.7458   1420.15259     705.0783     412.7458
   1420.13733     704.3367     411.7404   1420.13733     704.3367     411.7404
   1420.12207     703.0170     409.6723   1420.12207     703.0170     409.6723
   1420.10681     701.7821     409.4285   1420.10681     701.7821     409.4285
   1420.09155     701.0297     408.1713   1420.09155     701.0297     408.1713
   1420.07629     699.8453     407.6019   1420.07629     699.8453     407.6019
   1420.06104     699.6323     406.3513   1420.06104     699.6323     406.3513
   1420.04578     700.4464     406.0607   1420.04578     700.4464     406.0607
   1420.03052     698.8151     405.2124   1420.03052     698.8151     405.2124
   1420.01526     699.7573     404.4438   1420.01526     699.7573     404.4438
   1420.00000     700.9648     405.3120   1420.00000     700.9648     405.3120
   1419.98474     702.1719     406.1802   1419.98474     702.1719     406.1802
   1419.96948     701.3546     403.8303   1419.96948     701.3546     403.8303
   1419.95422     698.2902     401.8496   1419.95422     698.2902     401.8496
   1419.93896     697.4747     400.6238   1419.93896     697.4747     400.6238
   1419.92371     699.4838     399.7234   1419.92371     699.4838     399.7234
   1419.90845     698.1626     399.7458   1419.90845     698.1626     399.7458
   1419.89319     698.7067     398.8423   1419.89319     698.7067     398.8423
   1419.87793     698.4006     398.3309   1419.87793     698.4006     398.3309
   1419.86267     697.3976     398.1444   1419.86267     697.3976     398.1444
   1419.84741     698.6797     397.9820   1419.84741     698.6797     397.9820
   1419.83215     698.1331     396.9844   1419.83215     698.1331     396.9844
   1419.81689     697.2469     396.2858   1419.81689     697.2469     396.2858
   1419.80164     697.7043     396.4105   1419.80164     697.7043     396.4105
   1419.78638     698.7427     395.5231   1419.78638     698.7427     395.5231
   1419.77112     698.7794     394.2904   1419.77112     698.7794     394.2904
   1419.75586     697.2239     394.4680   1419.75586     697.2239     394.4680
   1419.74060     698.7736     394.4196   1419.74060     698.7736     394.4196
   1419.72534     698.2731     393.7226   1419.72534     698.2731     393.7226
   1419.71008     698.4771     393.9720   1419.71008     698.4771     393.9720
   1419.69482     697.6494     393.1003   1419.69482     697.6494     393.1003
   1419.67957     699.9788     392.1837   1419.67957     699.9788     392.1837
   1419.66431     698.7751     392.5250   1419.66431     698.7751     392.5250
   1419.64905     697.5898     391.8990   1419.64905     697.5898     391.8990
   1419.63379     700.0164     391.0111   1419.63379     700.0164     391.0111
   1419.61853     699.1293     390.6731   1419.61853     699.1293     390.6731
   1419.60327     698.4647     390.9963   1419.60327     698.4647     390.9963
   1419.58801     698.7458     390.8644   1419.58801     698.7458     390.8644
   1419.57275     699.0103     389.7552   1419.57275     699.0103     389.7552
   1419.55750     699.3047     390.3204   1419.55750     699.3047     390.3204
   1419.54224     700.4891     389.9776   1419.54224     700.4891     389.9776
   1419.52698     699.9380     389.5688   1419.52698     699.9380     389.5688
   1419.51172     701.1260     388.7792   1419.51172     701.1260     388.7792
   1419.49646     699.0865     388.6603   1419.49646     699.0865     388.6603
   1419.48120     700.1288     388.5461   1419.48120     700.1288     388.5461
   1419.46594     700.4239     388.2638   1419.46594     700.4239     388.2638
   1419.45068     701.1618     387.6534   1419.45068     701.1618     387.6534
   1419.43542     702.2662     387.0657   1419.43542     702.2662     387.0657
   1419.42017     702.3463     386.6901   1419.42017     702.3463     386.6901
   1419.40491     701.2294     386.8566   1419.40491     701.2294     386.8566
   1419.38965     700.9410     386.7031   1419.38965     700.9410     386.7031
   1419.37439     702.3740     386.5597   1419.37439     702.3740     386.5597
   1419.35913     703.1704     386.2571   1419.35913     703.1704     386.2571
   1419.34387     702.0811     386.5833   1419.34387     702.0811     386.5833
   1419.32861     702.0158     386.4786   1419.32861     702.0158     386.4786
   1419.31335     702.9435     385.9533   1419.31335     702.9435     385.9533
   1419.29810     703.2728     385.5639   1419.29810     703.2728     385.5639
   1419.28284     703.2611     386.2185   1419.28284     703.2611     386.2185
   1419.26758     704.7248     385.4117   1419.26758     704.7248     385.4117
   1419.25232     703.6608     384.8236   1419.25232     703.6608     384.8236
   1419.23706     704.3620     385.2170   1419.23706     704.3620     385.2170
   1419.22180     704.6784     385.2340   1419.22180     704.6784     385.2340
   1419.20654     704.7509     384.8937   1419.20654     704.7509     384.8937
   1419.19128     705.5469     385.2605   1419.19128     705.5469     385.2605
   1419.17603     705.4759     385.1931   1419.17603     705.4759     385.1931
   1419.16077     706.6309     385.1324   1419.16077     706.6309     385.1324
   1419.14551     706.9329     385.1255   1419.14551     706.9329     385.1255
   1419.13025     706.8635     384.8013   1419.13025     706.8635     384.8013
   1419.11499     708.2804     385.1787   1419.11499     708.2804     385.1787
   1419.09973     707.2836     384.5494   1419.09973     707.2836     384.5494
   1419.08447     707.6331     384.6432   1419.08447     707.6331     384.6432
   1419.06921     707.9464     384.8701   1419.06921     707.9464     384.8701
   1419.05396     708.3972     384.6490   1419.05396     708.3972     384.6490
   1419.03870     709.3958     384.5404   1419.03870     709.3958     384.5404
   1419.02344     708.9664     385.2478   1419.02344     708.9664     385.2478
   1419.00818     710.1078     385.0318   1419.00818     710.1078     385.0318
   1418.99292     709.2270     385.1477   1418.99292     709.2270     385.1477
   1418.97766     710.5444     385.1906   1418.97766     710.5444     385.1906
   1418.96240     711.3518     385.2384   1418.96240     711.3518     385.2384
   1418.94714     711.5576     385.1418   1418.94714     711.5576     385.1418
   1418.93188     711.8751     385.5403   1418.93188     711.8751     385.5403
   1418.91663     712.2040     385.5547   1418.91663     712.2040     385.5547
   1418.90137     713.3874     385.2034   1418.90137     713.3874     385.2034
   1418.88611     713.3988     385.4055   1418.88611     713.3988     385.4055
   1418.87085     713.8781     386.0377   1418.87085     713.8781     386.0377
   1418.85559     714.9027     385.6408   1418.85559     714.9027     385.6408
   1418.84033     714.6062     386.4898   1418.84033     714.6062     386.4898
   1418.82507     715.3001     386.1300   1418.82507     715.3001     386.1300
   1418.80981     715.5248     386.8914   1418.80981     715.5248     386.8914
   1418.79456     716.5862     386.6512   1418.79456     716.5862     386.6512
   1418.77930     715.6027     387.1091   1418.77930     715.6027     387.1091
   1418.76404     716.9030     387.3637   1418.76404     716.9030     387.3637
   1418.74878     717.6298     386.9023   1418.74878     717.6298     386.9023
   1418.73352     717.0317     388.2642   1418.73352     717.0317     388.2642
   1418.71826     718.4838     387.5953   1418.71826     718.4838     387.5953
   1418.70300     718.5856     387.4167   1418.70300     718.5856     387.4167
   1418.68774     718.6475     388.2332   1418.68774     718.6475     388.2332
   1418.67249     721.3703     388.2043   1418.67249     721.3703     388.2043
   1418.65723     720.3749     389.0958   1418.65723     720.3749     389.0958
   1418.64197     721.7896     388.9419   1418.64197     721.7896     388.9419
   1418.62671     721.6486     389.8917   1418.62671     721.6486     389.8917
   1418.61145     722.4929     390.0928   1418.61145     722.4929     390.0928
   1418.59619     723.7123     390.7331   1418.59619     723.7123     390.7331
   1418.58093     723.4497     390.6945   1418.58093     723.4497     390.6945
   1418.56567     724.4236     390.8047   1418.56567     724.4236     390.8047
   1418.55042     724.8762     391.5631   1418.55042     724.8762     391.5631
   1418.53516     725.4541     390.6295   1418.53516     725.4541     390.6295
   1418.51990     725.8017     392.2315   1418.51990     725.8017     392.2315
   1418.50464     725.8214     392.4336   1418.50464     725.8214     392.4336
   1418.48938     726.6565     393.2241   1418.48938     726.6565     393.2241
   1418.47412     727.5323     393.1208   1418.47412     727.5323     393.1208
   1418.45886     727.0679     393.9336   1418.45886     727.0679     393.9336
   1418.44360     729.4590     394.5888   1418.44360     729.4590     394.5888
   1418.42834     729.7241     394.5457   1418.42834     729.7241     394.5457
   1418.41309     730.9316     395.4404   1418.41309     730.9316     395.4404
   1418.39783     730.5294     395.6693   1418.39783     730.5294     395.6693
   1418.38257     732.0878     396.1062   1418.38257     732.0878     396.1062
   1418.36731     732.8871     396.6766   1418.36731     732.8871     396.6766
   1418.35205     733.4768     397.7309   1418.35205     733.4768     397.7309
   1418.33679     733.4233     397.7137   1418.33679     733.4233     397.7137
   1418.32153     734.1165     398.3626   1418.32153     734.1165     398.3626
   1418.30627     735.8640     398.8416   1418.30627     735.8640     398.8416
   1418.29102     735.9119     399.1680   1418.29102     735.9119     399.1680
   1418.27576     737.2787     399.9383   1418.27576     737.2787     399.9383
   1418.26050     737.3526     400.9002   1418.26050     737.3526     400.9002
   1418.24524     738.4595     401.9375   1418.24524     738.4595     401.9375
   1418.22998     738.4068     401.7545   1418.22998     738.4068     401.7545
   1418.21472     739.4236     403.0409   1418.21472     739.4236     403.0409
   1418.19946     739.9316     402.8661   1418.19946     739.9316     402.8661
   1418.18420     741.7502     403.9561   1418.18420     741.7502     403.9561
   1418.16895     741.0744     404.3328   1418.16895     741.0744     404.3328
   1418.15369     743.3064     404.9261   1418.15369     743.3064     404.9261
   1418.13843     743.5953     405.5846   1418.13843     743.5953     405.5846
   1418.12317     744.7209     406.8419   1418.12317     744.7209     406.8419
   1418.10791     744.7214     407.7380   1418.10791     744.7214     407.7380
   1418.09265     746.4376     408.5451   1418.09265     746.4376     408.5451
   1418.07739     745.2380     408.4174   1418.07739     745.2380     408.4174
   1418.06213     746.7925     409.2356   1418.06213     746.7925     409.2356
   1418.04688     748.4817     409.9066   1418.04688     748.4817     409.9066
   1418.03162     748.8433     410.1677   1418.03162     748.8433     410.1677
   1418.01636     750.0939     412.0950   1418.01636     750.0939     412.0950
   1418.00110     749.0495     412.6323   1418.00110     749.0495     412.6323
   1417.98584     751.0307     412.4417   1417.98584     751.0307     412.4417
   1417.97058     751.9509     413.6905   1417.97058     751.9509     413.6905
   1417.95532     752.1511     414.8280   1417.95532     752.1511     414.8280
   1417.94006     753.3452     415.7762   1417.94006     753.3452     415.7762
   1417.92480     755.0692     416.3110   1417.92480     755.0692     416.3110
   1417.90955     753.6110     416.6165   1417.90955     753.6110     416.6165
   1417.89429     756.9301     417.7488   1417.89429     756.9301     417.7488
   1417.87903     756.2768     418.5041   1417.87903     756.2768     418.5041
   1417.86377     756.8925     419.4836   1417.86377     756.8925     419.4836
   1417.84851     757.1205     421.0132   1417.84851     757.1205     421.0132
   1417.83325     758.4799     420.7452   1417.83325     758.4799     420.7452
   1417.81799     760.0673     421.8203   1417.81799     760.0673     421.8203
   1417.80273     760.8736     422.6218   1417.80273     760.8736     422.6218
   1417.78748     760.6633     423.5035   1417.78748     760.6633     423.5035
   1417.77222     762.1176     425.2204   1417.77222     762.1176     425.2204
   1417.75696     763.6542     425.7610   1417.75696     763.6542     425.7610
   1417.74170     763.7391     426.5281   1417.74170     763.7391     426.5281
   1417.72644     763.7642     427.9262   1417.72644     763.7642     427.9262
   1417.71118     767.1102     429.1415   1417.71118     767.1102     429.1415
   1417.69592     765.7977     429.6008   1417.69592     765.7977     429.6008
   1417.68066     766.3236     430.0555   1417.68066     766.3236     430.0555
   1417.66541     767.9083     431.6198   1417.66541     767.9083     431.6198
   1417.65015     768.5115     432.5441   1417.65015     768.5115     432.5441
   1417.63489     769.3505     432.9885   1417.63489     769.3505     432.9885
   1417.61963     770.9722     433.9733   1417.61963     770.9722     433.9733
   1417.60437     770.7233     435.2356   1417.60437     770.7233     435.2356
   1417.58911     771.2457     436.3761   1417.58911     771.2457     436.3761
   1417.57385     772.6302     437.0880   1417.57385     772.6302     437.0880
   1417.55859     772.6913     437.8951   1417.55859     772.6913     437.8951
   1417.54333     773.0692     439.5290   1417.54333     773.0692     439.5290
   1417.52808     775.3707     440.7173   1417.52808     775.3707     440.7173
   1417.51282     775.0177     441.3517   1417.51282     775.0177     441.3517
   1417.49756     774.9669     442.5874   1417.49756     774.9669     442.5874
   1417.48230     775.7391     443.7348   1417.48230     775.7391     443.7348
   1417.46704     777.0869     444.6300   1417.46704     777.0869     444.6300
   1417.45178     777.5154     445.9106   1417.45178     777.5154     445.9106
   1417.43652     778.8314     446.7481   1417.43652     778.8314     446.7481
   1417.42126     779.3201     447.4340   1417.42126     779.3201     447.4340
   1417.40601     781.6785     448.6517   1417.40601     781.6785     448.6517
   1417.39075     780.5218     449.8452   1417.39075     780.5218     449.8452
   1417.37549     781.4986     450.6858   1417.37549     781.4986     450.6858
   1417.36023     783.1304     451.8835   1417.36023     783.1304     451.8835
   1417.34497     783.5414     452.7256   1417.34497     783.5414     452.7256
   1417.32971     784.2119     454.1117   1417.32971     784.2119     454.1117
   1417.31445     784.9775     455.7172   1417.31445     784.9775     455.7172
   1417.29919     786.3813     456.0610   1417.29919     786.3813     456.0610
   1417.28394     785.7255     457.1621   1417.28394     785.7255     457.1621
   1417.26868     786.0883     458.4647   1417.26868     786.0883     458.4647
   1417.25342     786.6967     459.3925   1417.25342     786.6967     459.3925
   1417.23816     787.1166     459.5931   1417.23816     787.1166     459.5931
   1417.22290     790.7445     462.1799   1417.22290     790.7445     462.1799
   1417.20764     788.9434     463.2041   1417.20764     788.9434     463.2041
   1417.19238     789.4314     462.9907   1417.19238     789.4314     462.9907
   1417.17712     790.9307     465.3501   1417.17712     790.9307     465.3501
   1417.16187     790.6057     466.0558   1417.16187     790.6057     466.0558
   1417.14661     791.6476     466.6635   1417.14661     791.6476     466.6635
   1417.13135     792.5552     468.2545   1417.13135     792.5552     468.2545
   1417.11609     793.1041     469.6190   1417.11609     793.1041     469.6190
   1417.10083     793.5268     470.3404   1417.10083     793.5268     470.3404
   1417.08557     793.5417     471.7335   1417.08557     793.5417     471.7335
   1417.07031     794.1273     472.0921   1417.07031     794.1273     472.0921
   1417.05505     796.3458     474.0738   1417.05505     796.3458     474.0738
   1417.03979     794.2798     474.3276   1417.03979     794.2798     474.3276
   1417.02454     795.2156     475.6470   1417.02454     795.2156     475.6470
   1417.00928     796.0880     476.6627   1417.00928     796.0880     476.6627
   1416.99402     796.8931     478.1623   1416.99402     796.8931     478.1623
   1416.97876     797.1014     478.9601   1416.97876     797.1014     478.9601
   1416.96350     796.2325     480.4699   1416.96350     796.2325     480.4699
   1416.94824     797.5596     480.3665   1416.94824     797.5596     480.3665
   1416.93298     797.2249     482.7263   1416.93298     797.2249     482.7263
   1416.91772     798.3688     483.0733   1416.91772     798.3688     483.0733
   1416.90247     798.6534     483.7723   1416.90247     798.6534     483.7723
   1416.88721     799.8411     484.4671   1416.88721     799.8411     484.4671
   1416.87195     800.3002     485.8484   1416.87195     800.3002     485.8484
   1416.85669     800.0691     487.5155   1416.85669     800.0691     487.5155
   1416.84143     800.5408     488.3083   1416.84143     800.5408     488.3083
   1416.82617     800.3995     489.1325   1416.82617     800.3995     489.1325
   1416.81091     800.7844     489.7468   1416.81091     800.7844     489.7468
   1416.79565     801.0028     490.7308   1416.79565     801.0028     490.7308
   1416.78040     802.7682     491.9692   1416.78040     802.7682     491.9692
   1416.76514     802.8261     493.1081   1416.76514     802.8261     493.1081
   1416.74988     801.6384     493.3222   1416.74988     801.6384     493.3222
   1416.73462     801.3962     494.7415   1416.73462     801.3962     494.7415
   1416.71936     803.4960     495.6124   1416.71936     803.4960     495.6124
   1416.70410     803.6451     496.6974   1416.70410     803.6451     496.6974
   1416.68884     803.2103     497.1960   1416.68884     803.2103     497.1960
   1416.67358     803.7634     499.0173   1416.67358     803.7634     499.0173
   1416.65833     802.4271     499.6575   1416.65833     802.4271     499.6575
   1416.64307     802.1786     499.9911   1416.64307     802.1786     499.9911
   1416.62781     803.4719     500.9066   1416.62781     803.4719     500.9066
   1416.61255     803.4237     501.5201   1416.61255     803.4237     501.5201
   1416.59729     803.7098     502.5817   1416.59729     803.7098     502.5817
   1416.58203     803.2684     501.5362   1416.58203     803.2684     501.5362
   1416.56677     803.5508     503.9548   1416.56677     803.5508     503.9548
   1416.55151     804.5405     504.4999   1416.55151     804.5405     504.4999
   1416.53625     803.8956     504.6052   1416.53625     803.8956     504.6052
   1416.52100     803.3614     505.6923   1416.52100     803.3614     505.6923
   1416.50574     803.4032     506.9989   1416.50574     803.4032     506.9989
   1416.49048     803.5602     506.7469   1416.49048     803.5602     506.7469
   1416.47522     803.6849     507.9661   1416.47522     803.6849     507.9661
   1416.45996     803.8566     508.3194   1416.45996     803.8566     508.3194
   1416.44470     803.7171     508.6684   1416.44470     803.7171     508.6684
   1416.42944     802.6822     508.9630   1416.42944     802.6822     508.9630
   1416.41418     803.7640     511.1349   1416.41418     803.7640     511.1349
   1416.39893     803.4118     510.7346   1416.39893     803.4118     510.7346
   1416.38367     803.3979     510.6810   1416.38367     803.3979     510.6810
   1416.36841     803.1295     512.2985   1416.36841     803.1295     512.2985
   1416.35315     802.9334     512.3344   1416.35315     802.9334     512.3344
   1416.33789     802.4885     512.3376   1416.33789     802.4885     512.3376
   1416.32263     801.4087     512.9454   1416.32263     801.4087     512.9454
   1416.30737     801.3234     513.6598   1416.30737     801.3234     513.6598
   1416.29211     801.0459     513.7560   1416.29211     801.0459     513.7560
   1416.27686     801.3851     514.4346   1416.27686     801.3851     514.4346
   1416.26160     801.1664     515.0752   1416.26160     801.1664     515.0752
   1416.24634     800.9492     515.1119   1416.24634     800.9492     515.1119
   1416.23108     801.0110     515.3591   1416.23108     801.0110     515.3591
   1416.21582     800.8190     515.9065   1416.21582     800.8190     515.9065
   1416.20056     800.0485     515.7530   1416.20056     800.0485     515.7530
   1416.18530     799.9863     515.8702   1416.18530     799.9863     515.8702
   1416.17004     798.3337     516.5245   1416.17004     798.3337     516.5245
   1416.15479     798.5385     516.2665   1416.15479     798.5385     516.2665
   1416.13953     797.8185     517.2166   1416.13953     797.8185     517.2166
   1416.12427     797.1572     517.1472   1416.12427     797.1572     517.1472
   1416.10901     796.9514     517.7130   1416.10901     796.9514     517.7130
   1416.09375     797.1866     517.8424   1416.09375     797.1866     517.8424
   1416.07849     796.4694     518.3424   1416.07849     796.4694     518.3424
   1416.06323     796.2263     518.7656   1416.06323     796.2263     518.7656
   1416.04797     796.0121     518.3408   1416.04797     796.0121     518.3408
   1416.03271     794.2964     518.9440   1416.03271     794.2964     518.9440
   1416.01746     793.6682     518.7692   1416.01746     793.6682     518.7692
   1416.00220     793.5051     518.5825   1416.00220     793.5051     518.5825
   1415.98694     794.5824     519.5421   1415.98694     794.5824     519.5421
   1415.97168     791.4324     518.5378   1415.97168     791.4324     518.5378
   1415.95642     792.0242     518.4380   1415.95642     792.0242     518.4380
   1415.94116     790.8578     518.6741   1415.94116     790.8578     518.6741
   1415.92590     790.1781     519.5138   1415.92590     790.1781     519.5138
   1415.91064     789.9628     519.0732   1415.91064     789.9628     519.0732
   1415.89539     789.1645     519.3438   1415.89539     789.1645     519.3438
   1415.88013     788.5959     519.1537   1415.88013     788.5959     519.1537
   1415.86487     787.5955     520.2944   1415.86487     787.5955     520.2944
   1415.84961     788.1610     519.5133   1415.84961     788.1610     519.5133
   1415.83435     787.2411     518.9001   1415.83435     787.2411     518.9001
   1415.81909     785.5292     519.1025   1415.81909     785.5292     519.1025
   1415.80383     786.4104     518.8139   1415.80383     786.4104     518.8139
   1415.78857     785.3680     519.8611   1415.78857     785.3680     519.8611
   1415.77332     783.7770     519.2712   1415.77332     783.7770     519.2712
   1415.75806     782.4007     518.6903   1415.75806     782.4007     518.6903
   1415.74280     782.6499     519.5325   1415.74280     782.6499     519.5325
   1415.72754     781.4977     518.7770   1415.72754     781.4977     518.7770
   1415.71228     781.1189     518.1198   1415.71228     781.1189     518.1198
   1415.69702     780.5934     518.8450   1415.69702     780.5934     518.8450
   1415.68176     779.6871     518.4021   1415.68176     779.6871     518.4021
   1415.66650     779.2985     518.1292   1415.66650     779.2985     518.1292
   1415.65125     777.8937     517.7814   1415.65125     777.8937     517.7814
   1415.63599     776.8464     518.2239   1415.63599     776.8464     518.2239
   1415.62073     775.2318     517.7821   1415.62073     775.2318     517.7821
   1415.60547     776.6172     517.6213   1415.60547     776.6172     517.6213
   1415.59021     774.0423     517.5111   1415.59021     774.0423     517.5111
   1415.57495     773.4426     517.5154   1415.57495     773.4426     517.5154
   1415.55969     772.8425     517.6067   1415.55969     772.8425     517.6067
   1415.54443     771.8932     516.5198   1415.54443     771.8932     516.5198
   1415.52917     770.3065     516.6068   1415.52917     770.3065     516.6068
   1415.51392     770.4803     516.6456   1415.51392     770.4803     516.6456
   1415.49866     769.5697     515.7660   1415.49866     769.5697     515.7660
   1415.48340     767.6203     515.7598   1415.48340     767.6203     515.7598
   1415.46814     767.6468     515.5168   1415.46814     767.6468     515.5168
   1415.45288     767.9018     515.0715   1415.45288     767.9018     515.0715
   1415.43762     764.7449     515.6401   1415.43762     764.7449     515.6401
   1415.42236     762.8637     514.9421   1415.42236     762.8637     514.9421
   1415.40710     762.2413     515.0762   1415.40710     762.2413     515.0762
   1415.39185     761.5779     514.5073   1415.39185     761.5779     514.5073
   1415.37659     759.8598     513.4553   1415.37659     759.8598     513.4553
   1415.36133     759.8428     512.7849   1415.36133     759.8428     512.7849
   1415.34607     759.0806     513.4139   1415.34607     759.0806     513.4139
   1415.33081     756.9727     512.6918   1415.33081     756.9727     512.6918
   1415.31555     756.7921     511.9323   1415.31555     756.7921     511.9323
   1415.30029     753.6580     511.4632   1415.30029     753.6580     511.4632
   1415.28503     754.4489     511.8045   1415.28503     754.4489     511.8045
   1415.26978     753.0513     510.7847   1415.26978     753.0513     510.7847
   1415.25452     751.5407     510.7362   1415.25452     751.5407     510.7362
   1415.23926     751.1505     509.8250   1415.23926     751.1505     509.8250
   1415.22400     748.8176     510.8095   1415.22400     748.8176     510.8095
   1415.20874     747.9230     509.3333   1415.20874     747.9230     509.3333
   1415.19348     746.0955     509.1864   1415.19348     746.0955     509.1864
   1415.17822     746.8387     508.7684   1415.17822     746.8387     508.7684
   1415.16296     744.6000     507.8103   1415.16296     744.6000     507.8103
   1415.14771     743.5995     507.8639   1415.14771     743.5995     507.8639
   1415.13245     742.1061     506.7904   1415.13245     742.1061     506.7904
   1415.11719     738.7656     506.8166   1415.11719     738.7656     506.8166
   1415.10193     738.6016     505.4176   1415.10193     738.6016     505.4176
   1415.08667     736.6423     505.0104   1415.08667     736.6423     505.0104
   1415.07141     735.2327     505.2166   1415.07141     735.2327     505.2166
   1415.05615     734.9739     503.7162   1415.05615     734.9739     503.7162
   1415.04089     733.7271     504.5579   1415.04089     733.7271     504.5579
   1415.02563     731.9764     503.7280   1415.02563     731.9764     503.7280
   1415.01038     730.7226     501.6525   1415.01038     730.7226     501.6525
   1414.99512     728.2109     502.0616   1414.99512     728.2109     502.0616
   1414.97986     728.0326     502.6208   1414.97986     728.0326     502.6208
   1414.96460     725.5289     499.9919   1414.96460     725.5289     499.9919
   1414.94934     725.5017     499.9303   1414.94934     725.5017     499.9303
   1414.93408     723.4723     499.6105   1414.93408     723.4723     499.6105
   1414.91882     721.5032     498.3105   1414.91882     721.5032     498.3105
   1414.90356     720.2426     497.4542   1414.90356     720.2426     497.4542
   1414.88831     718.6093     497.1141   1414.88831     718.6093     497.1141
   1414.87305     716.3196     496.3617   1414.87305     716.3196     496.3617
   1414.85779     714.4202     495.3671   1414.85779     714.4202     495.3671
   1414.84253     713.7225     494.4131   1414.84253     713.7225     494.4131
   1414.82727     712.5524     493.8987   1414.82727     712.5524     493.8987
   1414.81201     709.3640     492.6730   1414.81201     709.3640     492.6730
   1414.79675     708.7821     491.2035   1414.79675     708.7821     491.2035
   1414.78149     705.7411     491.1782   1414.78149     705.7411     491.1782
   1414.76624     705.3855     490.1693   1414.76624     705.3855     490.1693
   1414.75098     701.7850     489.7851   1414.75098     701.7850     489.7851
   1414.73572     701.3701     489.5173   1414.73572     701.3701     489.5173
   1414.72046     699.1886     487.4952   1414.72046     699.1886     487.4952
   1414.70520     697.3018     486.7906   1414.70520     697.3018     486.7906
   1414.68994     695.3755     485.4002   1414.68994     695.3755     485.4002
   1414.67468     693.3245     485.1479   1414.67468     693.3245     485.1479
   1414.65942     692.1422     483.7805   1414.65942     692.1422     483.7805
   1414.64417     689.2854     483.0279   1414.64417     689.2854     483.0279
   1414.62891     687.9122     481.4298   1414.62891     687.9122     481.4298
   1414.61365     684.8525     481.2728   1414.61365     684.8525     481.2728
   1414.59839     684.5239     479.0989   1414.59839     684.5239     479.0989
   1414.58313     681.7629     479.0767   1414.58313     681.7629     479.0767
   1414.56787     680.3329     477.9019   1414.56787     680.3329     477.9019
   1414.55261     677.9275     476.6851   1414.55261     677.9275     476.6851
   1414.53735     675.1182     475.1105   1414.53735     675.1182     475.1105
   1414.52209     673.2223     474.5539   1414.52209     673.2223     474.5539
   1414.50684     671.2211     474.0486   1414.50684     671.2211     474.0486
   1414.49158     668.9415     472.3563   1414.49158     668.9415     472.3563
   1414.47632     667.0279     471.2697   1414.47632     667.0279     471.2697
   1414.46106     665.7088     470.3974   1414.46106     665.7088     470.3974
   1414.44580     662.6486     469.2982   1414.44580     662.6486     469.2982
   1414.43054     660.4729     467.2655   1414.43054     660.4729     467.2655
   1414.41528     657.3613     466.5410   1414.41528     657.3613     466.5410
   1414.40002     656.8184     464.5269   1414.40002     656.8184     464.5269
   1414.38477     653.4105     463.6428   1414.38477     653.4105     463.6428
   1414.36951     651.0464     463.0007   1414.36951     651.0464     463.0007
   1414.35425     649.2516     461.0044   1414.35425     649.2516     461.0044
   1414.33899     645.9494     460.4624   1414.33899     645.9494     460.4624
   1414.32373     644.2003     458.3256   1414.32373     644.2003     458.3256
   1414.30847     643.2236     457.1684   1414.30847     643.2236     457.1684
   1414.29321     639.9899     456.2246   1414.29321     639.9899     456.2246
   1414.27795     637.4003     455.0375   1414.27795     637.4003     455.0375
   1414.26270     635.3875     452.9408   1414.26270     635.3875     452.9408
   1414.24744     632.4747     452.1513   1414.24744     632.4747     452.1513
   1414.23218     629.6622     450.1644   1414.23218     629.6622     450.1644
   1414.21692     627.0607     448.6793   1414.21692     627.0607     448.6793
   1414.20166     623.7307     446.9839   1414.20166     623.7307     446.9839
   1414.18640     622.6386     446.6039   1414.18640     622.6386     446.6039
   1414.17114     620.1522     444.5013   1414.17114     620.1522     444.5013
   1414.15588     617.1942     443.5500   1414.15588     617.1942     443.5500
   1414.14062     614.0274     441.8598   1414.14062     614.0274     441.8598
   1414.12537     611.6862     440.0493   1414.12537     611.6862     440.0493
   1414.11011     610.4918     438.7868   1414.11011     610.4918     438.7868
   1414.09485     606.9143     437.1746   1414.09485     606.9143     437.1746
   1414.07959     605.6392     436.4767   1414.07959     605.6392     436.4767
   1414.06433     601.0208     434.3737   1414.06433     601.0208     434.3737
   1414.04907     599.1467     433.2025   1414.04907     599.1467     433.2025
   1414.03381     595.9108     431.4401   1414.03381     595.9108     431.4401
   1414.01855     595.3367     429.3581   1414.01855     595.3367     429.3581
   1414.00330     621.4096     436.6273   1414.00330     621.4096     436.6273
   1413.98804     590.5684     427.6334   1413.98804     590.5684     427.6334
   1413.97278     585.8718     425.6549   1413.97278     585.8718     425.6549
   1413.95752     582.9990     423.5701   1413.95752     582.9990     423.5701
   1413.94226     580.4147     421.4456   1413.94226     580.4147     421.4456
   1413.92700     577.8608     420.6188   1413.92700     577.8608     420.6188
   1413.91174     575.0348     418.6326   1413.91174     575.0348     418.6326
   1413.89648     571.9693     416.6139   1413.89648     571.9693     416.6139
   1413.88123     569.5438     415.2070   1413.88123     569.5438     415.2070
   1413.86597     565.9029     413.5207   1413.86597     565.9029     413.5207
   1413.85071     563.1358     412.1292   1413.85071     563.1358     412.1292
   1413.83545     561.8956     409.7011   1413.83545     561.8956     409.7011
   1413.82019     557.8420     409.0078   1413.82019     557.8420     409.0078
   1413.80493     556.0052     406.8982   1413.80493     556.0052     406.8982
   1413.78967     552.9655     405.4888   1413.78967     552.9655     405.4888
   1413.77441     549.4994     402.6787   1413.77441     549.4994     402.6787
   1413.75916     547.0294     401.7585   1413.75916     547.0294     401.7585
   1413.74390     543.9999     400.2669   1413.74390     543.9999     400.2669
   1413.72864     541.2692     398.9062   1413.72864     541.2692     398.9062
   1413.71338     538.5563     396.2999   1413.71338     538.5563     396.2999
   1413.69812     536.3337     394.8849   1413.69812     536.3337     394.8849
   1413.68286     533.4105     393.1678   1413.68286     533.4105     393.1678
   1413.66760     530.3719     391.6705   1413.66760     530.3719     391.6705
   1413.65234     528.0130     390.4624   1413.65234     528.0130     390.4624
   1413.63708     524.3539     388.3125   1413.63708     524.3539     388.3125
   1413.62183     521.7227     386.9676   1413.62183     521.7227     386.9676
   1413.60657     519.1680     385.1644   1413.60657     519.1680     385.1644
   1413.59131     516.1757     383.4288   1413.59131     516.1757     383.4288
   1413.57605     513.0009     382.1688   1413.57605     513.0009     382.1688
   1413.56079     510.3324     380.0807   1413.56079     510.3324     380.0807
   1413.54553     507.2838     377.9649   1413.54553     507.2838     377.9649
   1413.53027     505.1520     376.3658   1413.53027     505.1520     376.3658
   1413.51501     502.7586     374.6591   1413.51501     502.7586     374.6591
   1413.49976     499.4908     373.7921   1413.49976     499.4908     373.7921
   1413.48450     496.7967     371.5329   1413.48450     496.7967     371.5329
   1413.46924     494.5837     370.0214   1413.46924     494.5837     370.0214
   1413.45398     491.2703     368.5286   1413.45398     491.2703     368.5286
   1413.43872     488.4042     366.3826   1413.43872     488.4042     366.3826
   1413.42346     485.3357     365.7050   1413.42346     485.3357     365.7050
   1413.40820     483.4781     363.4438   1413.40820     483.4781     363.4438
   1413.39294     479.9492     362.4471   1413.39294     479.9492     362.4471
   1413.37769     477.4313     361.0357   1413.37769     477.4313     361.0357
   1413.36243     474.9346     359.0314   1413.36243     474.9346     359.0314
   1413.34717     472.6416     357.3693   1413.34717     472.6416     357.3693
   1413.33191     470.0170     356.0165   1413.33191     470.0170     356.0165
   1413.31665     467.7802     354.9408   1413.31665     467.7802     354.9408
   1413.30139     464.9123     353.1808   1413.30139     464.9123     353.1808
   1413.28613     461.9527     352.0251   1413.28613     461.9527     352.0251
   1413.27087     459.1713     350.2338   1413.27087     459.1713     350.2338
   1413.25562     457.2209     348.8114   1413.25562     457.2209     348.8114
   1413.24036     454.7550     346.9079   1413.24036     454.7550     346.9079
   1413.22510     452.6085     345.4050   1413.22510     452.6085     345.4050
   1413.20984     449.2752     344.4208   1413.20984     449.2752     344.4208
   1413.19458     447.1872     343.2685   1413.19458     447.1872     343.2685
   1413.17932     445.1211     342.0862   1413.17932     445.1211     342.0862
   1413.16406     442.4852     340.2684   1413.16406     442.4852     340.2684
   1413.14880     440.0257     339.9845   1413.14880     440.0257     339.9845
   1413.13354     437.8300     338.4408   1413.13354     437.8300     338.4408
   1413.11829     435.0044     336.7829   1413.11829     435.0044     336.7829
   1413.10303     433.6575     336.1437   1413.10303     433.6575     336.1437
   1413.08777     431.4882     334.5923   1413.08777     431.4882     334.5923
   1413.07251     430.0869     333.0875   1413.07251     430.0869     333.0875
   1413.05725     427.3693     332.0733   1413.05725     427.3693     332.0733
   1413.04199     425.0242     331.4255   1413.04199     425.0242     331.4255
   1413.02673     422.4529     330.2224   1413.02673     422.4529     330.2224
   1413.01147     420.5776     329.5112   1413.01147     420.5776     329.5112
   1412.99622     418.4468     328.9525   1412.99622     418.4468     328.9525
   1412.98096     416.6861     327.5386   1412.98096     416.6861     327.5386
   1412.96570     414.5441     326.5319   1412.96570     414.5441     326.5319
   1412.95044     412.7468     325.3964   1412.95044     412.7468     325.3964
   1412.93518     411.0109     324.7457   1412.93518     411.0109     324.7457
   1412.91992     408.8002     324.0124   1412.91992     408.8002     324.0124
   1412.90466     406.8192     323.8297   1412.90466     406.8192     323.8297
   1412.88940     405.7391     322.3009   1412.88940     405.7391     322.3009
   1412.87415     403.0117     321.9886   1412.87415     403.0117     321.9886
   1412.85889     401.5429     321.3231   1412.85889     401.5429     321.3231
   1412.84363     400.7618     320.2516   1412.84363     400.7618     320.2516
   1412.82837     398.6559     319.9326   1412.82837     398.6559     319.9326
   1412.81311     397.3393     319.3550   1412.81311     397.3393     319.3550
   1412.79785     395.6760     318.8778   1412.79785     395.6760     318.8778
   1412.78259     394.1855     318.1271   1412.78259     394.1855     318.1271
   1412.76733     393.0191     318.0684   1412.76733     393.0191     318.0684
   1412.75208     391.6290     317.8472   1412.75208     391.6290     317.8472
   1412.73682     390.0410     316.6639   1412.73682     390.0410     316.6639
   1412.72156     389.2292     317.6634   1412.72156     389.2292     317.6634
   1412.70630     387.7079     316.8722   1412.70630     387.7079     316.8722
   1412.69104     386.8665     316.8463   1412.69104     386.8665     316.8463
   1412.67578     385.8091     317.1992   1412.67578     385.8091     317.1992
   1412.66052     384.2419     316.7618   1412.66052     384.2419     316.7618
   1412.64526     383.1785     316.6567   1412.64526     383.1785     316.6567
   1412.63000     382.0110     316.8019   1412.63000     382.0110     316.8019
   1412.61475     381.5014     316.8369   1412.61475     381.5014     316.8369
   1412.59949     380.4998     316.2836   1412.59949     380.4998     316.2836
   1412.58423     379.1648     316.5417   1412.58423     379.1648     316.5417
   1412.56897     379.0645     317.2121   1412.56897     379.0645     317.2121
   1412.55371     378.1500     317.7464   1412.55371     378.1500     317.7464
   1412.53845     377.8648     317.7733   1412.53845     377.8648     317.7733
   1412.52319     376.7305     318.0123   1412.52319     376.7305     318.0123
   1412.50793     375.5514     318.4657   1412.50793     375.5514     318.4657
   1412.49268     375.0991     319.5197   1412.49268     375.0991     319.5197
   1412.47742     375.2904     319.4515   1412.47742     375.2904     319.4515
   1412.46216     374.8297     319.9242   1412.46216     374.8297     319.9242
   1412.44690     374.2441     320.9986   1412.44690     374.2441     320.9986
   1412.43164     374.3580     321.3802   1412.43164     374.3580     321.3802
   1412.41638     374.1063     322.0885   1412.41638     374.1063     322.0885
   1412.40112     373.6417     323.3010   1412.40112     373.6417     323.3010
   1412.38586     373.6598     324.1927   1412.38586     373.6598     324.1927
   1412.37061     373.2939     324.8328   1412.37061     373.2939     324.8328
   1412.35535     373.2571     325.6177   1412.35535     373.2571     325.6177
   1412.34009     373.4839     326.3815   1412.34009     373.4839     326.3815
   1412.32483     373.4806     327.5969   1412.32483     373.4806     327.5969
   1412.30957     373.7506     329.2489   1412.30957     373.7506     329.2489
   1412.29431     374.2490     329.7332   1412.29431     374.2490     329.7332
   1412.27905     374.1161     330.8741   1412.27905     374.1161     330.8741
   1412.26379     374.7932     332.7179   1412.26379     374.7932     332.7179
   1412.24854     374.8661     333.8152   1412.24854     374.8661     333.8152
   1412.23328     375.6089     334.7722   1412.23328     375.6089     334.7722
   1412.21802     376.0543     336.5413   1412.21802     376.0543     336.5413
   1412.20276     375.9141     338.0208   1412.20276     375.9141     338.0208