#     FILENAME=!Skynet_57528_lach-cc-234_20650_21022.cyb.fits
#     BASENAME=Skynet_57528_lach-cc-234_20650_21022
#     SRC_NAME=lach-cc-234
#     OBSERVER=ccmadison16_9505
#     DATE_OBS=2016-05-20T19:19:55.250
#        OBSID=20650
#      SCANNUM=21022
#          MJD=57528.8066
#          UTC=69685
#     SCANTYPE=track
#     DATAMODE=HIRES
#     TUNEFREQ=1420.0000
# Actual_FREQ1=1420.0000
# Actual_FREQ2=1420.0000
#    LO1Tuning=6870.000
#     RFFILTER=1355_1435
#        OBSBW=-15.6250
#        NCHAN=1024 
#        FOCUS=37.0709
#           RA=07:31:20.64
#          DEC=-18:39:26.42
#      RA(hrs)=7.522400
#     DEC(deg)=-18.657300
#    AZIM(deg)=153.461
#    ELEV(deg)=28.435
#     IFattens=10.00, 9.00
#      WARNING=None
#    TCAL_XL1=7.9635
#    TCAL_YR1=9.1340
#    TCAL_XL2=7.9635
#    TCAL_YR2=9.1340
#     TRX_XL1=11.7060
#     TRX_YR1=11.7060
#     TRX_XL2=11.7060
#     TRX_YR2=11.7060
#        TAVE=1.0000
#Freq1(MHz)          XL1          YR1  Freq2(MHz)          XL2          YR2 

   1427.81250     369.4754     289.9879   1427.81250     369.4754     289.9879
   1427.79724     369.8041     290.0074   1427.79724     369.8041     290.0074
   1427.78198     371.1132     290.9176   1427.78198     371.1132     290.9176
   1427.76672     371.8341     291.2535   1427.76672     371.8341     291.2535
   1427.75146     372.9258     292.2950   1427.75146     372.9258     292.2950
   1427.73621     373.5169     292.8404   1427.73621     373.5169     292.8404
   1427.72095     373.6570     293.5327   1427.72095     373.6570     293.5327
   1427.70569     374.9389     294.5116   1427.70569     374.9389     294.5116
   1427.69043     377.0555     294.8089   1427.69043     377.0555     294.8089
   1427.67517     376.9439     295.8752   1427.67517     376.9439     295.8752
   1427.65991     378.9988     296.5046   1427.65991     378.9988     296.5046
   1427.64465     379.6618     297.5112   1427.64465     379.6618     297.5112
   1427.62939     381.0918     298.6330   1427.62939     381.0918     298.6330
   1427.61414     382.2932     299.3945   1427.61414     382.2932     299.3945
   1427.59888     383.7838     300.2168   1427.59888     383.7838     300.2168
   1427.58362     385.2451     301.6951   1427.58362     385.2451     301.6951
   1427.56836     386.6432     302.4174   1427.56836     386.6432     302.4174
   1427.55310     387.8961     303.6455   1427.55310     387.8961     303.6455
   1427.53784     390.1150     304.9868   1427.53784     390.1150     304.9868
   1427.52258     391.8860     306.0863   1427.52258     391.8860     306.0863
   1427.50732     392.9836     307.6407   1427.50732     392.9836     307.6407
   1427.49207     394.5740     308.2571   1427.49207     394.5740     308.2571
   1427.47681     396.3452     309.8686   1427.47681     396.3452     309.8686
   1427.46155     399.7537     311.4329   1427.46155     399.7537     311.4329
   1427.44629     399.7234     312.7608   1427.44629     399.7234     312.7608
   1427.43103     402.1508     314.3402   1427.43103     402.1508     314.3402
   1427.41577     403.7015     315.6443   1427.41577     403.7015     315.6443
   1427.40051     405.9363     317.1230   1427.40051     405.9363     317.1230
   1427.38525     407.4574     318.7814   1427.38525     407.4574     318.7814
   1427.37000     409.5461     320.2719   1427.37000     409.5461     320.2719
   1427.35474     412.1946     321.4357   1427.35474     412.1946     321.4357
   1427.33948     414.4341     323.2187   1427.33948     414.4341     323.2187
   1427.32422     415.8396     325.0530   1427.32422     415.8396     325.0530
   1427.30896     418.7863     326.9700   1427.30896     418.7863     326.9700
   1427.29370     420.5171     328.4150   1427.29370     420.5171     328.4150
   1427.27844     422.5320     329.8192   1427.27844     422.5320     329.8192
   1427.26318     424.9883     331.9461   1427.26318     424.9883     331.9461
   1427.24792     427.5397     334.3584   1427.24792     427.5397     334.3584
   1427.23267     430.1334     336.1655   1427.23267     430.1334     336.1655
   1427.21741     431.8574     337.5525   1427.21741     431.8574     337.5525
   1427.20215     434.9164     339.8010   1427.20215     434.9164     339.8010
   1427.18689     437.4100     341.3026   1427.18689     437.4100     341.3026
   1427.17163     440.0280     343.5895   1427.17163     440.0280     343.5895
   1427.15637     442.2353     345.6357   1427.15637     442.2353     345.6357
   1427.14111     445.1695     347.0217   1427.14111     445.1695     347.0217
   1427.12585     447.0456     349.5085   1427.12585     447.0456     349.5085
   1427.11060     450.3080     351.7108   1427.11060     450.3080     351.7108
   1427.09534     452.8828     353.7508   1427.09534     452.8828     353.7508
   1427.08008     455.1803     355.6511   1427.08008     455.1803     355.6511
   1427.06482     458.1768     357.7476   1427.06482     458.1768     357.7476
   1427.04956     460.7757     360.3871   1427.04956     460.7757     360.3871
   1427.03430     463.5532     362.8184   1427.03430     463.5532     362.8184
   1427.01904     465.7612     364.9506   1427.01904     465.7612     364.9506
   1427.00378     468.5581     367.1445   1427.00378     468.5581     367.1445
   1426.98853     471.6884     368.7244   1426.98853     471.6884     368.7244
   1426.97327     474.4812     371.3313   1426.97327     474.4812     371.3313
   1426.95801     477.9634     373.6296   1426.95801     477.9634     373.6296
   1426.94275     480.3193     375.1893   1426.94275     480.3193     375.1893
   1426.92749     482.9834     377.9182   1426.92749     482.9834     377.9182
   1426.91223     485.6987     380.3371   1426.91223     485.6987     380.3371
   1426.89697     488.4896     382.5881   1426.89697     488.4896     382.5881
   1426.88171     491.5267     385.3430   1426.88171     491.5267     385.3430
   1426.86646     495.0847     387.5226   1426.86646     495.0847     387.5226
   1426.85120     496.8080     389.4866   1426.85120     496.8080     389.4866
   1426.83594     500.8470     392.1924   1426.83594     500.8470     392.1924
   1426.82068     503.1923     395.3267   1426.82068     503.1923     395.3267
   1426.80542     506.2437     396.9037   1426.80542     506.2437     396.9037
   1426.79016     508.5146     399.5974   1426.79016     508.5146     399.5974
   1426.77490     512.4493     401.8507   1426.77490     512.4493     401.8507
   1426.75964     514.8669     404.2117   1426.75964     514.8669     404.2117
   1426.74438     518.2220     406.7526   1426.74438     518.2220     406.7526
   1426.72913     520.5951     409.8586   1426.72913     520.5951     409.8586
   1426.71387     524.2184     411.7800   1426.71387     524.2184     411.7800
   1426.69861     527.0815     414.4185   1426.69861     527.0815     414.4185
   1426.68335     529.9193     417.0949   1426.68335     529.9193     417.0949
   1426.66809     533.4423     419.4880   1426.66809     533.4423     419.4880
   1426.65283     535.4703     422.9413   1426.65283     535.4703     422.9413
   1426.63757     539.9160     424.7956   1426.63757     539.9160     424.7956
   1426.62231     545.2498     430.9349   1426.62231     545.2498     430.9349
   1426.60706     544.5829     429.7756   1426.60706     544.5829     429.7756
   1426.59180     548.8494     432.8129   1426.59180     548.8494     432.8129
   1426.57654     550.2631     434.5729   1426.57654     550.2631     434.5729
   1426.56128     553.6280     437.8238   1426.56128     553.6280     437.8238
   1426.54602     557.2893     439.3150   1426.54602     557.2893     439.3150
   1426.53076     560.0267     442.2904   1426.53076     560.0267     442.2904
   1426.51550     561.9862     445.1430   1426.51550     561.9862     445.1430
   1426.50024     565.1816     446.9763   1426.50024     565.1816     446.9763
   1426.48499     568.5235     449.9305   1426.48499     568.5235     449.9305
   1426.46973     571.0098     452.0584   1426.46973     571.0098     452.0584
   1426.45447     574.4588     454.8853   1426.45447     574.4588     454.8853
   1426.43921     577.3174     456.5106   1426.43921     577.3174     456.5106
   1426.42395     580.7574     459.6598   1426.42395     580.7574     459.6598
   1426.40869     582.6611     462.2438   1426.40869     582.6611     462.2438
   1426.39343     585.0848     465.2805   1426.39343     585.0848     465.2805
   1426.37817     588.5359     468.1035   1426.37817     588.5359     468.1035
   1426.36292     590.7433     469.8295   1426.36292     590.7433     469.8295
   1426.34766     594.6511     472.8884   1426.34766     594.6511     472.8884
   1426.33240     596.4368     475.1776   1426.33240     596.4368     475.1776
   1426.31714     599.5583     477.3725   1426.31714     599.5583     477.3725
   1426.30188     602.1028     480.6461   1426.30188     602.1028     480.6461
   1426.28662     606.1259     483.3123   1426.28662     606.1259     483.3123
   1426.27136     607.2793     484.7267   1426.27136     607.2793     484.7267
   1426.25610     610.2940     488.7373   1426.25610     610.2940     488.7373
   1426.24084     612.8569     490.4301   1426.24084     612.8569     490.4301
   1426.22559     615.9157     492.4631   1426.22559     615.9157     492.4631
   1426.21033     619.1813     495.5674   1426.21033     619.1813     495.5674
   1426.19507     620.6943     497.1538   1426.19507     620.6943     497.1538
   1426.17981     622.9586     500.3936   1426.17981     622.9586     500.3936
   1426.16455     626.6202     502.6618   1426.16455     626.6202     502.6618
   1426.14929     629.0952     506.1956   1426.14929     629.0952     506.1956
   1426.13403     631.2700     507.3098   1426.13403     631.2700     507.3098
   1426.11877     634.4182     509.9505   1426.11877     634.4182     509.9505
   1426.10352     636.9121     512.0118   1426.10352     636.9121     512.0118
   1426.08826     637.7153     514.6404   1426.08826     637.7153     514.6404
   1426.07300     640.9100     517.6133   1426.07300     640.9100     517.6133
   1426.05774     643.3681     519.4238   1426.05774     643.3681     519.4238
   1426.04248     646.3376     522.2432   1426.04248     646.3376     522.2432
   1426.02722     647.9753     524.2513   1426.02722     647.9753     524.2513
   1426.01196     651.5092     526.8572   1426.01196     651.5092     526.8572
   1425.99670     653.6803     529.5368   1425.99670     653.6803     529.5368
   1425.98145     655.0985     531.5771   1425.98145     655.0985     531.5771
   1425.96619     658.1128     533.9791   1425.96619     658.1128     533.9791
   1425.95093     659.7819     535.3210   1425.95093     659.7819     535.3210
   1425.93567     660.7429     537.4050   1425.93567     660.7429     537.4050
   1425.92041     664.1769     540.5981   1425.92041     664.1769     540.5981
   1425.90515     666.1599     542.6535   1425.90515     666.1599     542.6535
   1425.88989     668.6157     544.3591   1425.88989     668.6157     544.3591
   1425.87463     670.3563     546.8702   1425.87463     670.3563     546.8702
   1425.85938     672.1772     549.6103   1425.85938     672.1772     549.6103
   1425.84412     674.0732     551.2903   1425.84412     674.0732     551.2903
   1425.82886     676.0271     553.9333   1425.82886     676.0271     553.9333
   1425.81360     677.0010     556.5073   1425.81360     677.0010     556.5073
   1425.79834     680.1217     558.7440   1425.79834     680.1217     558.7440
   1425.78308     682.0475     560.7905   1425.78308     682.0475     560.7905
   1425.76782     684.9144     563.2830   1425.76782     684.9144     563.2830
   1425.75256     684.9865     564.6669   1425.75256     684.9865     564.6669
   1425.73730     686.2971     566.1813   1425.73730     686.2971     566.1813
   1425.72205     689.1578     568.0728   1425.72205     689.1578     568.0728
   1425.70679     691.1639     571.2642   1425.70679     691.1639     571.2642
   1425.69153     692.6797     572.5977   1425.69153     692.6797     572.5977
   1425.67627     694.4742     574.7047   1425.67627     694.4742     574.7047
   1425.66101     696.0563     576.9184   1425.66101     696.0563     576.9184
   1425.64575     697.6003     578.1082   1425.64575     697.6003     578.1082
   1425.63049     698.2852     580.7576   1425.63049     698.2852     580.7576
   1425.61523     701.0332     583.4395   1425.61523     701.0332     583.4395
   1425.59998     701.6912     585.8148   1425.59998     701.6912     585.8148
   1425.58472     703.0819     587.5088   1425.58472     703.0819     587.5088
   1425.56946     705.8466     588.8742   1425.56946     705.8466     588.8742
   1425.55420     707.2983     590.3950   1425.55420     707.2983     590.3950
   1425.53894     708.5911     592.5936   1425.53894     708.5911     592.5936
   1425.52368     709.4587     594.4994   1425.52368     709.4587     594.4994
   1425.50842     711.2102     595.7307   1425.50842     711.2102     595.7307
   1425.49316     711.9075     599.7606   1425.49316     711.9075     599.7606
   1425.47791     712.5906     599.8851   1425.47791     712.5906     599.8851
   1425.46265     714.2094     601.7959   1425.46265     714.2094     601.7959
   1425.44739     715.9742     604.8462   1425.44739     715.9742     604.8462
   1425.43213     717.1207     606.7921   1425.43213     717.1207     606.7921
   1425.41687     719.3267     607.8340   1425.41687     719.3267     607.8340
   1425.40161     720.0941     610.4325   1425.40161     720.0941     610.4325
   1425.38635     720.6976     610.8499   1425.38635     720.6976     610.8499
   1425.37109     721.7684     612.5555   1425.37109     721.7684     612.5555
   1425.35583     723.3598     614.4500   1425.35583     723.3598     614.4500
   1425.34058     724.6302     616.9485   1425.34058     724.6302     616.9485
   1425.32532     725.0517     618.6259   1425.32532     725.0517     618.6259
   1425.31006     726.8140     620.2496   1425.31006     726.8140     620.2496
   1425.29480     726.7917     623.0239   1425.29480     726.7917     623.0239
   1425.27954     727.5813     623.3874   1425.27954     727.5813     623.3874
   1425.26428     728.5781     625.4949   1425.26428     728.5781     625.4949
   1425.24902     728.7758     626.9306   1425.24902     728.7758     626.9306
   1425.23376     730.4669     628.1426   1425.23376     730.4669     628.1426
   1425.21851     731.3459     629.8539   1425.21851     731.3459     629.8539
   1425.20325     730.9766     630.4507   1425.20325     730.9766     630.4507
   1425.18799     732.8507     632.7737   1425.18799     732.8507     632.7737
   1425.17273     734.7017     633.8658   1425.17273     734.7017     633.8658
   1425.15747     733.6497     635.7465   1425.15747     733.6497     635.7465
   1425.14221     733.7242     637.2950   1425.14221     733.7242     637.2950
   1425.12695     735.1113     639.1354   1425.12695     735.1113     639.1354
   1425.11169     737.3159     639.8054   1425.11169     737.3159     639.8054
   1425.09644     736.8000     641.6550   1425.09644     736.8000     641.6550
   1425.08118     738.8906     643.6085   1425.08118     738.8906     643.6085
   1425.06592     737.9320     644.7445   1425.06592     737.9320     644.7445
   1425.05066     738.2598     645.4092   1425.05066     738.2598     645.4092
   1425.03540     739.6022     648.1927   1425.03540     739.6022     648.1927
   1425.02014     740.4871     647.0917   1425.02014     740.4871     647.0917
   1425.00488     740.3148     650.2391   1425.00488     740.3148     650.2391
   1424.98962     741.1099     650.7394   1424.98962     741.1099     650.7394
   1424.97437     740.9649     652.2470   1424.97437     740.9649     652.2470
   1424.95911     741.6522     653.9772   1424.95911     741.6522     653.9772
   1424.94385     742.3427     655.0433   1424.94385     742.3427     655.0433
   1424.92859     742.0464     654.9149   1424.92859     742.0464     654.9149
   1424.91333     743.3646     656.7496   1424.91333     743.3646     656.7496
   1424.89807     743.3682     657.4136   1424.89807     743.3682     657.4136
   1424.88281     744.9468     659.3493   1424.88281     744.9468     659.3493
   1424.86755     745.0247     659.6831   1424.86755     745.0247     659.6831
   1424.85229     744.5608     662.9567   1424.85229     744.5608     662.9567
   1424.83704     743.7534     662.9293   1424.83704     743.7534     662.9293
   1424.82178     746.3972     664.3755   1424.82178     746.3972     664.3755
   1424.80652     745.0654     665.1094   1424.80652     745.0654     665.1094
   1424.79126     747.2913     666.5004   1424.79126     747.2913     666.5004
   1424.77600     746.0280     667.6277   1424.77600     746.0280     667.6277
   1424.76074     746.7046     669.2836   1424.76074     746.7046     669.2836
   1424.74548     746.4975     669.0690   1424.74548     746.4975     669.0690
   1424.73022     745.9998     669.4799   1424.73022     745.9998     669.4799
   1424.71497     746.7017     671.0821   1424.71497     746.7017     671.0821
   1424.69971     745.4432     671.9069   1424.69971     745.4432     671.9069
   1424.68445     747.7233     673.5846   1424.68445     747.7233     673.5846
   1424.66919     747.4797     674.6064   1424.66919     747.4797     674.6064
   1424.65393     746.3516     675.6805   1424.65393     746.3516     675.6805
   1424.63867     746.8163     675.8124   1424.63867     746.8163     675.8124
   1424.62341     747.6143     677.4484   1424.62341     747.6143     677.4484
   1424.60815     747.1365     678.4941   1424.60815     747.1365     678.4941
   1424.59290     746.6161     678.8013   1424.59290     746.6161     678.8013
   1424.57764     748.7047     679.3220   1424.57764     748.7047     679.3220
   1424.56238     748.2806     680.6001   1424.56238     748.2806     680.6001
   1424.54712     748.0543     680.0677   1424.54712     748.0543     680.0677
   1424.53186     748.1829     681.2056   1424.53186     748.1829     681.2056
   1424.51660     747.3391     681.7604   1424.51660     747.3391     681.7604
   1424.50134     747.0319     682.9778   1424.50134     747.0319     682.9778
   1424.48608     746.6887     684.4046   1424.48608     746.6887     684.4046
   1424.47083     748.1182     684.1426   1424.47083     748.1182     684.1426
   1424.45557     747.4981     684.2826   1424.45557     747.4981     684.2826
   1424.44031     747.8592     685.7637   1424.44031     747.8592     685.7637
   1424.42505     747.9248     686.1448   1424.42505     747.9248     686.1448
   1424.40979     748.5657     687.7790   1424.40979     748.5657     687.7790
   1424.39453     747.9605     688.5027   1424.39453     747.9605     688.5027
   1424.37927     748.5872     688.2002   1424.37927     748.5872     688.2002
   1424.36401     747.3561     688.9261   1424.36401     747.3561     688.9261
   1424.34875     746.6824     687.7641   1424.34875     746.6824     687.7641
   1424.33350     747.2667     690.5613   1424.33350     747.2667     690.5613
   1424.31824     747.1434     690.4835   1424.31824     747.1434     690.4835
   1424.30298     747.1685     691.0934   1424.30298     747.1685     691.0934
   1424.28772     747.8423     691.9970   1424.28772     747.8423     691.9970
   1424.27246     746.3160     692.7334   1424.27246     746.3160     692.7334
   1424.25720     747.1313     691.0354   1424.25720     747.1313     691.0354
   1424.24194     745.1902     691.7519   1424.24194     745.1902     691.7519
   1424.22668     744.9871     692.2968   1424.22668     744.9871     692.2968
   1424.21143     746.9277     693.5317   1424.21143     746.9277     693.5317
   1424.19617     745.0409     693.8732   1424.19617     745.0409     693.8732
   1424.18091     745.8800     693.5105   1424.18091     745.8800     693.5105
   1424.16565     744.9636     694.3787   1424.16565     744.9636     694.3787
   1424.15039     745.7012     694.7709   1424.15039     745.7012     694.7709
   1424.13513     744.9079     695.8083   1424.13513     744.9079     695.8083
   1424.11987     744.4637     694.4173   1424.11987     744.4637     694.4173
   1424.10461     744.2053     694.9465   1424.10461     744.2053     694.9465
   1424.08936     743.6205     696.0164   1424.08936     743.6205     696.0164
   1424.07410     744.7930     696.1235   1424.07410     744.7930     696.1235
   1424.05884     743.4446     696.7317   1424.05884     743.4446     696.7317
   1424.04358     744.6620     695.8810   1424.04358     744.6620     695.8810
   1424.02832     743.9228     696.6233   1424.02832     743.9228     696.6233
   1424.01306     743.9736     696.1822   1424.01306     743.9736     696.1822
   1423.99780     744.7205     697.5517   1423.99780     744.7205     697.5517
   1423.98254     743.9227     696.1215   1423.98254     743.9227     696.1215
   1423.96729     742.2198     696.4584   1423.96729     742.2198     696.4584
   1423.95203     742.7053     696.4919   1423.95203     742.7053     696.4919
   1423.93677     741.6367     696.9970   1423.93677     741.6367     696.9970
   1423.92151     741.3137     695.6411   1423.92151     741.3137     695.6411
   1423.90625     743.0669     696.7645   1423.90625     743.0669     696.7645
   1423.89099     741.6634     696.8790   1423.89099     741.6634     696.8790
   1423.87573     741.6230     696.7340   1423.87573     741.6230     696.7340
   1423.86047     741.4349     696.5438   1423.86047     741.4349     696.5438
   1423.84521     741.0087     695.9891   1423.84521     741.0087     695.9891
   1423.82996     739.4840     696.9442   1423.82996     739.4840     696.9442
   1423.81470     741.5298     695.7900   1423.81470     741.5298     695.7900
   1423.79944     740.8634     697.0585   1423.79944     740.8634     697.0585
   1423.78418     740.3846     697.4435   1423.78418     740.3846     697.4435
   1423.76892     739.2760     696.5505   1423.76892     739.2760     696.5505
   1423.75366     739.7864     696.0214   1423.75366     739.7864     696.0214
   1423.73840     739.0215     695.5383   1423.73840     739.0215     695.5383
   1423.72314     738.1025     696.4085   1423.72314     738.1025     696.4085
   1423.70789     738.6423     695.5844   1423.70789     738.6423     695.5844
   1423.69263     739.8266     695.6879   1423.69263     739.8266     695.6879
   1423.67737     738.0675     695.8472   1423.67737     738.0675     695.8472
   1423.66211     737.8931     694.4701   1423.66211     737.8931     694.4701
   1423.64685     737.4987     694.6277   1423.64685     737.4987     694.6277
   1423.63159     737.3109     694.5519   1423.63159     737.3109     694.5519
   1423.61633     736.7750     693.8003   1423.61633     736.7750     693.8003
   1423.60107     737.1959     692.9122   1423.60107     737.1959     692.9122
   1423.58582     737.6673     693.5527   1423.58582     737.6673     693.5527
   1423.57056     736.4396     692.7993   1423.57056     736.4396     692.7993
   1423.55530     736.8810     692.5653   1423.55530     736.8810     692.5653
   1423.54004     735.7432     691.9160   1423.54004     735.7432     691.9160
   1423.52478     734.9529     691.3651   1423.52478     734.9529     691.3651
   1423.50952     735.0144     690.6927   1423.50952     735.0144     690.6927
   1423.49426     736.9155     690.4210   1423.49426     736.9155     690.4210
   1423.47900     734.4109     689.0884   1423.47900     734.4109     689.0884
   1423.46375     735.4873     689.0908   1423.46375     735.4873     689.0908
   1423.44849     733.9810     689.7303   1423.44849     733.9810     689.7303
   1423.43323     734.6577     689.1497   1423.43323     734.6577     689.1497
   1423.41797     733.0171     687.7553   1423.41797     733.0171     687.7553
   1423.40271     734.2702     688.1336   1423.40271     734.2702     688.1336
   1423.38745     734.0739     686.5339   1423.38745     734.0739     686.5339
   1423.37219     733.0231     685.3132   1423.37219     733.0231     685.3132
   1423.35693     732.5416     684.7285   1423.35693     732.5416     684.7285
   1423.34167     732.9911     685.0165   1423.34167     732.9911     685.0165
   1423.32642     733.3047     684.4492   1423.32642     733.3047     684.4492
   1423.31116     733.5939     683.3912   1423.31116     733.5939     683.3912
   1423.29590     731.4333     682.9150   1423.29590     731.4333     682.9150
   1423.28064     730.2604     682.5505   1423.28064     730.2604     682.5505
   1423.26538     731.7556     682.5299   1423.26538     731.7556     682.5299
   1423.25012     731.5112     680.8283   1423.25012     731.5112     680.8283
   1423.23486     731.3649     680.2344   1423.23486     731.3649     680.2344
   1423.21960     731.3328     679.1215   1423.21960     731.3328     679.1215
   1423.20435     729.8133     678.9924   1423.20435     729.8133     678.9924
   1423.18909     729.2432     678.8828   1423.18909     729.2432     678.8828
   1423.17383     729.9401     677.2659   1423.17383     729.9401     677.2659
   1423.15857     730.3919     676.8976   1423.15857     730.3919     676.8976
   1423.14331     729.2973     675.4490   1423.14331     729.2973     675.4490
   1423.12805     729.5173     675.9231   1423.12805     729.5173     675.9231
   1423.11279     729.8412     674.0253   1423.11279     729.8412     674.0253
   1423.09753     729.3956     673.4474   1423.09753     729.3956     673.4474
   1423.08228     729.7245     672.2311   1423.08228     729.7245     672.2311
   1423.06702     728.3636     670.8685   1423.06702     728.3636     670.8685
   1423.05176     728.3073     669.7014   1423.05176     728.3073     669.7014
   1423.03650     727.9113     669.3694   1423.03650     727.9113     669.3694
   1423.02124     728.3729     667.8126   1423.02124     728.3729     667.8126
   1423.00598     727.8294     667.6746   1423.00598     727.8294     667.6746
   1422.99072     728.1115     666.6823   1422.99072     728.1115     666.6823
   1422.97546     727.8472     665.2068   1422.97546     727.8472     665.2068
   1422.96021     727.1384     664.3963   1422.96021     727.1384     664.3963
   1422.94495     727.3663     663.8359   1422.94495     727.3663     663.8359
   1422.92969     726.7489     662.4060   1422.92969     726.7489     662.4060
   1422.91443     726.4271     659.9233   1422.91443     726.4271     659.9233
   1422.89917     726.2822     660.3577   1422.89917     726.2822     660.3577
   1422.88391     725.7339     660.1336   1422.88391     725.7339     660.1336
   1422.86865     726.0327     657.6108   1422.86865     726.0327     657.6108
   1422.85339     726.3108     656.6708   1422.85339     726.3108     656.6708
   1422.83813     725.6609     655.8779   1422.83813     725.6609     655.8779
   1422.82288     725.5917     654.5338   1422.82288     725.5917     654.5338
   1422.80762     724.4943     653.4975   1422.80762     724.4943     653.4975
   1422.79236     724.4445     653.1377   1422.79236     724.4445     653.1377
   1422.77710     724.1387     650.6200   1422.77710     724.1387     650.6200
   1422.76184     724.4645     650.8302   1422.76184     724.4645     650.8302
   1422.74658     723.1572     648.8050   1422.74658     723.1572     648.8050
   1422.73132     723.6124     647.9504   1422.73132     723.6124     647.9504
   1422.71606     723.6248     646.7444   1422.71606     723.6248     646.7444
   1422.70081     723.7475     646.0919   1422.70081     723.7475     646.0919
   1422.68555     722.5378     644.6014   1422.68555     722.5378     644.6014
   1422.67029     723.3823     642.5339   1422.67029     723.3823     642.5339
   1422.65503     722.3658     641.4007   1422.65503     722.3658     641.4007
   1422.63977     722.2825     640.7505   1422.63977     722.2825     640.7505
   1422.62451     723.1478     639.4180   1422.62451     723.1478     639.4180
   1422.60925     720.9476     639.6242   1422.60925     720.9476     639.6242
   1422.59399     721.5904     637.5901   1422.59399     721.5904     637.5901
   1422.57874     722.1633     635.3528   1422.57874     722.1633     635.3528
   1422.56348     720.6863     635.0196   1422.56348     720.6863     635.0196
   1422.54822     721.2306     633.1384   1422.54822     721.2306     633.1384
   1422.53296     719.9968     631.2806   1422.53296     719.9968     631.2806
   1422.51770     720.2010     630.3575   1422.51770     720.2010     630.3575
   1422.50244     720.6793     629.9986   1422.50244     720.6793     629.9986
   1422.48718     719.6721     627.7076   1422.48718     719.6721     627.7076
   1422.47192     719.0518     625.5900   1422.47192     719.0518     625.5900
   1422.45667     720.2300     624.8881   1422.45667     720.2300     624.8881
   1422.44141     719.7319     623.1636   1422.44141     719.7319     623.1636
   1422.42615     719.5222     622.4177   1422.42615     719.5222     622.4177
   1422.41089     719.6290     620.4552   1422.41089     719.6290     620.4552
   1422.39563     719.9556     619.1849   1422.39563     719.9556     619.1849
   1422.38037     720.0200     618.5093   1422.38037     720.0200     618.5093
   1422.36511     718.7875     616.5412   1422.36511     718.7875     616.5412
   1422.34985     717.9536     615.1135   1422.34985     717.9536     615.1135
   1422.33459     718.9486     615.0952   1422.33459     718.9486     615.0952
   1422.31934     717.7617     612.7509   1422.31934     717.7617     612.7509
   1422.30408     718.7446     610.9009   1422.30408     718.7446     610.9009
   1422.28882     716.8879     610.5407   1422.28882     716.8879     610.5407
   1422.27356     717.6591     608.0038   1422.27356     717.6591     608.0038
   1422.25830     717.0975     607.0546   1422.25830     717.0975     607.0546
   1422.24304     717.1298     605.6953   1422.24304     717.1298     605.6953
   1422.22778     716.5924     604.7022   1422.22778     716.5924     604.7022
   1422.21252     715.7940     603.0381   1422.21252     715.7940     603.0381
   1422.19727     716.4941     600.2993   1422.19727     716.4941     600.2993
   1422.18201     716.9957     599.8936   1422.18201     716.9957     599.8936
   1422.16675     715.6263     598.6949   1422.16675     715.6263     598.6949
   1422.15149     716.2325     597.9152   1422.15149     716.2325     597.9152
   1422.13623     714.9172     595.2844   1422.13623     714.9172     595.2844
   1422.12097     715.1947     594.3795   1422.12097     715.1947     594.3795
   1422.10571     716.2650     592.6480   1422.10571     716.2650     592.6480
   1422.09045     716.0511     591.3002   1422.09045     716.0511     591.3002
   1422.07520     714.5974     589.7524   1422.07520     714.5974     589.7524
   1422.05994     715.1176     588.5267   1422.05994     715.1176     588.5267
   1422.04468     715.2495     587.0034   1422.04468     715.2495     587.0034
   1422.02942     714.4660     585.1837   1422.02942     714.4660     585.1837
   1422.01416     714.7134     584.6360   1422.01416     714.7134     584.6360
   1421.99890     714.0323     583.4219   1421.99890     714.0323     583.4219
   1421.98364     713.6373     582.0656   1421.98364     713.6373     582.0656
   1421.96838     714.5293     580.7964   1421.96838     714.5293     580.7964
   1421.95312     712.1130     578.9319   1421.95312     712.1130     578.9319
   1421.93787     712.4363     576.8610   1421.93787     712.4363     576.8610
   1421.92261     713.2117     576.4199   1421.92261     713.2117     576.4199
   1421.90735     712.7491     574.7889   1421.90735     712.7491     574.7889
   1421.89209     710.8848     573.2626   1421.89209     710.8848     573.2626
   1421.87683     712.4403     572.2075   1421.87683     712.4403     572.2075
   1421.86157     712.3433     569.9749   1421.86157     712.3433     569.9749
   1421.84631     712.2090     569.2096   1421.84631     712.2090     569.2096
   1421.83105     711.3344     566.6793   1421.83105     711.3344     566.6793
   1421.81580     711.0234     565.8161   1421.81580     711.0234     565.8161
   1421.80054     710.6050     564.8207   1421.80054     710.6050     564.8207
   1421.78528     711.6661     563.3159   1421.78528     711.6661     563.3159
   1421.77002     710.7772     562.2115   1421.77002     710.7772     562.2115
   1421.75476     710.8240     561.4286   1421.75476     710.8240     561.4286
   1421.73950     710.3059     559.3231   1421.73950     710.3059     559.3231
   1421.72424     709.9171     557.8311   1421.72424     709.9171     557.8311
   1421.70898     709.7687     555.7067   1421.70898     709.7687     555.7067
   1421.69373     709.5305     554.6494   1421.69373     709.5305     554.6494
   1421.67847     709.9098     553.2892   1421.67847     709.9098     553.2892
   1421.66321     708.4490     552.0951   1421.66321     708.4490     552.0951
   1421.64795     709.0220     549.3570   1421.64795     709.0220     549.3570
   1421.63269     709.0778     550.1212   1421.63269     709.0778     550.1212
   1421.61743     708.6697     547.0646   1421.61743     708.6697     547.0646
   1421.60217     708.2579     545.6840   1421.60217     708.2579     545.6840
   1421.58691     708.1636     545.0475   1421.58691     708.1636     545.0475
   1421.57166     706.8939     542.7114   1421.57166     706.8939     542.7114
   1421.55640     707.6438     541.9022   1421.55640     707.6438     541.9022
   1421.54114     707.3918     540.6870   1421.54114     707.3918     540.6870
   1421.52588     707.4365     539.4859   1421.52588     707.4365     539.4859
   1421.51062     706.8309     537.9026   1421.51062     706.8309     537.9026
   1421.49536     707.5721     536.2321   1421.49536     707.5721     536.2321
   1421.48010     705.9020     535.0861   1421.48010     705.9020     535.0861
   1421.46484     705.7335     534.0223   1421.46484     705.7335     534.0223
   1421.44958     704.5108     533.0782   1421.44958     704.5108     533.0782
   1421.43433     705.6011     531.0870   1421.43433     705.6011     531.0870
   1421.41907     705.8661     529.8765   1421.41907     705.8661     529.8765
   1421.40381     704.8505     528.8250   1421.40381     704.8505     528.8250
   1421.38855     704.7968     527.9163   1421.38855     704.7968     527.9163
   1421.37329     705.1964     526.2068   1421.37329     705.1964     526.2068
   1421.35803     704.0433     524.5480   1421.35803     704.0433     524.5480
   1421.34277     704.4791     523.2408   1421.34277     704.4791     523.2408
   1421.32751     704.5543     522.5272   1421.32751     704.5543     522.5272
   1421.31226     705.0443     521.1424   1421.31226     705.0443     521.1424
   1421.29700     703.4633     518.8744   1421.29700     703.4633     518.8744
   1421.28174     702.9593     518.4333   1421.28174     702.9593     518.4333
   1421.26648     703.2791     515.5193   1421.26648     703.2791     515.5193
   1421.25122     702.8850     515.7905   1421.25122     702.8850     515.7905
   1421.23596     702.4607     514.9926   1421.23596     702.4607     514.9926
   1421.22070     703.0091     513.4567   1421.22070     703.0091     513.4567
   1421.20544     702.1564     512.0034   1421.20544     702.1564     512.0034
   1421.19019     702.0562     509.8954   1421.19019     702.0562     509.8954
   1421.17493     700.6528     509.3998   1421.17493     700.6528     509.3998
   1421.15967     701.0611     506.9263   1421.15967     701.0611     506.9263
   1421.14441     701.6744     506.9948   1421.14441     701.6744     506.9948
   1421.12915     701.0349     505.8313   1421.12915     701.0349     505.8313
   1421.11389     700.8751     504.2524   1421.11389     700.8751     504.2524
   1421.09863     699.9979     503.3195   1421.09863     699.9979     503.3195
   1421.08337     700.2217     502.5133   1421.08337     700.2217     502.5133
   1421.06812     700.1326     501.5036   1421.06812     700.1326     501.5036
   1421.05286     699.1677     499.2509   1421.05286     699.1677     499.2509
   1421.03760     699.3931     498.2527   1421.03760     699.3931     498.2527
   1421.02234     699.3704     496.7826   1421.02234     699.3704     496.7826
   1421.00708     698.0906     495.9768   1421.00708     698.0906     495.9768
   1420.99182     698.4118     495.5883   1420.99182     698.4118     495.5883
   1420.97656     698.6679     493.6915   1420.97656     698.6679     493.6915
   1420.96130     698.1605     493.0219   1420.96130     698.1605     493.0219
   1420.94604     697.0870     491.0436   1420.94604     697.0870     491.0436
   1420.93079     698.4802     490.0779   1420.93079     698.4802     490.0779
   1420.91553     696.8444     489.3295   1420.91553     696.8444     489.3295
   1420.90027     697.0355     488.4211   1420.90027     697.0355     488.4211
   1420.88501     696.8163     487.4281   1420.88501     696.8163     487.4281
   1420.86975     697.7219     486.1838   1420.86975     697.7219     486.1838
   1420.85449     697.2148     484.9969   1420.85449     697.2148     484.9969
   1420.83923     697.2593     483.6133   1420.83923     697.2593     483.6133
   1420.82397     696.9271     483.2247   1420.82397     696.9271     483.2247
   1420.80872     696.0579     481.9106   1420.80872     696.0579     481.9106
   1420.79346     695.6082     481.3941   1420.79346     695.6082     481.3941
   1420.77820     698.2094     480.6496   1420.77820     698.2094     480.6496
   1420.76294     698.2451     478.9013   1420.76294     698.2451     478.9013
   1420.74768     696.9392     477.7660   1420.74768     696.9392     477.7660
   1420.73242     696.6130     478.2952   1420.73242     696.6130     478.2952
   1420.71716     696.7427     476.8685   1420.71716     696.7427     476.8685
   1420.70190     696.0144     475.7366   1420.70190     696.0144     475.7366
   1420.68665     697.5274     474.7274   1420.68665     697.5274     474.7274
   1420.67139     696.4196     474.7319   1420.67139     696.4196     474.7319
   1420.65613     696.7372     473.3329   1420.65613     696.7372     473.3329
   1420.64087     695.0651     472.1320   1420.64087     695.0651     472.1320
   1420.62561     695.8013     471.2333   1420.62561     695.8013     471.2333
   1420.61035     695.8756     470.4529   1420.61035     695.8756     470.4529
   1420.59509     695.8929     469.6056   1420.59509     695.8929     469.6056
   1420.57983     696.2119     469.0125   1420.57983     696.2119     469.0125
   1420.56458     696.7876     467.4709   1420.56458     696.7876     467.4709
   1420.54932     698.4331     468.1485   1420.54932     698.4331     468.1485
   1420.53406     699.4808     468.6898   1420.53406     699.4808     468.6898
   1420.51880     698.8965     468.7899   1420.51880     698.8965     468.7899
   1420.50354     700.1603     468.0769   1420.50354     700.1603     468.0769
   1420.48828     699.3312     466.9870   1420.48828     699.3312     466.9870
   1420.47302     699.9106     465.9326   1420.47302     699.9106     465.9326
   1420.45776     698.3862     463.7741   1420.45776     698.3862     463.7741
   1420.44250     697.6301     463.0334   1420.44250     697.6301     463.0334
   1420.42725     697.6618     462.1273   1420.42725     697.6618     462.1273
   1420.41199     697.2175     460.7425   1420.41199     697.2175     460.7425
   1420.39673     696.9623     459.7266   1420.39673     696.9623     459.7266
   1420.38147     696.6561     459.2599   1420.38147     696.6561     459.2599
   1420.36621     697.5937     459.1050   1420.36621     697.5937     459.1050
   1420.35095     697.7532     458.7376   1420.35095     697.7532     458.7376
   1420.33569     697.7293     458.9229   1420.33569     697.7293     458.9229
   1420.32043     700.1566     459.2534   1420.32043     700.1566     459.2534
   1420.30518     702.2889     460.0324   1420.30518     702.2889     460.0324
   1420.28992     706.5108     460.3814   1420.28992     706.5108     460.3814
   1420.27466     716.8054     467.5860   1420.27466     716.8054     467.5860
   1420.25940     749.9703     487.6351   1420.25940     749.9703     487.6351
   1420.24414     907.8782     584.3837   1420.24414     907.8782     584.3837
   1420.22888    1339.6508     849.7462   1420.22888    1339.6508     849.7462
   1420.21362    1057.1757     674.5656   1420.21362    1057.1757     674.5656
   1420.19836     969.0427     619.6683   1420.19836     969.0427     619.6683
   1420.18311    1017.1341     648.5809   1420.18311    1017.1341     648.5809
   1420.16785    1216.6326     768.2593   1420.16785    1216.6326     768.2593
   1420.15259    1550.3079     973.7568   1420.15259    1550.3079     973.7568
   1420.13733    1960.4332    1225.1398   1420.13733    1960.4332    1225.1398
   1420.12207    1885.4724    1178.0693   1420.12207    1885.4724    1178.0693
   1420.10681    1698.7977    1064.4807   1420.10681    1698.7977    1064.4807
   1420.09155    1719.5798    1074.2501   1420.09155    1719.5798    1074.2501
   1420.07629    1329.8374     833.1404   1420.07629    1329.8374     833.1404
   1420.06104    1106.5919     698.4263   1420.06104    1106.5919     698.4263
   1420.04578    1399.9419     872.7109   1420.04578    1399.9419     872.7109
   1420.03052    1972.3126    1221.8420   1420.03052    1972.3126    1221.8420
   1420.01526    2240.9482    1383.9908   1420.01526    2240.9482    1383.9908
   1420.00000    2107.6055    1302.7522   1420.00000    2107.6055    1302.7522
   1419.98474    1974.2628    1221.5143   1419.98474    1974.2628    1221.5143
   1419.96948    1827.5215    1128.8734   1419.96948    1827.5215    1128.8734
   1419.95422    1721.7073    1063.9741   1419.95422    1721.7073    1063.9741
   1419.93896    1663.3083    1022.9960   1419.93896    1663.3083    1022.9960
   1419.92371    1605.2445     990.2924   1419.92371    1605.2445     990.2924
   1419.90845    1566.4497     967.2490   1419.90845    1566.4497     967.2490
   1419.89319    1561.0430     964.0450   1419.89319    1561.0430     964.0450
   1419.87793    1544.5997     953.7449   1419.87793    1544.5997     953.7449
   1419.86267    1509.8116     930.7643   1419.86267    1509.8116     930.7643
   1419.84741    1303.6089     805.6617   1419.84741    1303.6089     805.6617
   1419.83215    1080.9932     669.4992   1419.83215    1080.9932     669.4992
   1419.81689     969.5483     601.5670   1419.81689     969.5483     601.5670
   1419.80164     890.0420     554.8052   1419.80164     890.0420     554.8052
   1419.78638     825.5135     515.0073   1419.78638     825.5135     515.0073
   1419.77112     789.2252     492.9019   1419.77112     789.2252     492.9019
   1419.75586     768.2103     479.9193   1419.75586     768.2103     479.9193
   1419.74060     750.7105     468.7702   1419.74060     750.7105     468.7702
   1419.72534     738.9031     461.0461   1419.72534     738.9031     461.0461
   1419.71008     727.0720     454.3851   1419.71008     727.0720     454.3851
   1419.69482     716.5157     447.6460   1419.69482     716.5157     447.6460
   1419.67957     708.8561     442.9451   1419.67957     708.8561     442.9451
   1419.66431     701.9324     437.8914   1419.66431     701.9324     437.8914
   1419.64905     696.6292     435.0034   1419.64905     696.6292     435.0034
   1419.63379     694.2039     432.7493   1419.63379     694.2039     432.7493
   1419.61853     692.3242     432.0045   1419.61853     692.3242     432.0045
   1419.60327     691.9679     430.6043   1419.60327     691.9679     430.6043
   1419.58801     692.2631     429.6458   1419.58801     692.2631     429.6458
   1419.57275     691.4187     429.0426   1419.57275     691.4187     429.0426
   1419.55750     690.7532     429.2737   1419.55750     690.7532     429.2737
   1419.54224     690.9824     428.8760   1419.54224     690.9824     428.8760
   1419.52698     690.5375     427.9394   1419.52698     690.5375     427.9394
   1419.51172     690.0287     427.9704   1419.51172     690.0287     427.9704
   1419.49646     691.5624     427.3261   1419.49646     691.5624     427.3261
   1419.48120     690.2632     426.5312   1419.48120     690.2632     426.5312
   1419.46594     690.2396     426.6141   1419.46594     690.2396     426.6141
   1419.45068     690.4619     426.2141   1419.45068     690.4619     426.2141
   1419.43542     690.5602     426.5473   1419.43542     690.5602     426.5473
   1419.42017     690.0847     426.6278   1419.42017     690.0847     426.6278
   1419.40491     691.2263     425.8613   1419.40491     691.2263     425.8613
   1419.38965     691.4099     425.2610   1419.38965     691.4099     425.2610
   1419.37439     691.0720     425.8311   1419.37439     691.0720     425.8311
   1419.35913     690.9849     425.9429   1419.35913     690.9849     425.9429
   1419.34387     691.8983     425.9183   1419.34387     691.8983     425.9183
   1419.32861     691.7015     425.4807   1419.32861     691.7015     425.4807
   1419.31335     693.0936     425.2151   1419.31335     693.0936     425.2151
   1419.29810     693.4856     425.5659   1419.29810     693.4856     425.5659
   1419.28284     693.7130     425.5438   1419.28284     693.7130     425.5438
   1419.26758     694.4486     425.7488   1419.26758     694.4486     425.7488
   1419.25232     693.9957     425.6453   1419.25232     693.9957     425.6453
   1419.23706     694.2343     425.7265   1419.23706     694.2343     425.7265
   1419.22180     694.6840     424.7669   1419.22180     694.6840     424.7669
   1419.20654     695.2468     425.2685   1419.20654     695.2468     425.2685
   1419.19128     695.3575     426.1104   1419.19128     695.3575     426.1104
   1419.17603     695.9518     425.7798   1419.17603     695.9518     425.7798
   1419.16077     695.4789     425.4074   1419.16077     695.4789     425.4074
   1419.14551     696.6266     425.8748   1419.14551     696.6266     425.8748
   1419.13025     698.2613     425.4367   1419.13025     698.2613     425.4367
   1419.11499     698.3301     425.8398   1419.11499     698.3301     425.8398
   1419.09973     699.0023     426.2311   1419.09973     699.0023     426.2311
   1419.08447     698.3530     425.4117   1419.08447     698.3530     425.4117
   1419.06921     698.9247     426.2707   1419.06921     698.9247     426.2707
   1419.05396     699.8895     426.5132   1419.05396     699.8895     426.5132
   1419.03870     701.2939     426.2502   1419.03870     701.2939     426.2502
   1419.02344     701.7832     426.4824   1419.02344     701.7832     426.4824
   1419.00818     701.3426     427.0492   1419.00818     701.3426     427.0492
   1418.99292     700.5535     427.4594   1418.99292     700.5535     427.4594
   1418.97766     702.5571     427.0810   1418.97766     702.5571     427.0810
   1418.96240     702.8934     427.1512   1418.96240     702.8934     427.1512
   1418.94714     703.6664     428.5816   1418.94714     703.6664     428.5816
   1418.93188     704.2814     427.9711   1418.93188     704.2814     427.9711
   1418.91663     705.9564     428.2669   1418.91663     705.9564     428.2669
   1418.90137     706.7659     428.8074   1418.90137     706.7659     428.8074
   1418.88611     706.0597     428.8813   1418.88611     706.0597     428.8813
   1418.87085     707.7229     429.4769   1418.87085     707.7229     429.4769
   1418.85559     707.6461     428.5924   1418.85559     707.6461     428.5924
   1418.84033     708.4061     429.4592   1418.84033     708.4061     429.4592
   1418.82507     709.4979     429.9373   1418.82507     709.4979     429.9373
   1418.80981     709.9515     429.9418   1418.80981     709.9515     429.9418
   1418.79456     711.7408     430.9786   1418.79456     711.7408     430.9786
   1418.77930     710.7126     431.0650   1418.77930     710.7126     431.0650
   1418.76404     712.3468     432.0258   1418.76404     712.3468     432.0258
   1418.74878     713.3934     431.7335   1418.74878     713.3934     431.7335
   1418.73352     713.4336     432.7068   1418.73352     713.4336     432.7068
   1418.71826     713.5006     431.9198   1418.71826     713.5006     431.9198
   1418.70300     715.2324     432.0766   1418.70300     715.2324     432.0766
   1418.68774     715.5578     433.6328   1418.68774     715.5578     433.6328
   1418.67249     717.0504     433.2273   1418.67249     717.0504     433.2273
   1418.65723     717.5107     433.5636   1418.65723     717.5107     433.5636
   1418.64197     717.5308     434.1480   1418.64197     717.5308     434.1480
   1418.62671     719.9318     433.7982   1418.62671     719.9318     433.7982
   1418.61145     718.1174     434.4081   1418.61145     718.1174     434.4081
   1418.59619     719.7456     434.3015   1418.59619     719.7456     434.3015
   1418.58093     721.3964     436.2891   1418.58093     721.3964     436.2891
   1418.56567     721.8811     436.1611   1418.56567     721.8811     436.1611
   1418.55042     722.7198     436.8300   1418.55042     722.7198     436.8300
   1418.53516     724.4966     437.0819   1418.53516     724.4966     437.0819
   1418.51990     723.8968     437.8755   1418.51990     723.8968     437.8755
   1418.50464     725.8900     438.5236   1418.50464     725.8900     438.5236
   1418.48938     727.0462     438.1696   1418.48938     727.0462     438.1696
   1418.47412     727.1592     438.6322   1418.47412     727.1592     438.6322
   1418.45886     728.4095     439.0995   1418.45886     728.4095     439.0995
   1418.44360     729.7703     439.1317   1418.44360     729.7703     439.1317
   1418.42834     730.1191     439.9514   1418.42834     730.1191     439.9514
   1418.41309     731.8906     440.3481   1418.41309     731.8906     440.3481
   1418.39783     731.5823     441.0873   1418.39783     731.5823     441.0873
   1418.38257     733.3070     441.5901   1418.38257     733.3070     441.5901
   1418.36731     734.7922     442.3777   1418.36731     734.7922     442.3777
   1418.35205     735.4558     442.9677   1418.35205     735.4558     442.9677
   1418.33679     735.8524     443.4425   1418.33679     735.8524     443.4425
   1418.32153     737.1664     443.5651   1418.32153     737.1664     443.5651
   1418.30627     738.8032     445.0580   1418.30627     738.8032     445.0580
   1418.29102     739.4164     444.0391   1418.29102     739.4164     444.0391
   1418.27576     740.4572     445.6496   1418.27576     740.4572     445.6496
   1418.26050     741.7762     446.4422   1418.26050     741.7762     446.4422
   1418.24524     742.0912     446.1208   1418.24524     742.0912     446.1208
   1418.22998     744.0921     447.6590   1418.22998     744.0921     447.6590
   1418.21472     745.2158     447.3593   1418.21472     745.2158     447.3593
   1418.19946     745.7528     448.2541   1418.19946     745.7528     448.2541
   1418.18420     746.2557     449.5981   1418.18420     746.2557     449.5981
   1418.16895     747.1342     449.3290   1418.16895     747.1342     449.3290
   1418.15369     748.3040     450.5446   1418.15369     748.3040     450.5446
   1418.13843     750.1255     450.4694   1418.13843     750.1255     450.4694
   1418.12317     751.9088     450.5298   1418.12317     751.9088     450.5298
   1418.10791     752.4062     451.6071   1418.10791     752.4062     451.6071
   1418.09265     753.2097     452.5208   1418.09265     753.2097     452.5208
   1418.07739     753.3953     452.8543   1418.07739     753.3953     452.8543
   1418.06213     756.0607     453.8954   1418.06213     756.0607     453.8954
   1418.04688     756.0676     453.8807   1418.04688     756.0676     453.8807
   1418.03162     757.4656     454.3525   1418.03162     757.4656     454.3525
   1418.01636     759.5098     455.5205   1418.01636     759.5098     455.5205
   1418.00110     761.2083     456.2411   1418.00110     761.2083     456.2411
   1417.98584     761.0578     457.1025   1417.98584     761.0578     457.1025
   1417.97058     762.8959     456.9281   1417.97058     762.8959     456.9281
   1417.95532     764.1096     457.6336   1417.95532     764.1096     457.6336
   1417.94006     765.6213     459.4880   1417.94006     765.6213     459.4880
   1417.92480     765.7849     459.3699   1417.92480     765.7849     459.3699
   1417.90955     768.2079     459.8805   1417.90955     768.2079     459.8805
   1417.89429     768.1604     460.7507   1417.89429     768.1604     460.7507
   1417.87903     769.8746     460.3755   1417.87903     769.8746     460.3755
   1417.86377     771.0456     461.2694   1417.86377     771.0456     461.2694
   1417.84851     771.9083     461.6369   1417.84851     771.9083     461.6369
   1417.83325     774.8414     463.2408   1417.83325     774.8414     463.2408
   1417.81799     775.0186     463.6256   1417.81799     775.0186     463.6256
   1417.80273     775.9303     464.3465   1417.80273     775.9303     464.3465
   1417.78748     776.7654     465.4732   1417.78748     776.7654     465.4732
   1417.77222     778.3801     465.9051   1417.77222     778.3801     465.9051
   1417.75696     780.3315     465.8487   1417.75696     780.3315     465.8487
   1417.74170     781.2031     466.3738   1417.74170     781.2031     466.3738
   1417.72644     782.5687     467.4405   1417.72644     782.5687     467.4405
   1417.71118     784.4491     467.9244   1417.71118     784.4491     467.9244
   1417.69592     785.0952     468.7354   1417.69592     785.0952     468.7354
   1417.68066     786.2147     469.8598   1417.68066     786.2147     469.8598
   1417.66541     787.3467     469.9538   1417.66541     787.3467     469.9538
   1417.65015     789.2180     470.9088   1417.65015     789.2180     470.9088
   1417.63489     789.9747     471.7296   1417.63489     789.9747     471.7296
   1417.61963     790.1273     472.0474   1417.61963     790.1273     472.0474
   1417.60437     792.5308     472.4268   1417.60437     792.5308     472.4268
   1417.58911     793.0559     473.4773   1417.58911     793.0559     473.4773
   1417.57385     794.8638     474.2169   1417.57385     794.8638     474.2169
   1417.55859     795.0038     473.9288   1417.55859     795.0038     473.9288
   1417.54333     797.3267     475.8966   1417.54333     797.3267     475.8966
   1417.52808     798.1212     475.7733   1417.52808     798.1212     475.7733
   1417.51282     799.0057     476.7468   1417.51282     799.0057     476.7468
   1417.49756     800.1288     476.6255   1417.49756     800.1288     476.6255
   1417.48230     802.7344     477.8932   1417.48230     802.7344     477.8932
   1417.46704     803.3603     478.5801   1417.46704     803.3603     478.5801
   1417.45178     805.5618     479.1513   1417.45178     805.5618     479.1513
   1417.43652     806.7732     478.7808   1417.43652     806.7732     478.7808
   1417.42126     806.4947     480.8357   1417.42126     806.4947     480.8357
   1417.40601     809.2111     480.7845   1417.40601     809.2111     480.7845
   1417.39075     810.1675     481.0232   1417.39075     810.1675     481.0232
   1417.37549     810.5289     482.7789   1417.37549     810.5289     482.7789
   1417.36023     811.6379     481.9871   1417.36023     811.6379     481.9871
   1417.34497     813.6022     483.8460   1417.34497     813.6022     483.8460
   1417.32971     815.2776     483.2757   1417.32971     815.2776     483.2757
   1417.31445     816.5046     484.3282   1417.31445     816.5046     484.3282
   1417.29919     816.9722     485.1091   1417.29919     816.9722     485.1091
   1417.28394     818.2836     485.7555   1417.28394     818.2836     485.7555
   1417.26868     818.6408     486.1161   1417.26868     818.6408     486.1161
   1417.25342     819.9451     487.3305   1417.25342     819.9451     487.3305
   1417.23816     819.7858     487.4371   1417.23816     819.7858     487.4371
   1417.22290     823.0823     489.9971   1417.22290     823.0823     489.9971
   1417.20764     823.9153     488.2339   1417.20764     823.9153     488.2339
   1417.19238     824.8972     489.2429   1417.19238     824.8972     489.2429
   1417.17712     825.3685     489.6333   1417.17712     825.3685     489.6333
   1417.16187     825.8733     490.2184   1417.16187     825.8733     490.2184
   1417.14661     827.5967     490.0139   1417.14661     827.5967     490.0139
   1417.13135     828.8511     491.2234   1417.13135     828.8511     491.2234
   1417.11609     829.3414     491.8100   1417.11609     829.3414     491.8100
   1417.10083     830.6160     492.4753   1417.10083     830.6160     492.4753
   1417.08557     831.6599     492.8852   1417.08557     831.6599     492.8852
   1417.07031     832.6631     492.7260   1417.07031     832.6631     492.7260
   1417.05505     834.2460     494.4724   1417.05505     834.2460     494.4724
   1417.03979     834.9611     492.9897   1417.03979     834.9611     492.9897
   1417.02454     835.4095     495.2227   1417.02454     835.4095     495.2227
   1417.00928     835.6594     495.6514   1417.00928     835.6594     495.6514
   1416.99402     837.6487     495.8380   1416.99402     837.6487     495.8380
   1416.97876     839.0429     496.3540   1416.97876     839.0429     496.3540
   1416.96350     839.0715     496.6246   1416.96350     839.0715     496.6246
   1416.94824     840.4814     497.0898   1416.94824     840.4814     497.0898
   1416.93298     839.5222     497.4766   1416.93298     839.5222     497.4766
   1416.91772     840.8583     497.4804   1416.91772     840.8583     497.4804
   1416.90247     842.4250     498.0713   1416.90247     842.4250     498.0713
   1416.88721     843.5626     498.5201   1416.88721     843.5626     498.5201
   1416.87195     842.7209     497.8698   1416.87195     842.7209     497.8698
   1416.85669     845.1488     498.5998   1416.85669     845.1488     498.5998
   1416.84143     845.7530     499.0222   1416.84143     845.7530     499.0222
   1416.82617     846.0634     499.2916   1416.82617     846.0634     499.2916
   1416.81091     846.5821     499.9862   1416.81091     846.5821     499.9862
   1416.79565     847.3363     499.8760   1416.79565     847.3363     499.8760
   1416.78040     848.8557     500.3452   1416.78040     848.8557     500.3452
   1416.76514     846.7147     500.8014   1416.76514     846.7147     500.8014
   1416.74988     848.5820     500.2888   1416.74988     848.5820     500.2888
   1416.73462     847.7211     500.7899   1416.73462     847.7211     500.7899
   1416.71936     849.8741     500.8143   1416.71936     849.8741     500.8143
   1416.70410     850.3526     500.6989   1416.70410     850.3526     500.6989
   1416.68884     850.7650     501.4159   1416.68884     850.7650     501.4159
   1416.67358     850.7328     501.5002   1416.67358     850.7328     501.5002
   1416.65833     850.7648     501.9655   1416.65833     850.7648     501.9655
   1416.64307     852.5600     501.5673   1416.64307     852.5600     501.5673
   1416.62781     851.1242     502.8638   1416.62781     851.1242     502.8638
   1416.61255     851.8547     502.3798   1416.61255     851.8547     502.3798
   1416.59729     853.0828     501.7766   1416.59729     853.0828     501.7766
   1416.58203     854.2623     502.8059   1416.58203     854.2623     502.8059
   1416.56677     853.9750     502.6344   1416.56677     853.9750     502.6344
   1416.55151     853.9075     502.0829   1416.55151     853.9075     502.0829
   1416.53625     853.1280     501.8257   1416.53625     853.1280     501.8257
   1416.52100     853.3296     502.2174   1416.52100     853.3296     502.2174
   1416.50574     854.4251     503.1305   1416.50574     854.4251     503.1305
   1416.49048     853.2321     502.6325   1416.49048     853.2321     502.6325
   1416.47522     854.6581     501.8653   1416.47522     854.6581     501.8653
   1416.45996     852.8732     501.9157   1416.45996     852.8732     501.9157
   1416.44470     853.7103     502.8957   1416.44470     853.7103     502.8957
   1416.42944     853.5906     502.6780   1416.42944     853.5906     502.6780
   1416.41418     854.1643     503.3936   1416.41418     854.1643     503.3936
   1416.39893     853.6171     502.4143   1416.39893     853.6171     502.4143
   1416.38367     854.1873     501.7726   1416.38367     854.1873     501.7726
   1416.36841     853.9324     502.7598   1416.36841     853.9324     502.7598
   1416.35315     852.5011     502.6316   1416.35315     852.5011     502.6316
   1416.33789     853.4104     501.1442   1416.33789     853.4104     501.1442
   1416.32263     853.1433     502.1797   1416.32263     853.1433     502.1797
   1416.30737     852.6411     500.8849   1416.30737     852.6411     500.8849
   1416.29211     853.0027     501.4538   1416.29211     853.0027     501.4538
   1416.27686     851.9595     501.9752   1416.27686     851.9595     501.9752
   1416.26160     852.1262     500.8960   1416.26160     852.1262     500.8960
   1416.24634     850.6650     499.7610   1416.24634     850.6650     499.7610
   1416.23108     851.5762     500.4573   1416.23108     851.5762     500.4573
   1416.21582     851.5493     500.8346   1416.21582     851.5493     500.8346
   1416.20056     851.3574     500.5169   1416.20056     851.3574     500.5169
   1416.18530     851.3594     500.8622   1416.18530     851.3594     500.8622
   1416.17004     850.6035     500.1801   1416.17004     850.6035     500.1801
   1416.15479     850.3439     499.2638   1416.15479     850.3439     499.2638
   1416.13953     849.6588     499.6285   1416.13953     849.6588     499.6285
   1416.12427     848.6543     500.2207   1416.12427     848.6543     500.2207
   1416.10901     849.3558     499.8387   1416.10901     849.3558     499.8387
   1416.09375     847.7181     499.4034   1416.09375     847.7181     499.4034
   1416.07849     847.8336     499.6019   1416.07849     847.8336     499.6019
   1416.06323     845.8841     498.6342   1416.06323     845.8841     498.6342
   1416.04797     845.9302     498.4269   1416.04797     845.9302     498.4269
   1416.03271     845.0046     497.9077   1416.03271     845.0046     497.9077
   1416.01746     845.1650     497.9758   1416.01746     845.1650     497.9758
   1416.00220     845.3548     497.6939   1416.00220     845.3548     497.6939
   1415.98694     844.9103     497.4180   1415.98694     844.9103     497.4180
   1415.97168     842.8442     496.5236   1415.97168     842.8442     496.5236
   1415.95642     842.4231     496.8389   1415.95642     842.4231     496.8389
   1415.94116     841.5237     497.4134   1415.94116     841.5237     497.4134
   1415.92590     842.1232     496.8697   1415.92590     842.1232     496.8697
   1415.91064     840.2009     496.9093   1415.91064     840.2009     496.9093
   1415.89539     840.3882     496.7315   1415.89539     840.3882     496.7315
   1415.88013     839.1811     495.7014   1415.88013     839.1811     495.7014
   1415.86487     839.2451     495.2346   1415.86487     839.2451     495.2346
   1415.84961     837.6930     494.4523   1415.84961     837.6930     494.4523
   1415.83435     837.6565     495.0598   1415.83435     837.6565     495.0598
   1415.81909     834.2020     494.2247   1415.81909     834.2020     494.2247
   1415.80383     834.9963     493.3296   1415.80383     834.9963     493.3296
   1415.78857     834.6877     494.4189   1415.78857     834.6877     494.4189
   1415.77332     834.1784     494.2471   1415.77332     834.1784     494.2471
   1415.75806     834.0319     493.3080   1415.75806     834.0319     493.3080
   1415.74280     832.3098     494.2270   1415.74280     832.3098     494.2270
   1415.72754     830.2527     493.4425   1415.72754     830.2527     493.4425
   1415.71228     831.2095     492.4247   1415.71228     831.2095     492.4247
   1415.69702     829.6199     492.9023   1415.69702     829.6199     492.9023
   1415.68176     829.6334     492.0576   1415.68176     829.6334     492.0576
   1415.66650     828.6144     491.7018   1415.66650     828.6144     491.7018
   1415.65125     827.3188     491.7563   1415.65125     827.3188     491.7563
   1415.63599     826.3686     490.8983   1415.63599     826.3686     490.8983
   1415.62073     824.3892     490.9249   1415.62073     824.3892     490.9249
   1415.60547     825.2469     490.7126   1415.60547     825.2469     490.7126
   1415.59021     822.7349     490.8744   1415.59021     822.7349     490.8744
   1415.57495     821.7293     490.0483   1415.57495     821.7293     490.0483
   1415.55969     821.9496     490.2136   1415.55969     821.9496     490.2136
   1415.54443     818.5695     489.5548   1415.54443     818.5695     489.5548
   1415.52917     818.9572     488.7400   1415.52917     818.9572     488.7400
   1415.51392     817.2905     489.1800   1415.51392     817.2905     489.1800
   1415.49866     816.0406     488.9853   1415.49866     816.0406     488.9853
   1415.48340     815.4048     487.9673   1415.48340     815.4048     487.9673
   1415.46814     814.9730     487.2397   1415.46814     814.9730     487.2397
   1415.45288     814.5674     487.5455   1415.45288     814.5674     487.5455
   1415.43762     812.4554     487.5719   1415.43762     812.4554     487.5719
   1415.42236     810.2576     487.5229   1415.42236     810.2576     487.5229
   1415.40710     809.4124     486.0864   1415.40710     809.4124     486.0864
   1415.39185     808.0028     486.2307   1415.39185     808.0028     486.2307
   1415.37659     806.7336     485.8073   1415.37659     806.7336     485.8073
   1415.36133     805.0016     486.3825   1415.36133     805.0016     486.3825
   1415.34607     804.1098     484.9124   1415.34607     804.1098     484.9124
   1415.33081     803.7324     485.0164   1415.33081     803.7324     485.0164
   1415.31555     801.1045     484.0249   1415.31555     801.1045     484.0249
   1415.30029     799.3549     484.1614   1415.30029     799.3549     484.1614
   1415.28503     798.9500     483.5000   1415.28503     798.9500     483.5000
   1415.26978     796.7509     482.8970   1415.26978     796.7509     482.8970
   1415.25452     795.9673     482.4194   1415.25452     795.9673     482.4194
   1415.23926     795.6814     483.1201   1415.23926     795.6814     483.1201
   1415.22400     793.9856     482.1098   1415.22400     793.9856     482.1098
   1415.20874     791.3256     481.2985   1415.20874     791.3256     481.2985
   1415.19348     790.6161     481.5972   1415.19348     790.6161     481.5972
   1415.17822     788.9522     480.3473   1415.17822     788.9522     480.3473
   1415.16296     786.7988     479.5282   1415.16296     786.7988     479.5282
   1415.14771     785.1671     479.7727   1415.14771     785.1671     479.7727
   1415.13245     783.3870     479.1402   1415.13245     783.3870     479.1402
   1415.11719     781.2994     479.2966   1415.11719     781.2994     479.2966
   1415.10193     779.9709     477.8735   1415.10193     779.9709     477.8735
   1415.08667     780.1793     477.9878   1415.08667     780.1793     477.9878
   1415.07141     777.6539     477.2819   1415.07141     777.6539     477.2819
   1415.05615     775.9040     476.6383   1415.05615     775.9040     476.6383
   1415.04089     774.0437     476.1923   1415.04089     774.0437     476.1923
   1415.02563     771.2748     476.4954   1415.02563     771.2748     476.4954
   1415.01038     768.7362     475.5896   1415.01038     768.7362     475.5896
   1414.99512     768.1647     475.0306   1414.99512     768.1647     475.0306
   1414.97986     766.8779     474.2892   1414.97986     766.8779     474.2892
   1414.96460     764.0178     473.1209   1414.96460     764.0178     473.1209
   1414.94934     762.5308     473.2252   1414.94934     762.5308     473.2252
   1414.93408     761.5876     471.7289   1414.93408     761.5876     471.7289
   1414.91882     757.8652     471.5801   1414.91882     757.8652     471.5801
   1414.90356     757.1793     470.7863   1414.90356     757.1793     470.7863
   1414.88831     753.7332     470.4913   1414.88831     753.7332     470.4913
   1414.87305     752.6300     469.5190   1414.87305     752.6300     469.5190
   1414.85779     751.1564     469.4005   1414.85779     751.1564     469.4005
   1414.84253     748.3851     468.2947   1414.84253     748.3851     468.2947
   1414.82727     746.2780     468.7243   1414.82727     746.2780     468.7243
   1414.81201     744.5229     468.1921   1414.81201     744.5229     468.1921
   1414.79675     743.4819     467.0726   1414.79675     743.4819     467.0726
   1414.78149     740.7219     465.7775   1414.78149     740.7219     465.7775
   1414.76624     738.5652     465.3332   1414.76624     738.5652     465.3332
   1414.75098     735.5118     464.4555   1414.75098     735.5118     464.4555
   1414.73572     734.7703     463.8033   1414.73572     734.7703     463.8033
   1414.72046     731.7012     463.5873   1414.72046     731.7012     463.5873
   1414.70520     730.2474     462.9236   1414.70520     730.2474     462.9236
   1414.68994     726.3900     461.6801   1414.68994     726.3900     461.6801
   1414.67468     725.3871     461.4431   1414.67468     725.3871     461.4431
   1414.65942     723.9522     460.2486   1414.65942     723.9522     460.2486
   1414.64417     721.9740     459.7229   1414.64417     721.9740     459.7229
   1414.62891     718.3360     458.4696   1414.62891     718.3360     458.4696
   1414.61365     715.7902     457.4795   1414.61365     715.7902     457.4795
   1414.59839     714.0245     457.3426   1414.59839     714.0245     457.3426
   1414.58313     710.8947     455.8268   1414.58313     710.8947     455.8268
   1414.56787     709.9744     455.5780   1414.56787     709.9744     455.5780
   1414.55261     705.6637     454.1267   1414.55261     705.6637     454.1267
   1414.53735     703.6310     452.8716   1414.53735     703.6310     452.8716
   1414.52209     701.5934     452.1590   1414.52209     701.5934     452.1590
   1414.50684     699.2512     452.2406   1414.50684     699.2512     452.2406
   1414.49158     697.1840     450.8384   1414.49158     697.1840     450.8384
   1414.47632     694.2142     450.0953   1414.47632     694.2142     450.0953
   1414.46106     691.0347     448.6830   1414.46106     691.0347     448.6830
   1414.44580     688.0160     447.7887   1414.44580     688.0160     447.7887
   1414.43054     686.1793     447.6255   1414.43054     686.1793     447.6255
   1414.41528     682.9671     445.5899   1414.41528     682.9671     445.5899
   1414.40002     679.7012     444.5175   1414.40002     679.7012     444.5175
   1414.38477     677.5658     443.4508   1414.38477     677.5658     443.4508
   1414.36951     675.6494     443.0470   1414.36951     675.6494     443.0470
   1414.35425     673.0637     441.4818   1414.35425     673.0637     441.4818
   1414.33899     670.4668     440.6658   1414.33899     670.4668     440.6658
   1414.32373     666.2169     439.3010   1414.32373     666.2169     439.3010
   1414.30847     663.5636     438.3301   1414.30847     663.5636     438.3301
   1414.29321     661.1443     437.5641   1414.29321     661.1443     437.5641
   1414.27795     658.1630     435.5968   1414.27795     658.1630     435.5968
   1414.26270     655.1932     434.7969   1414.26270     655.1932     434.7969
   1414.24744     652.1287     434.2950   1414.24744     652.1287     434.2950
   1414.23218     649.5657     432.9294   1414.23218     649.5657     432.9294
   1414.21692     647.1136     431.4426   1414.21692     647.1136     431.4426
   1414.20166     643.9052     430.3449   1414.20166     643.9052     430.3449
   1414.18640     639.8477     429.2112   1414.18640     639.8477     429.2112
   1414.17114     637.9886     427.8737   1414.17114     637.9886     427.8737
   1414.15588     635.0891     426.9517   1414.15588     635.0891     426.9517
   1414.14062     631.1925     425.7928   1414.14062     631.1925     425.7928
   1414.12537     628.6848     424.1337   1414.12537     628.6848     424.1337
   1414.11011     625.9542     423.1714   1414.11011     625.9542     423.1714
   1414.09485     622.7852     421.4580   1414.09485     622.7852     421.4580
   1414.07959     619.6585     420.7735   1414.07959     619.6585     420.7735
   1414.06433     616.0650     419.1575   1414.06433     616.0650     419.1575
   1414.04907     612.8749     417.2429   1414.04907     612.8749     417.2429
   1414.03381     610.7703     416.6981   1414.03381     610.7703     416.6981
   1414.01855     607.4550     414.9682   1414.01855     607.4550     414.9682
   1414.00330     620.0491     419.9282   1414.00330     620.0491     419.9282
   1413.98804     602.0049     413.0219   1413.98804     602.0049     413.0219
   1413.97278     599.3932     410.4166   1413.97278     599.3932     410.4166
   1413.95752     595.4020     409.5549   1413.95752     595.4020     409.5549
   1413.94226     592.3290     408.0517   1413.94226     592.3290     408.0517
   1413.92700     588.4722     406.6057   1413.92700     588.4722     406.6057
   1413.91174     585.1141     405.2085   1413.91174     585.1141     405.2085
   1413.89648     582.0931     404.1864   1413.89648     582.0931     404.1864
   1413.88123     578.8002     402.5257   1413.88123     578.8002     402.5257
   1413.86597     575.5426     401.6663   1413.86597     575.5426     401.6663
   1413.85071     571.7844     400.0910   1413.85071     571.7844     400.0910
   1413.83545     568.9313     398.4045   1413.83545     568.9313     398.4045
   1413.82019     566.0672     396.4286   1413.82019     566.0672     396.4286
   1413.80493     562.4406     395.7762   1413.80493     562.4406     395.7762
   1413.78967     559.4387     394.1116   1413.78967     559.4387     394.1116
   1413.77441     555.7866     392.0460   1413.77441     555.7866     392.0460
   1413.75916     554.0518     391.0748   1413.75916     554.0518     391.0748
   1413.74390     549.5060     388.7448   1413.74390     549.5060     388.7448
   1413.72864     547.0465     387.8092   1413.72864     547.0465     387.8092
   1413.71338     543.8900     386.3925   1413.71338     543.8900     386.3925
   1413.69812     539.7790     385.2885   1413.69812     539.7790     385.2885
   1413.68286     536.8075     382.8578   1413.68286     536.8075     382.8578
   1413.66760     533.8469     381.1922   1413.66760     533.8469     381.1922
   1413.65234     531.9039     380.2100   1413.65234     531.9039     380.2100
   1413.63708     527.9171     378.6109   1413.63708     527.9171     378.6109
   1413.62183     523.7117     377.1966   1413.62183     523.7117     377.1966
   1413.60657     520.7388     375.7614   1413.60657     520.7388     375.7614
   1413.59131     518.1102     373.7363   1413.59131     518.1102     373.7363
   1413.57605     514.9788     371.9829   1413.57605     514.9788     371.9829
   1413.56079     511.5591     370.7292   1413.56079     511.5591     370.7292
   1413.54553     509.2336     369.0820   1413.54553     509.2336     369.0820
   1413.53027     505.7977     367.3395   1413.53027     505.7977     367.3395
   1413.51501     503.2998     366.1179   1413.51501     503.2998     366.1179
   1413.49976     499.1491     364.3931   1413.49976     499.1491     364.3931
   1413.48450     496.6764     362.8810   1413.48450     496.6764     362.8810
   1413.46924     492.8005     360.7540   1413.46924     492.8005     360.7540
   1413.45398     489.7738     359.8790   1413.45398     489.7738     359.8790
   1413.43872     487.2299     358.6242   1413.43872     487.2299     358.6242
   1413.42346     484.2992     356.1100   1413.42346     484.2992     356.1100
   1413.40820     481.9171     354.7676   1413.40820     481.9171     354.7676
   1413.39294     478.9615     353.4661   1413.39294     478.9615     353.4661
   1413.37769     475.9979     352.3554   1413.37769     475.9979     352.3554
   1413.36243     473.0988     350.5112   1413.36243     473.0988     350.5112
   1413.34717     469.3371     348.8813   1413.34717     469.3371     348.8813
   1413.33191     466.5013     347.2309   1413.33191     466.5013     347.2309
   1413.31665     464.1776     345.6797   1413.31665     464.1776     345.6797
   1413.30139     461.3580     344.1465   1413.30139     461.3580     344.1465
   1413.28613     458.6420     342.4551   1413.28613     458.6420     342.4551
   1413.27087     455.5948     341.0177   1413.27087     455.5948     341.0177
   1413.25562     452.7080     339.7497   1413.25562     452.7080     339.7497
   1413.24036     450.3165     338.1274   1413.24036     450.3165     338.1274
   1413.22510     447.4794     336.5879   1413.22510     447.4794     336.5879
   1413.20984     445.0790     335.2378   1413.20984     445.0790     335.2378
   1413.19458     442.2718     333.6558   1413.19458     442.2718     333.6558
   1413.17932     439.4061     332.0562   1413.17932     439.4061     332.0562
   1413.16406     436.5250     330.7109   1413.16406     436.5250     330.7109
   1413.14880     434.3584     328.8608   1413.14880     434.3584     328.8608
   1413.13354     432.2781     328.2758   1413.13354     432.2781     328.2758
   1413.11829     429.8920     327.3667   1413.11829     429.8920     327.3667
   1413.10303     426.4560     325.3310   1413.10303     426.4560     325.3310
   1413.08777     424.9158     323.7118   1413.08777     424.9158     323.7118
   1413.07251     422.5481     322.7365   1413.07251     422.5481     322.7365
   1413.05725     420.1082     321.2283   1413.05725     420.1082     321.2283
   1413.04199     418.1786     319.7219   1413.04199     418.1786     319.7219
   1413.02673     415.3610     318.5363   1413.02673     415.3610     318.5363
   1413.01147     413.9970     317.2333   1413.01147     413.9970     317.2333
   1412.99622     411.8680     316.0256   1412.99622     411.8680     316.0256
   1412.98096     409.4223     314.9734   1412.98096     409.4223     314.9734
   1412.96570     407.2920     313.5758   1412.96570     407.2920     313.5758
   1412.95044     405.4290     312.7672   1412.95044     405.4290     312.7672
   1412.93518     403.5415     311.5326   1412.93518     403.5415     311.5326
   1412.91992     401.7458     310.1084   1412.91992     401.7458     310.1084
   1412.90466     399.4561     308.5954   1412.90466     399.4561     308.5954
   1412.88940     398.1380     307.6349   1412.88940     398.1380     307.6349
   1412.87415     396.2424     306.6176   1412.87415     396.2424     306.6176
   1412.85889     394.5561     306.4142   1412.85889     394.5561     306.4142
   1412.84363     392.6735     304.6817   1412.84363     392.6735     304.6817
   1412.82837     390.8369     303.8779   1412.82837     390.8369     303.8779
   1412.81311     388.7754     302.6728   1412.81311     388.7754     302.6728
   1412.79785     387.2650     301.5456   1412.79785     387.2650     301.5456
   1412.78259     386.0305     300.1978   1412.78259     386.0305     300.1978
   1412.76733     384.6559     299.7741   1412.76733     384.6559     299.7741
   1412.75208     383.0772     298.9352   1412.75208     383.0772     298.9352
   1412.73682     382.1547     297.9341   1412.73682     382.1547     297.9341
   1412.72156     380.5732     297.1743   1412.72156     380.5732     297.1743
   1412.70630     379.0908     295.8335   1412.70630     379.0908     295.8335
   1412.69104     378.0510     295.8064   1412.69104     378.0510     295.8064
   1412.67578     377.2502     295.3492   1412.67578     377.2502     295.3492
   1412.66052     375.6431     294.6238   1412.66052     375.6431     294.6238
   1412.64526     374.0648     293.3454   1412.64526     374.0648     293.3454
   1412.63000     374.2998     293.2179   1412.63000     374.2998     293.2179
   1412.61475     373.4873     292.2630   1412.61475     373.4873     292.2630
   1412.59949     371.4907     291.1695   1412.59949     371.4907     291.1695
   1412.58423     370.9504     290.8996   1412.58423     370.9504     290.8996
   1412.56897     370.4593     290.6787   1412.56897     370.4593     290.6787
   1412.55371     369.2713     289.8866   1412.55371     369.2713     289.8866
   1412.53845     369.4265     289.9755   1412.53845     369.4265     289.9755
   1412.52319     367.8742     289.1945   1412.52319     367.8742     289.1945
   1412.50793     367.6327     288.6911   1412.50793     367.6327     288.6911
   1412.49268     367.3597     288.7026   1412.49268     367.3597     288.7026
   1412.47742     367.0079     288.0537   1412.47742     367.0079     288.0537
   1412.46216     366.5500     288.0288   1412.46216     366.5500     288.0288
   1412.44690     366.0365     287.5481   1412.44690     366.0365     287.5481
   1412.43164     366.0681     287.5157   1412.43164     366.0681     287.5157
   1412.41638     365.6689     287.4193   1412.41638     365.6689     287.4193
   1412.40112     365.6476     286.6208   1412.40112     365.6476     286.6208
   1412.38586     365.7820     287.1995   1412.38586     365.7820     287.1995
   1412.37061     365.1655     287.2197   1412.37061     365.1655     287.2197
   1412.35535     365.2940     287.0613   1412.35535     365.2940     287.0613
   1412.34009     364.9149     287.3515   1412.34009     364.9149     287.3515
   1412.32483     365.3408     287.4427   1412.32483     365.3408     287.4427
   1412.30957     366.0423     287.5262   1412.30957     366.0423     287.5262
   1412.29431     365.9868     287.3310   1412.29431     365.9868     287.3310
   1412.27905     366.7377     288.0436   1412.27905     366.7377     288.0436
   1412.26379     367.2376     288.2301   1412.26379     367.2376     288.2301
   1412.24854     367.1909     288.1279   1412.24854     367.1909     288.1279
   1412.23328     367.5254     288.7545   1412.23328     367.5254     288.7545
   1412.21802     368.3389     289.2750   1412.21802     368.3389     289.2750
   1412.20276     368.9550     289.0358   1412.20276     368.9550     289.0358