#     FILENAME=!Skynet_57533_lach-hhg-199-2_20808_21204.cyb.fits
#     BASENAME=Skynet_57533_lach-hhg-199-2_20808_21204
#     SRC_NAME=lach-hhg-199-2
#     OBSERVER=ccmadison16_9505
#     DATE_OBS=2016-05-25T18:25:43.430
#        OBSID=20808
#      SCANNUM=21204
#          MJD=57533.7689
#          UTC=66432
#     SCANTYPE=track
#     DATAMODE=HIRES
#     TUNEFREQ=1420.0000
# Actual_FREQ1=1420.0000
# Actual_FREQ2=1420.0000
#    LO1Tuning=6870.000
#     RFFILTER=1355_1435
#        OBSBW=-15.6250
#        NCHAN=1024 
#        FOCUS=37.0709
#           RA=06:25:34.06
#          DEC=12:22:18.66
#      RA(hrs)=6.426100
#     DEC(deg)=12.371900
#    AZIM(deg)=146.126
#    ELEV(deg)=60.049
#     IFattens=10.00, 9.00
#      WARNING=None
#    TCAL_XL1=7.9635
#    TCAL_YR1=9.1340
#    TCAL_XL2=7.9635
#    TCAL_YR2=9.1340
#     TRX_XL1=11.7060
#     TRX_YR1=11.7060
#     TRX_XL2=11.7060
#     TRX_YR2=11.7060
#        TAVE=1.0000
#Freq1(MHz)          XL1          YR1  Freq2(MHz)          XL2          YR2 

   1427.81250     359.5334     255.3753   1427.81250     359.5334     255.3753
   1427.79724     360.5748     255.4897   1427.79724     360.5748     255.4897
   1427.78198     361.1899     256.9058   1427.78198     361.1899     256.9058
   1427.76672     361.7930     257.5021   1427.76672     361.7930     257.5021
   1427.75146     362.3154     258.8868   1427.75146     362.3154     258.8868
   1427.73621     362.6711     259.8851   1427.73621     362.6711     259.8851
   1427.72095     364.0787     260.9118   1427.72095     364.0787     260.9118
   1427.70569     364.9185     262.6068   1427.70569     364.9185     262.6068
   1427.69043     366.2564     263.4837   1427.69043     366.2564     263.4837
   1427.67517     367.1735     264.6773   1427.67517     367.1735     264.6773
   1427.65991     368.4072     266.0698   1427.65991     368.4072     266.0698
   1427.64465     369.6737     267.8368   1427.64465     369.6737     267.8368
   1427.62939     370.3218     268.7564   1427.62939     370.3218     268.7564
   1427.61414     371.1207     269.9404   1427.61414     371.1207     269.9404
   1427.59888     372.5453     271.4914   1427.59888     372.5453     271.4914
   1427.58362     374.7794     272.9822   1427.58362     374.7794     272.9822
   1427.56836     375.9302     274.5093   1427.56836     375.9302     274.5093
   1427.55310     377.3298     275.6757   1427.55310     377.3298     275.6757
   1427.53784     378.8659     277.7976   1427.53784     378.8659     277.7976
   1427.52258     380.0809     278.8975   1427.52258     380.0809     278.8975
   1427.50732     381.6272     280.4492   1427.50732     381.6272     280.4492
   1427.49207     383.3849     282.4334   1427.49207     383.3849     282.4334
   1427.47681     384.5251     284.3058   1427.47681     384.5251     284.3058
   1427.46155     386.9102     285.6857   1427.46155     386.9102     285.6857
   1427.44629     388.3864     287.3165   1427.44629     388.3864     287.3165
   1427.43103     389.8823     289.0194   1427.43103     389.8823     289.0194
   1427.41577     392.6891     291.3262   1427.41577     392.6891     291.3262
   1427.40051     393.6445     292.4997   1427.40051     393.6445     292.4997
   1427.38525     395.8013     294.4538   1427.38525     395.8013     294.4538
   1427.37000     398.0952     296.5942   1427.37000     398.0952     296.5942
   1427.35474     400.8419     298.4052   1427.35474     400.8419     298.4052
   1427.33948     401.8392     300.3641   1427.33948     401.8392     300.3641
   1427.32422     405.0032     302.0772   1427.32422     405.0032     302.0772
   1427.30896     406.5881     304.6683   1427.30896     406.5881     304.6683
   1427.29370     409.0788     306.0051   1427.29370     409.0788     306.0051
   1427.27844     411.6875     308.3675   1427.27844     411.6875     308.3675
   1427.26318     413.9763     310.3723   1427.26318     413.9763     310.3723
   1427.24792     416.4713     312.0987   1427.24792     416.4713     312.0987
   1427.23267     417.9720     314.5153   1427.23267     417.9720     314.5153
   1427.21741     421.0304     317.1165   1427.21741     421.0304     317.1165
   1427.20215     423.1859     318.6557   1427.20215     423.1859     318.6557
   1427.18689     425.8627     321.1277   1427.18689     425.8627     321.1277
   1427.17163     428.6258     322.8323   1427.17163     428.6258     322.8323
   1427.15637     430.8575     325.2747   1427.15637     430.8575     325.2747
   1427.14111     433.1416     327.5123   1427.14111     433.1416     327.5123
   1427.12585     436.0388     329.6944   1427.12585     436.0388     329.6944
   1427.11060     439.3456     331.8453   1427.11060     439.3456     331.8453
   1427.09534     441.1627     334.0482   1427.09534     441.1627     334.0482
   1427.08008     444.1076     335.6925   1427.08008     444.1076     335.6925
   1427.06482     447.0733     338.3862   1427.06482     447.0733     338.3862
   1427.04956     449.3673     340.9403   1427.04956     449.3673     340.9403
   1427.03430     452.1750     342.7639   1427.03430     452.1750     342.7639
   1427.01904     455.1453     345.2049   1427.01904     455.1453     345.2049
   1427.00378     458.6296     347.7921   1427.00378     458.6296     347.7921
   1426.98853     460.6339     349.0353   1426.98853     460.6339     349.0353
   1426.97327     463.6569     351.3380   1426.97327     463.6569     351.3380
   1426.95801     467.0237     354.2019   1426.95801     467.0237     354.2019
   1426.94275     469.5413     356.0360   1426.94275     469.5413     356.0360
   1426.92749     472.8022     359.1117   1426.92749     472.8022     359.1117
   1426.91223     476.2669     360.8655   1426.91223     476.2669     360.8655
   1426.89697     478.2303     362.5869   1426.89697     478.2303     362.5869
   1426.88171     481.8862     365.2560   1426.88171     481.8862     365.2560
   1426.86646     484.4430     367.4795   1426.86646     484.4430     367.4795
   1426.85120     487.5632     369.5169   1426.85120     487.5632     369.5169
   1426.83594     490.3362     372.5017   1426.83594     490.3362     372.5017
   1426.82068     494.1742     374.3030   1426.82068     494.1742     374.3030
   1426.80542     496.7282     376.6890   1426.80542     496.7282     376.6890
   1426.79016     500.3814     378.2248   1426.79016     500.3814     378.2248
   1426.77490     502.8897     380.9517   1426.77490     502.8897     380.9517
   1426.75964     505.9512     382.8256   1426.75964     505.9512     382.8256
   1426.74438     509.2917     386.2796   1426.74438     509.2917     386.2796
   1426.72913     513.3726     387.6604   1426.72913     513.3726     387.6604
   1426.71387     515.7311     390.1694   1426.71387     515.7311     390.1694
   1426.69861     519.0454     392.1292   1426.69861     519.0454     392.1292
   1426.68335     522.4565     394.1404   1426.68335     522.4565     394.1404
   1426.66809     524.6296     396.8402   1426.66809     524.6296     396.8402
   1426.65283     529.0115     398.8604   1426.65283     529.0115     398.8604
   1426.63757     531.6454     401.0211   1426.63757     531.6454     401.0211
   1426.62231     535.6782     407.0851   1426.62231     535.6782     407.0851
   1426.60706     538.0775     406.2880   1426.60706     538.0775     406.2880
   1426.59180     540.7609     408.4153   1426.59180     540.7609     408.4153
   1426.57654     544.2786     408.8828   1426.57654     544.2786     408.8828
   1426.56128     547.3877     411.7831   1426.56128     547.3877     411.7831
   1426.54602     550.9365     413.0804   1426.54602     550.9365     413.0804
   1426.53076     553.6516     415.6484   1426.53076     553.6516     415.6484
   1426.51550     557.0817     417.0902   1426.51550     557.0817     417.0902
   1426.50024     559.5057     419.1960   1426.50024     559.5057     419.1960
   1426.48499     562.3788     421.3897   1426.48499     562.3788     421.3897
   1426.46973     566.2427     423.4611   1426.46973     566.2427     423.4611
   1426.45447     569.5098     424.6519   1426.45447     569.5098     424.6519
   1426.43921     572.3409     427.2123   1426.43921     572.3409     427.2123
   1426.42395     575.5327     429.5295   1426.42395     575.5327     429.5295
   1426.40869     578.1940     430.7900   1426.40869     578.1940     430.7900
   1426.39343     582.0491     432.3641   1426.39343     582.0491     432.3641
   1426.37817     585.5294     434.4738   1426.37817     585.5294     434.4738
   1426.36292     588.0282     437.0239   1426.36292     588.0282     437.0239
   1426.34766     590.6453     438.8688   1426.34766     590.6453     438.8688
   1426.33240     594.4137     440.0583   1426.33240     594.4137     440.0583
   1426.31714     596.2837     440.9955   1426.31714     596.2837     440.9955
   1426.30188     600.2431     443.3933   1426.30188     600.2431     443.3933
   1426.28662     604.0294     445.0394   1426.28662     604.0294     445.0394
   1426.27136     605.4517     446.6017   1426.27136     605.4517     446.6017
   1426.25610     608.5880     448.1707   1426.25610     608.5880     448.1707
   1426.24084     611.5495     450.0919   1426.24084     611.5495     450.0919
   1426.22559     614.9810     450.8941   1426.22559     614.9810     450.8941
   1426.21033     617.2963     454.2419   1426.21033     617.2963     454.2419
   1426.19507     620.9929     454.8763   1426.19507     620.9929     454.8763
   1426.17981     623.5852     455.7552   1426.17981     623.5852     455.7552
   1426.16455     626.4925     458.3358   1426.16455     626.4925     458.3358
   1426.14929     628.5186     459.3606   1426.14929     628.5186     459.3606
   1426.13403     632.0831     461.6053   1426.13403     632.0831     461.6053
   1426.11877     635.0357     462.6766   1426.11877     635.0357     462.6766
   1426.10352     637.0361     463.7120   1426.10352     637.0361     463.7120
   1426.08826     640.5013     466.0781   1426.08826     640.5013     466.0781
   1426.07300     642.0009     466.7758   1426.07300     642.0009     466.7758
   1426.05774     645.0672     468.2565   1426.05774     645.0672     468.2565
   1426.04248     647.4551     469.1703   1426.04248     647.4551     469.1703
   1426.02722     649.8824     470.2990   1426.02722     649.8824     470.2990
   1426.01196     652.6637     471.5471   1426.01196     652.6637     471.5471
   1425.99670     655.3610     472.7770   1425.99670     655.3610     472.7770
   1425.98145     657.5966     474.1914   1425.98145     657.5966     474.1914
   1425.96619     660.0406     476.0692   1425.96619     660.0406     476.0692
   1425.95093     662.1031     476.7262   1425.95093     662.1031     476.7262
   1425.93567     665.0829     477.8628   1425.93567     665.0829     477.8628
   1425.92041     667.9472     478.8447   1425.92041     667.9472     478.8447
   1425.90515     670.3049     480.0937   1425.90515     670.3049     480.0937
   1425.88989     673.1519     481.1310   1425.88989     673.1519     481.1310
   1425.87463     673.8874     482.3184   1425.87463     673.8874     482.3184
   1425.85938     676.6832     483.7285   1425.85938     676.6832     483.7285
   1425.84412     679.5446     484.1950   1425.84412     679.5446     484.1950
   1425.82886     681.1183     484.9129   1425.82886     681.1183     484.9129
   1425.81360     682.1201     486.6377   1425.81360     682.1201     486.6377
   1425.79834     684.1094     487.7206   1425.79834     684.1094     487.7206
   1425.78308     686.9741     487.5838   1425.78308     686.9741     487.5838
   1425.76782     689.0578     488.9234   1425.76782     689.0578     488.9234
   1425.75256     690.5588     489.4310   1425.75256     690.5588     489.4310
   1425.73730     692.0220     490.4061   1425.73730     692.0220     490.4061
   1425.72205     695.4731     491.9882   1425.72205     695.4731     491.9882
   1425.70679     696.6995     492.4322   1425.70679     696.6995     492.4322
   1425.69153     698.2755     493.1351   1425.69153     698.2755     493.1351
   1425.67627     699.8192     494.0784   1425.67627     699.8192     494.0784
   1425.66101     702.3080     494.8104   1425.66101     702.3080     494.8104
   1425.64575     704.7927     496.1276   1425.64575     704.7927     496.1276
   1425.63049     706.1364     496.6469   1425.63049     706.1364     496.6469
   1425.61523     707.4659     497.1615   1425.61523     707.4659     497.1615
   1425.59998     708.7275     498.1248   1425.59998     708.7275     498.1248
   1425.58472     710.8395     499.2336   1425.58472     710.8395     499.2336
   1425.56946     711.8785     499.0170   1425.56946     711.8785     499.0170
   1425.55420     714.1097     500.7372   1425.55420     714.1097     500.7372
   1425.53894     714.5935     500.5783   1425.53894     714.5935     500.5783
   1425.52368     716.6093     500.0160   1425.52368     716.6093     500.0160
   1425.50842     717.8369     501.7543   1425.50842     717.8369     501.7543
   1425.49316     720.3715     501.7023   1425.49316     720.3715     501.7023
   1425.47791     720.3262     503.1404   1425.47791     720.3262     503.1404
   1425.46265     722.5253     503.8871   1425.46265     722.5253     503.8871
   1425.44739     723.6942     504.0428   1425.44739     723.6942     504.0428
   1425.43213     723.9978     504.1206   1425.43213     723.9978     504.1206
   1425.41687     726.1030     504.4141   1425.41687     726.1030     504.4141
   1425.40161     727.4546     505.2932   1425.40161     727.4546     505.2932
   1425.38635     729.6696     505.6800   1425.38635     729.6696     505.6800
   1425.37109     731.8378     506.0867   1425.37109     731.8378     506.0867
   1425.35583     730.3668     506.6990   1425.35583     730.3668     506.6990
   1425.34058     731.7337     507.1173   1425.34058     731.7337     507.1173
   1425.32532     732.6293     507.2996   1425.32532     732.6293     507.2996
   1425.31006     733.9240     507.0464   1425.31006     733.9240     507.0464
   1425.29480     733.8372     507.8655   1425.29480     733.8372     507.8655
   1425.27954     735.5767     508.2957   1425.27954     735.5767     508.2957
   1425.26428     735.2441     508.7045   1425.26428     735.2441     508.7045
   1425.24902     737.4489     508.8132   1425.24902     737.4489     508.8132
   1425.23376     738.8583     509.9070   1425.23376     738.8583     509.9070
   1425.21851     739.3629     510.0975   1425.21851     739.3629     510.0975
   1425.20325     739.7259     509.6193   1425.20325     739.7259     509.6193
   1425.18799     740.4141     510.8033   1425.18799     740.4141     510.8033
   1425.17273     740.9832     510.3778   1425.17273     740.9832     510.3778
   1425.15747     741.4766     510.1414   1425.15747     741.4766     510.1414
   1425.14221     742.2761     510.8986   1425.14221     742.2761     510.8986
   1425.12695     743.1081     512.5463   1425.12695     743.1081     512.5463
   1425.11169     744.0382     511.8533   1425.11169     744.0382     511.8533
   1425.09644     743.5817     511.9847   1425.09644     743.5817     511.9847
   1425.08118     745.1557     512.4161   1425.08118     745.1557     512.4161
   1425.06592     745.3920     511.7947   1425.06592     745.3920     511.7947
   1425.05066     745.4134     512.4188   1425.05066     745.4134     512.4188
   1425.03540     746.1182     512.5057   1425.03540     746.1182     512.5057
   1425.02014     746.8143     512.7008   1425.02014     746.8143     512.7008
   1425.00488     747.0319     511.8369   1425.00488     747.0319     511.8369
   1424.98962     747.8756     513.9067   1424.98962     747.8756     513.9067
   1424.97437     747.0417     512.7951   1424.97437     747.0417     512.7951
   1424.95911     747.4417     513.4832   1424.95911     747.4417     513.4832
   1424.94385     747.7437     513.2390   1424.94385     747.7437     513.2390
   1424.92859     747.8604     513.0504   1424.92859     747.8604     513.0504
   1424.91333     748.6369     513.0469   1424.91333     748.6369     513.0469
   1424.89807     749.3038     513.1784   1424.89807     749.3038     513.1784
   1424.88281     747.6868     514.2988   1424.88281     747.6868     514.2988
   1424.86755     748.4825     513.0397   1424.86755     748.4825     513.0397
   1424.85229     748.0256     513.7790   1424.85229     748.0256     513.7790
   1424.83704     747.8488     512.9450   1424.83704     747.8488     512.9450
   1424.82178     749.1725     513.0114   1424.82178     749.1725     513.0114
   1424.80652     748.5449     512.0452   1424.80652     748.5449     512.0452
   1424.79126     748.8836     514.0836   1424.79126     748.8836     514.0836
   1424.77600     750.1885     513.4806   1424.77600     750.1885     513.4806
   1424.76074     748.2346     513.2488   1424.76074     748.2346     513.2488
   1424.74548     749.5644     513.1649   1424.74548     749.5644     513.1649
   1424.73022     748.0281     513.4456   1424.73022     748.0281     513.4456
   1424.71497     747.8881     513.2386   1424.71497     747.8881     513.2386
   1424.69971     748.3444     512.8087   1424.69971     748.3444     512.8087
   1424.68445     748.5028     513.6125   1424.68445     748.5028     513.6125
   1424.66919     748.6092     512.8503   1424.66919     748.6092     512.8503
   1424.65393     749.0032     512.9076   1424.65393     749.0032     512.9076
   1424.63867     748.2046     512.6946   1424.63867     748.2046     512.6946
   1424.62341     749.1155     513.1783   1424.62341     749.1155     513.1783
   1424.60815     747.1632     512.4210   1424.60815     747.1632     512.4210
   1424.59290     746.4327     512.9344   1424.59290     746.4327     512.9344
   1424.57764     747.2712     512.0029   1424.57764     747.2712     512.0029
   1424.56238     746.2321     512.0182   1424.56238     746.2321     512.0182
   1424.54712     746.2321     512.9195   1424.54712     746.2321     512.9195
   1424.53186     746.5196     512.2867   1424.53186     746.5196     512.2867
   1424.51660     746.6780     511.5688   1424.51660     746.6780     511.5688
   1424.50134     744.6077     511.8560   1424.50134     744.6077     511.8560
   1424.48608     744.6891     510.8029   1424.48608     744.6891     510.8029
   1424.47083     746.0430     511.7766   1424.47083     746.0430     511.7766
   1424.45557     744.1180     511.1190   1424.45557     744.1180     511.1190
   1424.44031     743.8158     510.9577   1424.44031     743.8158     510.9577
   1424.42505     743.6003     511.3829   1424.42505     743.6003     511.3829
   1424.40979     744.3580     511.6372   1424.40979     744.3580     511.6372
   1424.39453     742.1771     510.4169   1424.39453     742.1771     510.4169
   1424.37927     742.3501     509.5198   1424.37927     742.3501     509.5198
   1424.36401     742.4971     510.7362   1424.36401     742.4971     510.7362
   1424.34875     741.3662     510.3199   1424.34875     741.3662     510.3199
   1424.33350     740.1891     509.1375   1424.33350     740.1891     509.1375
   1424.31824     740.0396     509.5601   1424.31824     740.0396     509.5601
   1424.30298     740.4673     509.2125   1424.30298     740.4673     509.2125
   1424.28772     738.7679     508.9900   1424.28772     738.7679     508.9900
   1424.27246     738.1088     508.6516   1424.27246     738.1088     508.6516
   1424.25720     738.6564     507.9794   1424.25720     738.6564     507.9794
   1424.24194     736.7197     507.6179   1424.24194     736.7197     507.6179
   1424.22668     736.7679     508.0103   1424.22668     736.7679     508.0103
   1424.21143     736.1881     507.8801   1424.21143     736.1881     507.8801
   1424.19617     736.4828     508.0398   1424.19617     736.4828     508.0398
   1424.18091     735.6288     507.0203   1424.18091     735.6288     507.0203
   1424.16565     735.4506     507.4159   1424.16565     735.4506     507.4159
   1424.15039     735.0238     506.6208   1424.15039     735.0238     506.6208
   1424.13513     733.4662     507.3572   1424.13513     733.4662     507.3572
   1424.11987     733.3945     506.4680   1424.11987     733.3945     506.4680
   1424.10461     732.4999     506.3090   1424.10461     732.4999     506.3090
   1424.08936     732.8258     505.3513   1424.08936     732.8258     505.3513
   1424.07410     732.0068     505.4064   1424.07410     732.0068     505.4064
   1424.05884     731.6495     504.9436   1424.05884     731.6495     504.9436
   1424.04358     729.9200     504.2702   1424.04358     729.9200     504.2702
   1424.02832     730.0576     503.6728   1424.02832     730.0576     503.6728
   1424.01306     729.0865     504.7123   1424.01306     729.0865     504.7123
   1423.99780     727.9982     504.0294   1423.99780     727.9982     504.0294
   1423.98254     728.5482     503.8535   1423.98254     728.5482     503.8535
   1423.96729     728.7333     501.9420   1423.96729     728.7333     501.9420
   1423.95203     727.2631     502.3340   1423.95203     727.2631     502.3340
   1423.93677     726.2711     502.1003   1423.93677     726.2711     502.1003
   1423.92151     725.1573     502.4529   1423.92151     725.1573     502.4529
   1423.90625     725.5347     501.4871   1423.90625     725.5347     501.4871
   1423.89099     725.3601     501.0849   1423.89099     725.3601     501.0849
   1423.87573     724.6249     500.8227   1423.87573     724.6249     500.8227
   1423.86047     723.7264     500.7553   1423.86047     723.7264     500.7553
   1423.84521     722.1749     500.6385   1423.84521     722.1749     500.6385
   1423.82996     721.5816     499.4891   1423.82996     721.5816     499.4891
   1423.81470     720.7770     499.4966   1423.81470     720.7770     499.4966
   1423.79944     720.2466     498.3875   1423.79944     720.2466     498.3875
   1423.78418     720.2211     497.9178   1423.78418     720.2211     497.9178
   1423.76892     719.8608     498.4869   1423.76892     719.8608     498.4869
   1423.75366     718.9952     497.5045   1423.75366     718.9952     497.5045
   1423.73840     717.7891     496.8142   1423.73840     717.7891     496.8142
   1423.72314     717.7120     497.1371   1423.72314     717.7120     497.1371
   1423.70789     716.9941     496.0392   1423.70789     716.9941     496.0392
   1423.69263     718.1277     495.7383   1423.69263     718.1277     495.7383
   1423.67737     716.5137     496.2036   1423.67737     716.5137     496.2036
   1423.66211     715.3046     495.3662   1423.66211     715.3046     495.3662
   1423.64685     715.8962     494.9455   1423.64685     715.8962     494.9455
   1423.63159     715.2900     493.8597   1423.63159     715.2900     493.8597
   1423.61633     714.0322     493.6400   1423.61633     714.0322     493.6400
   1423.60107     714.4205     493.9474   1423.60107     714.4205     493.9474
   1423.58582     711.9019     492.7933   1423.58582     711.9019     492.7933
   1423.57056     713.2816     493.0487   1423.57056     713.2816     493.0487
   1423.55530     711.0154     491.7526   1423.55530     711.0154     491.7526
   1423.54004     711.6497     491.8875   1423.54004     711.6497     491.8875
   1423.52478     711.0863     491.7977   1423.52478     711.0863     491.7977
   1423.50952     709.1686     490.2593   1423.50952     709.1686     490.2593
   1423.49426     709.4576     490.4390   1423.49426     709.4576     490.4390
   1423.47900     709.4149     489.9479   1423.47900     709.4149     489.9479
   1423.46375     708.9973     489.3844   1423.46375     708.9973     489.3844
   1423.44849     708.2158     488.7220   1423.44849     708.2158     488.7220
   1423.43323     707.3647     489.2213   1423.43323     707.3647     489.2213
   1423.41797     706.9094     487.8573   1423.41797     706.9094     487.8573
   1423.40271     705.9007     487.7834   1423.40271     705.9007     487.7834
   1423.38745     706.3113     486.6333   1423.38745     706.3113     486.6333
   1423.37219     705.7994     486.9317   1423.37219     705.7994     486.9317
   1423.35693     705.8001     486.2854   1423.35693     705.8001     486.2854
   1423.34167     705.0963     485.2783   1423.34167     705.0963     485.2783
   1423.32642     704.8144     485.1316   1423.32642     704.8144     485.1316
   1423.31116     703.4603     485.3179   1423.31116     703.4603     485.3179
   1423.29590     704.3438     484.6239   1423.29590     704.3438     484.6239
   1423.28064     702.9239     483.8913   1423.28064     702.9239     483.8913
   1423.26538     703.0787     483.5403   1423.26538     703.0787     483.5403
   1423.25012     701.5042     482.8532   1423.25012     701.5042     482.8532
   1423.23486     700.9136     483.2300   1423.23486     700.9136     483.2300
   1423.21960     701.8908     481.6362   1423.21960     701.8908     481.6362
   1423.20435     699.9227     481.6305   1423.20435     699.9227     481.6305
   1423.18909     700.4553     481.5343   1423.18909     700.4553     481.5343
   1423.17383     699.4395     480.0509   1423.17383     699.4395     480.0509
   1423.15857     700.1005     480.0498   1423.15857     700.1005     480.0498
   1423.14331     698.8649     478.7352   1423.14331     698.8649     478.7352
   1423.12805     699.5634     478.7728   1423.12805     699.5634     478.7728
   1423.11279     700.0604     478.2612   1423.11279     700.0604     478.2612
   1423.09753     697.8883     477.4378   1423.09753     697.8883     477.4378
   1423.08228     698.3450     475.8261   1423.08228     698.3450     475.8261
   1423.06702     697.5977     476.5703   1423.06702     697.5977     476.5703
   1423.05176     697.1526     476.2852   1423.05176     697.1526     476.2852
   1423.03650     697.5459     475.4607   1423.03650     697.5459     475.4607
   1423.02124     695.6978     475.3258   1423.02124     695.6978     475.3258
   1423.00598     696.0128     474.8615   1423.00598     696.0128     474.8615
   1422.99072     695.6535     473.8623   1422.99072     695.6535     473.8623
   1422.97546     695.2266     473.1516   1422.97546     695.2266     473.1516
   1422.96021     695.1695     472.2403   1422.96021     695.1695     472.2403
   1422.94495     695.2756     472.0786   1422.94495     695.2756     472.0786
   1422.92969     694.4886     471.7388   1422.92969     694.4886     471.7388
   1422.91443     693.4831     472.0292   1422.91443     693.4831     472.0292
   1422.89917     694.4900     469.9612   1422.89917     694.4900     469.9612
   1422.88391     693.0492     469.9542   1422.88391     693.0492     469.9542
   1422.86865     692.7162     469.3452   1422.86865     692.7162     469.3452
   1422.85339     692.9661     468.5240   1422.85339     692.9661     468.5240
   1422.83813     692.0309     468.1348   1422.83813     692.0309     468.1348
   1422.82288     691.7581     467.2137   1422.82288     691.7581     467.2137
   1422.80762     692.9744     466.3001   1422.80762     692.9744     466.3001
   1422.79236     691.7896     466.7647   1422.79236     691.7896     466.7647
   1422.77710     691.7221     465.1128   1422.77710     691.7221     465.1128
   1422.76184     691.4908     464.7901   1422.76184     691.4908     464.7901
   1422.74658     690.8508     464.1400   1422.74658     690.8508     464.1400
   1422.73132     692.1293     463.3476   1422.73132     692.1293     463.3476
   1422.71606     690.4261     463.0733   1422.71606     690.4261     463.0733
   1422.70081     690.6225     462.8127   1422.70081     690.6225     462.8127
   1422.68555     689.6683     462.0514   1422.68555     689.6683     462.0514
   1422.67029     689.4278     460.9343   1422.67029     689.4278     460.9343
   1422.65503     689.2841     460.6550   1422.65503     689.2841     460.6550
   1422.63977     691.0627     460.1902   1422.63977     691.0627     460.1902
   1422.62451     689.5363     459.8059   1422.62451     689.5363     459.8059
   1422.60925     689.4467     457.9673   1422.60925     689.4467     457.9673
   1422.59399     690.0027     457.1534   1422.59399     690.0027     457.1534
   1422.57874     689.0292     457.2000   1422.57874     689.0292     457.2000
   1422.56348     688.2830     456.2232   1422.56348     688.2830     456.2232
   1422.54822     688.1536     455.8643   1422.54822     688.1536     455.8643
   1422.53296     688.8217     455.1716   1422.53296     688.8217     455.1716
   1422.51770     688.0560     455.3177   1422.51770     688.0560     455.3177
   1422.50244     688.8872     453.1113   1422.50244     688.8872     453.1113
   1422.48718     688.3702     452.9867   1422.48718     688.3702     452.9867
   1422.47192     687.8337     452.5114   1422.47192     687.8337     452.5114
   1422.45667     687.0346     452.2786   1422.45667     687.0346     452.2786
   1422.44141     687.5851     450.4626   1422.44141     687.5851     450.4626
   1422.42615     687.1049     449.5526   1422.42615     687.1049     449.5526
   1422.41089     687.7006     449.2685   1422.41089     687.7006     449.2685
   1422.39563     687.0714     448.6916   1422.39563     687.0714     448.6916
   1422.38037     687.5664     447.7497   1422.38037     687.5664     447.7497
   1422.36511     686.1586     446.7417   1422.36511     686.1586     446.7417
   1422.34985     687.5352     446.5431   1422.34985     687.5352     446.5431
   1422.33459     685.8901     445.1308   1422.33459     685.8901     445.1308
   1422.31934     687.2261     445.5041   1422.31934     687.2261     445.5041
   1422.30408     687.1108     444.5783   1422.30408     687.1108     444.5783
   1422.28882     686.7795     443.6890   1422.28882     686.7795     443.6890
   1422.27356     686.3410     442.6254   1422.27356     686.3410     442.6254
   1422.25830     685.3763     442.1649   1422.25830     685.3763     442.1649
   1422.24304     686.1959     442.5951   1422.24304     686.1959     442.5951
   1422.22778     686.0876     440.9742   1422.22778     686.0876     440.9742
   1422.21252     684.9957     439.8819   1422.21252     684.9957     439.8819
   1422.19727     686.5753     438.7412   1422.19727     686.5753     438.7412
   1422.18201     685.7833     438.5511   1422.18201     685.7833     438.5511
   1422.16675     685.8681     437.4428   1422.16675     685.8681     437.4428
   1422.15149     685.1537     436.8440   1422.15149     685.1537     436.8440
   1422.13623     685.3503     435.7451   1422.13623     685.3503     435.7451
   1422.12097     685.7037     435.0752   1422.12097     685.7037     435.0752
   1422.10571     687.0902     434.8265   1422.10571     687.0902     434.8265
   1422.09045     686.1146     433.3636   1422.09045     686.1146     433.3636
   1422.07520     684.6465     432.8170   1422.07520     684.6465     432.8170
   1422.05994     686.3476     432.2725   1422.05994     686.3476     432.2725
   1422.04468     684.8968     431.1801   1422.04468     684.8968     431.1801
   1422.02942     684.1758     430.3377   1422.02942     684.1758     430.3377
   1422.01416     684.6434     429.7000   1422.01416     684.6434     429.7000
   1421.99890     691.8985     429.8320   1421.99890     691.8985     429.8320
   1421.98364     684.3611     428.1290   1421.98364     684.3611     428.1290
   1421.96838     685.5213     427.3573   1421.96838     685.5213     427.3573
   1421.95312     683.9023     426.2270   1421.95312     683.9023     426.2270
   1421.93787     684.7119     425.7861   1421.93787     684.7119     425.7861
   1421.92261     685.4232     424.5768   1421.92261     685.4232     424.5768
   1421.90735     682.8843     424.3302   1421.90735     682.8843     424.3302
   1421.89209     684.7640     423.4769   1421.89209     684.7640     423.4769
   1421.87683     683.8574     422.0085   1421.87683     683.8574     422.0085
   1421.86157     684.7264     421.5522   1421.86157     684.7264     421.5522
   1421.84631     683.6204     420.8082   1421.84631     683.6204     420.8082
   1421.83105     682.9628     420.1730   1421.83105     682.9628     420.1730
   1421.81580     684.1642     418.5679   1421.81580     684.1642     418.5679
   1421.80054     683.2429     418.5865   1421.80054     683.2429     418.5865
   1421.78528     683.0795     417.5636   1421.78528     683.0795     417.5636
   1421.77002     683.0809     416.7961   1421.77002     683.0809     416.7961
   1421.75476     684.4071     415.8707   1421.75476     684.4071     415.8707
   1421.73950     683.8195     414.4025   1421.73950     683.8195     414.4025
   1421.72424     683.9219     413.9900   1421.72424     683.9219     413.9900
   1421.70898     682.7268     413.8744   1421.70898     682.7268     413.8744
   1421.69373     682.4852     412.5913   1421.69373     682.4852     412.5913
   1421.67847     683.3465     412.1175   1421.67847     683.3465     412.1175
   1421.66321     682.8334     411.2541   1421.66321     682.8334     411.2541
   1421.64795     682.4890     410.3130   1421.64795     682.4890     410.3130
   1421.63269     683.1017     410.0663   1421.63269     683.1017     410.0663
   1421.61743     682.4791     408.6278   1421.61743     682.4791     408.6278
   1421.60217     684.0085     407.7058   1421.60217     684.0085     407.7058
   1421.58691     682.9110     406.7834   1421.58691     682.9110     406.7834
   1421.57166     683.0424     406.2740   1421.57166     683.0424     406.2740
   1421.55640     682.2520     405.9517   1421.55640     682.2520     405.9517
   1421.54114     682.4520     405.3888   1421.54114     682.4520     405.3888
   1421.52588     682.2176     403.8575   1421.52588     682.2176     403.8575
   1421.51062     681.6883     402.8822   1421.51062     681.6883     402.8822
   1421.49536     682.5121     402.5097   1421.49536     682.5121     402.5097
   1421.48010     682.0922     401.4535   1421.48010     682.0922     401.4535
   1421.46484     681.4510     400.4572   1421.46484     681.4510     400.4572
   1421.44958     681.6063     399.6293   1421.44958     681.6063     399.6293
   1421.43433     682.4629     399.2572   1421.43433     682.4629     399.2572
   1421.41907     681.2178     398.1253   1421.41907     681.2178     398.1253
   1421.40381     681.5851     397.0477   1421.40381     681.5851     397.0477
   1421.38855     681.5649     396.8320   1421.38855     681.5649     396.8320
   1421.37329     681.1425     395.0873   1421.37329     681.1425     395.0873
   1421.35803     679.5092     395.3986   1421.35803     679.5092     395.3986
   1421.34277     680.9822     394.5187   1421.34277     680.9822     394.5187
   1421.32751     680.9312     393.0535   1421.32751     680.9312     393.0535
   1421.31226     681.3853     393.0502   1421.31226     681.3853     393.0502
   1421.29700     681.0103     392.0421   1421.29700     681.0103     392.0421
   1421.28174     680.9850     390.4796   1421.28174     680.9850     390.4796
   1421.26648     679.8915     390.7217   1421.26648     679.8915     390.7217
   1421.25122     679.5814     389.1824   1421.25122     679.5814     389.1824
   1421.23596     680.7467     388.3810   1421.23596     680.7467     388.3810
   1421.22070     679.4198     387.0157   1421.22070     679.4198     387.0157
   1421.20544     679.8223     386.5451   1421.20544     679.8223     386.5451
   1421.19019     678.7259     386.2533   1421.19019     678.7259     386.2533
   1421.17493     679.1727     385.8329   1421.17493     679.1727     385.8329
   1421.15967     679.9015     384.5004   1421.15967     679.9015     384.5004
   1421.14441     678.3944     383.6141   1421.14441     678.3944     383.6141
   1421.12915     679.0050     382.4845   1421.12915     679.0050     382.4845
   1421.11389     678.1244     382.8596   1421.11389     678.1244     382.8596
   1421.09863     679.1740     381.7999   1421.09863     679.1740     381.7999
   1421.08337     678.5679     380.5382   1421.08337     678.5679     380.5382
   1421.06812     678.1722     379.7561   1421.06812     678.1722     379.7561
   1421.05286     677.8853     379.4500   1421.05286     677.8853     379.4500
   1421.03760     678.1964     378.0814   1421.03760     678.1964     378.0814
   1421.02234     678.8755     378.1790   1421.02234     678.8755     378.1790
   1421.00708     677.9976     377.4268   1421.00708     677.9976     377.4268
   1420.99182     678.6402     376.3070   1420.99182     678.6402     376.3070
   1420.97656     677.5117     375.9707   1420.97656     677.5117     375.9707
   1420.96130     678.3198     375.0213   1420.96130     678.3198     375.0213
   1420.94604     677.2629     374.7591   1420.94604     677.2629     374.7591
   1420.93079     677.7578     373.6287   1420.93079     677.7578     373.6287
   1420.91553     678.0987     372.4603   1420.91553     678.0987     372.4603
   1420.90027     676.7932     372.2582   1420.90027     676.7932     372.2582
   1420.88501     677.8482     371.6564   1420.88501     677.8482     371.6564
   1420.86975     676.3929     371.0179   1420.86975     676.3929     371.0179
   1420.85449     677.7205     370.4185   1420.85449     677.7205     370.4185
   1420.83923     677.0157     369.1722   1420.83923     677.0157     369.1722
   1420.82397     677.9326     368.6544   1420.82397     677.9326     368.6544
   1420.80872     677.9886     368.5905   1420.80872     677.9886     368.5905
   1420.79346     678.6713     368.3145   1420.79346     678.6713     368.3145
   1420.77820     678.6285     367.4317   1420.77820     678.6285     367.4317
   1420.76294     677.6898     366.7033   1420.76294     677.6898     366.7033
   1420.74768     677.7071     365.9694   1420.74768     677.7071     365.9694
   1420.73242     678.7466     365.7040   1420.73242     678.7466     365.7040
   1420.71716     678.7636     364.6721   1420.71716     678.7636     364.6721
   1420.70190     678.2053     364.9914   1420.70190     678.2053     364.9914
   1420.68665     678.7759     363.8571   1420.68665     678.7759     363.8571
   1420.67139     678.9613     364.0005   1420.67139     678.9613     364.0005
   1420.65613     679.2990     363.3778   1420.65613     679.2990     363.3778
   1420.64087     678.8620     363.6038   1420.64087     678.8620     363.6038
   1420.62561     680.1284     362.4697   1420.62561     680.1284     362.4697
   1420.61035     682.0914     362.5601   1420.61035     682.0914     362.5601
   1420.59509     682.4355     362.6063   1420.59509     682.4355     362.6063
   1420.57983     684.4855     363.2486   1420.57983     684.4855     363.2486
   1420.56458     685.8399     363.0114   1420.56458     685.8399     363.0114
   1420.54932     688.1952     363.3598   1420.54932     688.1952     363.3598
   1420.53406     690.1024     364.3796   1420.53406     690.1024     364.3796
   1420.51880     691.2770     364.5041   1420.51880     691.2770     364.5041
   1420.50354     692.3985     364.4545   1420.50354     692.3985     364.4545
   1420.48828     693.0740     364.7601   1420.48828     693.0740     364.7601
   1420.47302     692.5976     363.9634   1420.47302     692.5976     363.9634
   1420.45776     695.2861     364.2404   1420.45776     695.2861     364.2404
   1420.44250     697.9138     365.8602   1420.44250     697.9138     365.8602
   1420.42725     701.4421     367.3024   1420.42725     701.4421     367.3024
   1420.41199     705.9460     368.5158   1420.41199     705.9460     368.5158
   1420.39673     714.1436     371.5350   1420.39673     714.1436     371.5350
   1420.38147     718.1267     373.5508   1420.38147     718.1267     373.5508
   1420.36621     726.4104     378.2096   1420.36621     726.4104     378.2096
   1420.35095     749.6434     387.8089   1420.35095     749.6434     387.8089
   1420.33569     802.6448     414.2908   1420.33569     802.6448     414.2908
   1420.32043     867.0325     445.1138   1420.32043     867.0325     445.1138
   1420.30518     919.4946     471.1029   1420.30518     919.4946     471.1029
   1420.28992     997.8643     509.5364   1420.28992     997.8643     509.5364
   1420.27466    1164.3655     590.4216   1420.27466    1164.3655     590.4216
   1420.25940    1544.0518     779.3141   1420.25940    1544.0518     779.3141
   1420.24414    1930.2175     973.1555   1420.24414    1930.2175     973.1555
   1420.22888    1987.1637    1003.6809   1420.22888    1987.1637    1003.6809
   1420.21362    1894.5979     954.1473   1420.21362    1894.5979     954.1473
   1420.19836    1908.7146     958.0367   1420.19836    1908.7146     958.0367
   1420.18311    1972.6967     990.6775   1420.18311    1972.6967     990.6775
   1420.16785    2156.3625    1078.4341   1420.16785    2156.3625    1078.4341
   1420.15259    2145.8606    1072.0109   1420.15259    2145.8606    1072.0109
   1420.13733    1895.3573     948.0489   1420.13733    1895.3573     948.0489
   1420.12207    1625.9449     816.1483   1420.12207    1625.9449     816.1483
   1420.10681    1356.7939     681.5773   1420.10681    1356.7939     681.5773
   1420.09155    1127.2328     569.0205   1420.09155    1127.2328     569.0205
   1420.07629     942.1594     475.4232   1420.07629     942.1594     475.4232
   1420.06104     813.1969     411.7335   1420.06104     813.1969     411.7335
   1420.04578     746.7885     377.3135   1420.04578     746.7885     377.3135
   1420.03052     712.5634     361.4110   1420.03052     712.5634     361.4110
   1420.01526     695.3458     352.3334   1420.01526     695.3458     352.3334
   1420.00000     688.3661     349.0026   1420.00000     688.3661     349.0026
   1419.98474     681.3868     345.6719   1419.98474     681.3868     345.6719
   1419.96948     677.3125     342.3060   1419.96948     677.3125     342.3060
   1419.95422     674.5004     340.4996   1419.95422     674.5004     340.4996
   1419.93896     673.5755     340.6653   1419.93896     673.5755     340.6653
   1419.92371     672.4725     339.6816   1419.92371     672.4725     339.6816
   1419.90845     672.0239     338.7167   1419.90845     672.0239     338.7167
   1419.89319     672.5876     338.2022   1419.89319     672.5876     338.2022
   1419.87793     671.5071     338.0114   1419.87793     671.5071     338.0114
   1419.86267     673.0469     337.2581   1419.86267     673.0469     337.2581
   1419.84741     672.1390     336.8122   1419.84741     672.1390     336.8122
   1419.83215     671.7758     336.7889   1419.83215     671.7758     336.7889
   1419.81689     671.8384     336.2881   1419.81689     671.8384     336.2881
   1419.80164     671.5804     336.3563   1419.80164     671.5804     336.3563
   1419.78638     671.3431     336.1813   1419.78638     671.3431     336.1813
   1419.77112     671.2013     335.8986   1419.77112     671.2013     335.8986
   1419.75586     671.4846     335.6416   1419.75586     671.4846     335.6416
   1419.74060     671.4484     335.4397   1419.74060     671.4484     335.4397
   1419.72534     671.3077     335.6200   1419.72534     671.3077     335.6200
   1419.71008     671.9816     335.1709   1419.71008     671.9816     335.1709
   1419.69482     670.4971     334.9661   1419.69482     670.4971     334.9661
   1419.67957     670.8497     334.3623   1419.67957     670.8497     334.3623
   1419.66431     671.5002     334.9044   1419.66431     671.5002     334.9044
   1419.64905     671.1852     334.0847   1419.64905     671.1852     334.0847
   1419.63379     671.1761     333.9589   1419.63379     671.1761     333.9589
   1419.61853     671.5339     334.4247   1419.61853     671.5339     334.4247
   1419.60327     672.4218     334.4472   1419.60327     672.4218     334.4472
   1419.58801     672.1633     334.2188   1419.58801     672.1633     334.2188
   1419.57275     673.3696     333.8288   1419.57275     673.3696     333.8288
   1419.55750     672.8102     334.5990   1419.55750     672.8102     334.5990
   1419.54224     672.7804     334.6036   1419.54224     672.7804     334.6036
   1419.52698     672.1843     333.8153   1419.52698     672.1843     333.8153
   1419.51172     673.5256     334.0722   1419.51172     673.5256     334.0722
   1419.49646     673.3756     333.8644   1419.49646     673.3756     333.8644
   1419.48120     673.5781     333.4537   1419.48120     673.5781     333.4537
   1419.46594     674.2803     333.7016   1419.46594     674.2803     333.7016
   1419.45068     674.9230     334.0654   1419.45068     674.9230     334.0654
   1419.43542     675.4819     333.8148   1419.43542     675.4819     333.8148
   1419.42017     674.6263     334.3084   1419.42017     674.6263     334.3084
   1419.40491     675.0809     334.5721   1419.40491     675.0809     334.5721
   1419.38965     675.2595     334.5797   1419.38965     675.2595     334.5797
   1419.37439     675.4242     334.2570   1419.37439     675.4242     334.2570
   1419.35913     677.4203     334.6088   1419.35913     677.4203     334.6088
   1419.34387     676.9313     334.5327   1419.34387     676.9313     334.5327
   1419.32861     675.8146     334.5311   1419.32861     675.8146     334.5311
   1419.31335     676.2687     334.1098   1419.31335     676.2687     334.1098
   1419.29810     677.7499     334.6804   1419.29810     677.7499     334.6804
   1419.28284     678.5814     335.1340   1419.28284     678.5814     335.1340
   1419.26758     678.4588     335.0879   1419.26758     678.4588     335.0879
   1419.25232     679.3214     335.2998   1419.25232     679.3214     335.2998
   1419.23706     679.2047     335.1899   1419.23706     679.2047     335.1899
   1419.22180     678.8213     336.0955   1419.22180     678.8213     336.0955
   1419.20654     678.4902     335.9688   1419.20654     678.4902     335.9688
   1419.19128     679.4996     336.2052   1419.19128     679.4996     336.2052
   1419.17603     680.3329     336.2931   1419.17603     680.3329     336.2931
   1419.16077     680.4005     335.9100   1419.16077     680.4005     335.9100
   1419.14551     680.4068     336.5990   1419.14551     680.4068     336.5990
   1419.13025     681.7903     337.1450   1419.13025     681.7903     337.1450
   1419.11499     681.5266     337.3525   1419.11499     681.5266     337.3525
   1419.09973     682.0860     337.5347   1419.09973     682.0860     337.5347
   1419.08447     683.5859     337.8405   1419.08447     683.5859     337.8405
   1419.06921     682.2342     337.8691   1419.06921     682.2342     337.8691
   1419.05396     682.3013     338.5990   1419.05396     682.3013     338.5990
   1419.03870     683.3948     338.0903   1419.03870     683.3948     338.0903
   1419.02344     684.2092     338.9680   1419.02344     684.2092     338.9680
   1419.00818     684.5405     338.9465   1419.00818     684.5405     338.9465
   1418.99292     684.9396     339.1055   1418.99292     684.9396     339.1055
   1418.97766     684.9044     340.1790   1418.97766     684.9044     340.1790
   1418.96240     685.2615     339.9308   1418.96240     685.2615     339.9308
   1418.94714     685.5300     340.9744   1418.94714     685.5300     340.9744
   1418.93188     687.3958     340.5231   1418.93188     687.3958     340.5231
   1418.91663     686.9063     341.0326   1418.91663     686.9063     341.0326
   1418.90137     687.6358     341.7491   1418.90137     687.6358     341.7491
   1418.88611     687.3935     342.1875   1418.88611     687.3935     342.1875
   1418.87085     687.9243     342.0964   1418.87085     687.9243     342.0964
   1418.85559     689.0026     342.8328   1418.85559     689.0026     342.8328
   1418.84033     689.4533     343.0060   1418.84033     689.4533     343.0060
   1418.82507     690.1956     343.9588   1418.82507     690.1956     343.9588
   1418.80981     691.2303     344.2129   1418.80981     691.2303     344.2129
   1418.79456     690.6752     343.7628   1418.79456     690.6752     343.7628
   1418.77930     690.9594     345.7908   1418.77930     690.9594     345.7908
   1418.76404     692.0563     345.6032   1418.76404     692.0563     345.6032
   1418.74878     693.7721     345.8948   1418.74878     693.7721     345.8948
   1418.73352     692.8994     346.5390   1418.73352     692.8994     346.5390
   1418.71826     693.3326     346.9787   1418.71826     693.3326     346.9787
   1418.70300     695.0590     347.3840   1418.70300     695.0590     347.3840
   1418.68774     694.1827     348.2255   1418.68774     694.1827     348.2255
   1418.67249     695.9872     348.8381   1418.67249     695.9872     348.8381
   1418.65723     696.3170     349.4133   1418.65723     696.3170     349.4133
   1418.64197     696.5262     349.5662   1418.64197     696.5262     349.5662
   1418.62671     697.0234     349.8144   1418.62671     697.0234     349.8144
   1418.61145     697.2510     351.0152   1418.61145     697.2510     351.0152
   1418.59619     697.5925     351.2329   1418.59619     697.5925     351.2329
   1418.58093     698.4784     351.5658   1418.58093     698.4784     351.5658
   1418.56567     698.9254     353.1282   1418.56567     698.9254     353.1282
   1418.55042     700.6083     353.3049   1418.55042     700.6083     353.3049
   1418.53516     699.7480     353.3936   1418.53516     699.7480     353.3936
   1418.51990     700.8254     354.4313   1418.51990     700.8254     354.4313
   1418.50464     702.4685     355.1733   1418.50464     702.4685     355.1733
   1418.48938     702.5917     355.6163   1418.48938     702.5917     355.6163
   1418.47412     702.8587     355.7941   1418.47412     702.8587     355.7941
   1418.45886     702.2242     356.7855   1418.45886     702.2242     356.7855
   1418.44360     703.5744     357.7415   1418.44360     703.5744     357.7415
   1418.42834     704.1800     357.5952   1418.42834     704.1800     357.5952
   1418.41309     705.7204     358.4115   1418.41309     705.7204     358.4115
   1418.39783     705.7000     359.0768   1418.39783     705.7000     359.0768
   1418.38257     706.6001     360.5588   1418.38257     706.6001     360.5588
   1418.36731     707.0198     361.3636   1418.36731     707.0198     361.3636
   1418.35205     707.8679     361.4431   1418.35205     707.8679     361.4431
   1418.33679     708.1122     362.5470   1418.33679     708.1122     362.5470
   1418.32153     708.8760     362.6999   1418.32153     708.8760     362.6999
   1418.30627     710.3018     363.2950   1418.30627     710.3018     363.2950
   1418.29102     709.4985     364.5436   1418.29102     709.4985     364.5436
   1418.27576     711.6152     365.1871   1418.27576     711.6152     365.1871
   1418.26050     711.9130     365.7604   1418.26050     711.9130     365.7604
   1418.24524     712.2087     366.4448   1418.24524     712.2087     366.4448
   1418.22998     712.9761     368.0110   1418.22998     712.9761     368.0110
   1418.21472     712.9401     368.7778   1418.21472     712.9401     368.7778
   1418.19946     715.1558     369.4051   1418.19946     715.1558     369.4051
   1418.18420     715.5686     370.3775   1418.18420     715.5686     370.3775
   1418.16895     715.7590     371.0316   1418.16895     715.7590     371.0316
   1418.15369     716.8685     371.9078   1418.15369     716.8685     371.9078
   1418.13843     716.3613     372.7781   1418.13843     716.3613     372.7781
   1418.12317     718.6815     373.7658   1418.12317     718.6815     373.7658
   1418.10791     718.8199     374.7018   1418.10791     718.8199     374.7018
   1418.09265     720.7951     375.7994   1418.09265     720.7951     375.7994
   1418.07739     719.2958     375.8697   1418.07739     719.2958     375.8697
   1418.06213     721.5823     377.0993   1418.06213     721.5823     377.0993
   1418.04688     722.2385     377.3689   1418.04688     722.2385     377.3689
   1418.03162     722.5960     379.0993   1418.03162     722.5960     379.0993
   1418.01636     723.6376     380.2786   1418.01636     723.6376     380.2786
   1418.00110     723.0881     380.6497   1418.00110     723.0881     380.6497
   1417.98584     725.1906     381.9286   1417.98584     725.1906     381.9286
   1417.97058     725.1464     382.5645   1417.97058     725.1464     382.5645
   1417.95532     726.0280     383.3430   1417.95532     726.0280     383.3430
   1417.94006     726.9197     384.6335   1417.94006     726.9197     384.6335
   1417.92480     726.8202     386.0530   1417.92480     726.8202     386.0530
   1417.90955     727.7275     386.2891   1417.90955     727.7275     386.2891
   1417.89429     728.9926     387.3931   1417.89429     728.9926     387.3931
   1417.87903     729.2665     388.6518   1417.87903     729.2665     388.6518
   1417.86377     730.8062     389.4407   1417.86377     730.8062     389.4407
   1417.84851     730.5775     390.6619   1417.84851     730.5775     390.6619
   1417.83325     732.6721     391.4286   1417.83325     732.6721     391.4286
   1417.81799     731.8497     392.8257   1417.81799     731.8497     392.8257
   1417.80273     733.6279     394.0736   1417.80273     733.6279     394.0736
   1417.78748     733.8234     394.2692   1417.78748     733.8234     394.2692
   1417.77222     735.2915     395.4536   1417.77222     735.2915     395.4536
   1417.75696     734.7490     396.2694   1417.75696     734.7490     396.2694
   1417.74170     735.4814     397.3826   1417.74170     735.4814     397.3826
   1417.72644     736.9838     398.3047   1417.72644     736.9838     398.3047
   1417.71118     738.2316     399.1158   1417.71118     738.2316     399.1158
   1417.69592     737.7529     400.6258   1417.69592     737.7529     400.6258
   1417.68066     738.3658     401.6298   1417.68066     738.3658     401.6298
   1417.66541     740.1854     402.7944   1417.66541     740.1854     402.7944
   1417.65015     741.3979     403.7624   1417.65015     741.3979     403.7624
   1417.63489     741.4665     403.9995   1417.63489     741.4665     403.9995
   1417.61963     742.6904     405.2239   1417.61963     742.6904     405.2239
   1417.60437     743.4453     406.8551   1417.60437     743.4453     406.8551
   1417.58911     744.4275     407.6616   1417.58911     744.4275     407.6616
   1417.57385     742.9299     409.0934   1417.57385     742.9299     409.0934
   1417.55859     744.5452     409.9118   1417.55859     744.5452     409.9118
   1417.54333     744.4830     410.9456   1417.54333     744.4830     410.9456
   1417.52808     746.5902     412.0502   1417.52808     746.5902     412.0502
   1417.51282     747.5198     413.4397   1417.51282     747.5198     413.4397
   1417.49756     748.1439     414.7262   1417.49756     748.1439     414.7262
   1417.48230     748.8386     415.5000   1417.48230     748.8386     415.5000
   1417.46704     749.7270     416.1040   1417.46704     749.7270     416.1040
   1417.45178     749.7687     417.3727   1417.45178     749.7687     417.3727
   1417.43652     750.5086     418.5063   1417.43652     750.5086     418.5063
   1417.42126     750.9574     419.7828   1417.42126     750.9574     419.7828
   1417.40601     752.6544     420.4666   1417.40601     752.6544     420.4666
   1417.39075     753.8365     421.7044   1417.39075     753.8365     421.7044
   1417.37549     753.7852     422.2440   1417.37549     753.7852     422.2440
   1417.36023     754.6420     423.6726   1417.36023     754.6420     423.6726
   1417.34497     754.3627     425.1650   1417.34497     754.3627     425.1650
   1417.32971     755.3875     425.7167   1417.32971     755.3875     425.7167
   1417.31445     756.6499     427.8238   1417.31445     756.6499     427.8238
   1417.29919     757.0106     428.1673   1417.29919     757.0106     428.1673
   1417.28394     757.8521     429.4880   1417.28394     757.8521     429.4880
   1417.26868     757.8024     430.1869   1417.26868     757.8024     430.1869
   1417.25342     760.0973     431.5161   1417.25342     760.0973     431.5161
   1417.23816     759.6906     432.6250   1417.23816     759.6906     432.6250
   1417.22290     760.5959     433.5904   1417.22290     760.5959     433.5904
   1417.20764     760.5750     434.5329   1417.20764     760.5750     434.5329
   1417.19238     762.0678     436.0102   1417.19238     762.0678     436.0102
   1417.17712     761.6937     436.8716   1417.17712     761.6937     436.8716
   1417.16187     763.3922     437.3192   1417.16187     763.3922     437.3192
   1417.14661     763.6441     439.2425   1417.14661     763.6441     439.2425
   1417.13135     763.3682     439.3309   1417.13135     763.3682     439.3309
   1417.11609     766.0112     441.2563   1417.11609     766.0112     441.2563
   1417.10083     765.7701     441.9171   1417.10083     765.7701     441.9171
   1417.08557     765.4711     442.1898   1417.08557     765.4711     442.1898
   1417.07031     766.0880     444.2509   1417.07031     766.0880     444.2509
   1417.05505     767.4289     445.0155   1417.05505     767.4289     445.0155
   1417.03979     768.2441     445.7267   1417.03979     768.2441     445.7267
   1417.02454     768.2386     446.9936   1417.02454     768.2386     446.9936
   1417.00928     769.4052     447.8609   1417.00928     769.4052     447.8609
   1416.99402     768.7319     448.2819   1416.99402     768.7319     448.2819
   1416.97876     769.0268     450.0706   1416.97876     769.0268     450.0706
   1416.96350     770.3312     450.1108   1416.96350     770.3312     450.1108
   1416.94824     770.5594     451.2070   1416.94824     770.5594     451.2070
   1416.93298     772.1812     452.1789   1416.93298     772.1812     452.1789
   1416.91772     772.1353     452.7488   1416.91772     772.1353     452.7488
   1416.90247     772.3649     453.9427   1416.90247     772.3649     453.9427
   1416.88721     772.4099     455.0020   1416.88721     772.4099     455.0020
   1416.87195     773.0906     455.7616   1416.87195     773.0906     455.7616
   1416.85669     774.1235     457.3655   1416.85669     774.1235     457.3655
   1416.84143     774.1337     457.3336   1416.84143     774.1337     457.3336
   1416.82617     775.4866     457.1887   1416.82617     775.4866     457.1887
   1416.81091     775.2358     458.7299   1416.81091     775.2358     458.7299
   1416.79565     774.6824     459.6206   1416.79565     774.6824     459.6206
   1416.78040     775.6941     460.0106   1416.78040     775.6941     460.0106
   1416.76514     776.5770     460.9996   1416.76514     776.5770     460.9996
   1416.74988     776.2311     460.3711   1416.74988     776.2311     460.3711
   1416.73462     776.5098     462.4788   1416.73462     776.5098     462.4788
   1416.71936     776.4895     462.3035   1416.71936     776.4895     462.3035
   1416.70410     776.5578     463.5078   1416.70410     776.5578     463.5078
   1416.68884     776.6116     463.8428   1416.68884     776.6116     463.8428
   1416.67358     778.2821     463.8457   1416.67358     778.2821     463.8457
   1416.65833     777.4105     464.4325   1416.65833     777.4105     464.4325
   1416.64307     777.8878     465.7090   1416.64307     777.8878     465.7090
   1416.62781     778.0746     465.2321   1416.62781     778.0746     465.2321
   1416.61255     778.5911     466.9842   1416.61255     778.5911     466.9842
   1416.59729     780.3738     466.7501   1416.59729     780.3738     466.7501
   1416.58203     779.0659     467.1942   1416.58203     779.0659     467.1942
   1416.56677     779.3491     467.1603   1416.56677     779.3491     467.1603
   1416.55151     779.7534     468.1519   1416.55151     779.7534     468.1519
   1416.53625     779.6235     467.6307   1416.53625     779.6235     467.6307
   1416.52100     780.3655     468.8078   1416.52100     780.3655     468.8078
   1416.50574     779.2333     468.7086   1416.50574     779.2333     468.7086
   1416.49048     779.9432     470.0083   1416.49048     779.9432     470.0083
   1416.47522     779.4993     468.8831   1416.47522     779.4993     468.8831
   1416.45996     779.3170     469.3979   1416.45996     779.3170     469.3979
   1416.44470     780.4398     469.5681   1416.44470     780.4398     469.5681
   1416.42944     778.7911     470.8130   1416.42944     778.7911     470.8130
   1416.41418     779.7771     469.5719   1416.41418     779.7771     469.5719
   1416.39893     778.9239     470.0126   1416.39893     778.9239     470.0126
   1416.38367     779.9142     469.8582   1416.38367     779.9142     469.8582
   1416.36841     779.3686     470.6595   1416.36841     779.3686     470.6595
   1416.35315     778.9335     470.3220   1416.35315     778.9335     470.3220
   1416.33789     777.7586     469.6589   1416.33789     777.7586     469.6589
   1416.32263     778.7137     470.1964   1416.32263     778.7137     470.1964
   1416.30737     777.6314     469.8292   1416.30737     777.6314     469.8292
   1416.29211     779.0779     470.5381   1416.29211     779.0779     470.5381
   1416.27686     778.1427     470.4057   1416.27686     778.1427     470.4057
   1416.26160     778.5289     470.2384   1416.26160     778.5289     470.2384
   1416.24634     778.3857     469.8712   1416.24634     778.3857     469.8712
   1416.23108     777.6959     469.8393   1416.23108     777.6959     469.8393
   1416.21582     778.9595     470.6530   1416.21582     778.9595     470.6530
   1416.20056     778.2233     469.9300   1416.20056     778.2233     469.9300
   1416.18530     777.6556     469.5937   1416.18530     777.6556     469.5937
   1416.17004     777.0469     469.8270   1416.17004     777.0469     469.8270
   1416.15479     776.7505     469.3170   1416.15479     776.7505     469.3170
   1416.13953     775.9708     468.6355   1416.13953     775.9708     468.6355
   1416.12427     775.0839     468.6431   1416.12427     775.0839     468.6431
   1416.10901     775.3539     469.2451   1416.10901     775.3539     469.2451
   1416.09375     775.4670     468.1791   1416.09375     775.4670     468.1791
   1416.07849     774.8245     468.8421   1416.07849     774.8245     468.8421
   1416.06323     774.1487     467.4555   1416.06323     774.1487     467.4555
   1416.04797     774.6009     467.4486   1416.04797     774.6009     467.4486
   1416.03271     775.1909     467.5002   1416.03271     775.1909     467.5002
   1416.01746     773.6912     466.9346   1416.01746     773.6912     466.9346
   1416.00220     772.2633     466.6513   1416.00220     772.2633     466.6513
   1415.98694     774.0204     465.9155   1415.98694     774.0204     465.9155
   1415.97168     773.0811     466.1777   1415.97168     773.0811     466.1777
   1415.95642     771.2864     465.0712   1415.95642     771.2864     465.0712
   1415.94116     770.7802     465.4047   1415.94116     770.7802     465.4047
   1415.92590     771.2091     464.6757   1415.92590     771.2091     464.6757
   1415.91064     769.9755     465.6007   1415.91064     769.9755     465.6007
   1415.89539     769.3015     464.2416   1415.89539     769.3015     464.2416
   1415.88013     768.7274     463.5092   1415.88013     768.7274     463.5092
   1415.86487     767.2282     463.7414   1415.86487     767.2282     463.7414
   1415.84961     769.0236     462.8763   1415.84961     769.0236     462.8763
   1415.83435     767.4258     462.7261   1415.83435     767.4258     462.7261
   1415.81909     767.4575     461.9731   1415.81909     767.4575     461.9731
   1415.80383     766.6419     461.4686   1415.80383     766.6419     461.4686
   1415.78857     766.0161     461.8916   1415.78857     766.0161     461.8916
   1415.77332     764.1941     461.1118   1415.77332     764.1941     461.1118
   1415.75806     764.7268     460.5553   1415.75806     764.7268     460.5553
   1415.74280     764.9272     459.6747   1415.74280     764.9272     459.6747
   1415.72754     762.6016     458.4976   1415.72754     762.6016     458.4976
   1415.71228     762.3908     459.2898   1415.71228     762.3908     459.2898
   1415.69702     761.4698     458.5007   1415.69702     761.4698     458.5007
   1415.68176     760.6039     457.9512   1415.68176     760.6039     457.9512
   1415.66650     760.1752     457.4079   1415.66650     760.1752     457.4079
   1415.65125     760.0588     456.0930   1415.65125     760.0588     456.0930
   1415.63599     759.4760     456.8462   1415.63599     759.4760     456.8462
   1415.62073     758.7657     456.2072   1415.62073     758.7657     456.2072
   1415.60547     757.5699     455.2837   1415.60547     757.5699     455.2837
   1415.59021     757.6082     455.0452   1415.59021     757.6082     455.0452
   1415.57495     756.1445     454.5952   1415.57495     756.1445     454.5952
   1415.55969     755.5717     453.8875   1415.55969     755.5717     453.8875
   1415.54443     754.8217     453.5783   1415.54443     754.8217     453.5783
   1415.52917     752.0267     452.9487   1415.52917     752.0267     452.9487
   1415.51392     752.3516     452.1962   1415.51392     752.3516     452.1962
   1415.49866     753.1030     451.9318   1415.49866     753.1030     451.9318
   1415.48340     751.6166     451.7245   1415.48340     751.6166     451.7245
   1415.46814     751.4083     450.6098   1415.46814     751.4083     450.6098
   1415.45288     750.0693     450.5423   1415.45288     750.0693     450.5423
   1415.43762     747.4380     449.4516   1415.43762     747.4380     449.4516
   1415.42236     748.1945     449.1711   1415.42236     748.1945     449.1711
   1415.40710     746.1113     448.5591   1415.40710     746.1113     448.5591
   1415.39185     745.3146     447.9520   1415.39185     745.3146     447.9520
   1415.37659     744.1097     447.2896   1415.37659     744.1097     447.2896
   1415.36133     744.8314     446.4900   1415.36133     744.8314     446.4900
   1415.34607     742.9030     446.5688   1415.34607     742.9030     446.5688
   1415.33081     742.3898     444.7342   1415.33081     742.3898     444.7342
   1415.31555     740.7296     445.1046   1415.31555     740.7296     445.1046
   1415.30029     739.7136     443.2652   1415.30029     739.7136     443.2652
   1415.28503     739.2080     443.6579   1415.28503     739.2080     443.6579
   1415.26978     738.4586     442.3704   1415.26978     738.4586     442.3704
   1415.25452     735.9819     441.9436   1415.25452     735.9819     441.9436
   1415.23926     735.4021     441.7251   1415.23926     735.4021     441.7251
   1415.22400     733.8867     440.6007   1415.22400     733.8867     440.6007
   1415.20874     732.9996     440.0513   1415.20874     732.9996     440.0513
   1415.19348     731.2784     438.7544   1415.19348     731.2784     438.7544
   1415.17822     730.1593     438.3955   1415.17822     730.1593     438.3955
   1415.16296     729.1462     437.0826   1415.16296     729.1462     437.0826
   1415.14771     728.4293     436.5304   1415.14771     728.4293     436.5304
   1415.13245     726.6963     436.6115   1415.13245     726.6963     436.6115
   1415.11719     725.9571     435.9998   1415.11719     725.9571     435.9998
   1415.10193     724.9252     434.4307   1415.10193     724.9252     434.4307
   1415.08667     723.9161     433.6459   1415.08667     723.9161     433.6459
   1415.07141     722.1849     432.3905   1415.07141     722.1849     432.3905
   1415.05615     719.6180     432.6785   1415.05615     719.6180     432.6785
   1415.04089     719.1826     430.9839   1415.04089     719.1826     430.9839
   1415.02563     718.4346     429.9526   1415.02563     718.4346     429.9526
   1415.01038     717.0009     429.4927   1415.01038     717.0009     429.4927
   1414.99512     715.4116     428.7619   1414.99512     715.4116     428.7619
   1414.97986     712.7625     428.1271   1414.97986     712.7625     428.1271
   1414.96460     711.7652     427.1502   1414.96460     711.7652     427.1502
   1414.94934     711.7173     426.1150   1414.94934     711.7173     426.1150
   1414.93408     708.8414     424.8985   1414.93408     708.8414     424.8985
   1414.91882     706.1386     424.3341   1414.91882     706.1386     424.3341
   1414.90356     705.1790     423.3441   1414.90356     705.1790     423.3441
   1414.88831     704.1342     422.1935   1414.88831     704.1342     422.1935
   1414.87305     702.0078     421.2583   1414.87305     702.0078     421.2583
   1414.85779     701.7008     420.3442   1414.85779     701.7008     420.3442
   1414.84253     699.2359     419.5141   1414.84253     699.2359     419.5141
   1414.82727     697.0945     419.0169   1414.82727     697.0945     419.0169
   1414.81201     696.7358     418.0504   1414.81201     696.7358     418.0504
   1414.79675     694.4202     416.5641   1414.79675     694.4202     416.5641
   1414.78149     692.9281     415.3007   1414.78149     692.9281     415.3007
   1414.76624     691.1121     414.5001   1414.76624     691.1121     414.5001
   1414.75098     689.6929     413.4913   1414.75098     689.6929     413.4913
   1414.73572     687.1667     413.1200   1414.73572     687.1667     413.1200
   1414.72046     685.4732     411.9088   1414.72046     685.4732     411.9088
   1414.70520     684.2776     410.3299   1414.70520     684.2776     410.3299
   1414.68994     682.1060     409.1294   1414.68994     682.1060     409.1294
   1414.67468     680.6727     408.0543   1414.67468     680.6727     408.0543
   1414.65942     677.8004     407.0567   1414.65942     677.8004     407.0567
   1414.64417     677.1443     406.2305   1414.64417     677.1443     406.2305
   1414.62891     674.0574     405.0235   1414.62891     674.0574     405.0235
   1414.61365     672.8190     403.3516   1414.61365     672.8190     403.3516
   1414.59839     671.0430     402.6450   1414.59839     671.0430     402.6450
   1414.58313     668.0279     401.3527   1414.58313     668.0279     401.3527
   1414.56787     666.3231     400.0289   1414.56787     666.3231     400.0289
   1414.55261     664.1076     398.7737   1414.55261     664.1076     398.7737
   1414.53735     662.2278     397.7455   1414.53735     662.2278     397.7455
   1414.52209     660.9639     396.8177   1414.52209     660.9639     396.8177
   1414.50684     658.5199     395.2626   1414.50684     658.5199     395.2626
   1414.49158     656.1661     393.9607   1414.49158     656.1661     393.9607
   1414.47632     653.7285     392.7819   1414.47632     653.7285     392.7819
   1414.46106     652.0506     390.5407   1414.46106     652.0506     390.5407
   1414.44580     651.0883     390.2425   1414.44580     651.0883     390.2425
   1414.43054     646.5057     388.9517   1414.43054     646.5057     388.9517
   1414.41528     645.7857     387.8430   1414.41528     645.7857     387.8430
   1414.40002     642.2388     386.7781   1414.40002     642.2388     386.7781
   1414.38477     641.0421     384.6635   1414.38477     641.0421     384.6635
   1414.36951     638.0151     384.0913   1414.36951     638.0151     384.0913
   1414.35425     635.7099     382.5375   1414.35425     635.7099     382.5375
   1414.33899     633.5898     381.3449   1414.33899     633.5898     381.3449
   1414.32373     631.5961     379.9474   1414.32373     631.5961     379.9474
   1414.30847     629.1544     378.5099   1414.30847     629.1544     378.5099
   1414.29321     626.1331     377.6964   1414.29321     626.1331     377.6964
   1414.27795     623.5439     375.7136   1414.27795     623.5439     375.7136
   1414.26270     621.3598     374.0331   1414.26270     621.3598     374.0331
   1414.24744     619.8196     372.9750   1414.24744     619.8196     372.9750
   1414.23218     617.3245     372.1221   1414.23218     617.3245     372.1221
   1414.21692     614.2787     370.0432   1414.21692     614.2787     370.0432
   1414.20166     611.0902     368.9472   1414.20166     611.0902     368.9472
   1414.18640     609.1093     368.0608   1414.18640     609.1093     368.0608
   1414.17114     606.1469     365.2568   1414.17114     606.1469     365.2568
   1414.15588     603.0162     364.7697   1414.15588     603.0162     364.7697
   1414.14062     601.5739     363.0793   1414.14062     601.5739     363.0793
   1414.12537     598.8864     361.0512   1414.12537     598.8864     361.0512
   1414.11011     594.9981     359.9403   1414.11011     594.9981     359.9403
   1414.09485     592.8334     358.0496   1414.09485     592.8334     358.0496
   1414.07959     590.9400     357.2627   1414.07959     590.9400     357.2627
   1414.06433     587.9528     356.1685   1414.06433     587.9528     356.1685
   1414.04907     585.7791     354.2769   1414.04907     585.7791     354.2769
   1414.03381     582.5259     352.6840   1414.03381     582.5259     352.6840
   1414.01855     580.1153     351.3179   1414.01855     580.1153     351.3179
   1414.00330     576.7744     349.7404   1414.00330     576.7744     349.7404
   1413.98804     574.5750     348.8893   1413.98804     574.5750     348.8893
   1413.97278     571.4069     346.5623   1413.97278     571.4069     346.5623
   1413.95752     569.5019     344.8840   1413.95752     569.5019     344.8840
   1413.94226     566.5729     343.9413   1413.94226     566.5729     343.9413
   1413.92700     562.7589     342.2741   1413.92700     562.7589     342.2741
   1413.91174     561.6202     340.5496   1413.91174     561.6202     340.5496
   1413.89648     558.6543     339.5631   1413.89648     558.6543     339.5631
   1413.88123     555.4235     337.3065   1413.88123     555.4235     337.3065
   1413.86597     552.3879     335.8165   1413.86597     552.3879     335.8165
   1413.85071     549.9417     334.4397   1413.85071     549.9417     334.4397
   1413.83545     546.3911     332.7180   1413.83545     546.3911     332.7180
   1413.82019     544.2429     331.8371   1413.82019     544.2429     331.8371
   1413.80493     540.9402     329.7776   1413.80493     540.9402     329.7776
   1413.78967     539.3121     328.6890   1413.78967     539.3121     328.6890
   1413.77441     536.1522     327.2932   1413.77441     536.1522     327.2932
   1413.75916     533.9882     325.7703   1413.75916     533.9882     325.7703
   1413.74390     529.2301     324.3822   1413.74390     529.2301     324.3822
   1413.72864     527.2778     322.7656   1413.72864     527.2778     322.7656
   1413.71338     525.0291     320.6333   1413.71338     525.0291     320.6333
   1413.69812     521.4597     319.3784   1413.69812     521.4597     319.3784
   1413.68286     518.5334     317.7537   1413.68286     518.5334     317.7537
   1413.66760     515.0276     316.1939   1413.66760     515.0276     316.1939
   1413.65234     512.9403     314.8114   1413.65234     512.9403     314.8114
   1413.63708     510.4658     313.7192   1413.63708     510.4658     313.7192
   1413.62183     507.1642     311.5089   1413.62183     507.1642     311.5089
   1413.60657     504.7957     310.1609   1413.60657     504.7957     310.1609
   1413.59131     501.2057     308.5853   1413.59131     501.2057     308.5853
   1413.57605     498.7055     307.7017   1413.57605     498.7055     307.7017
   1413.56079     496.2556     305.6824   1413.56079     496.2556     305.6824
   1413.54553     493.2729     304.3864   1413.54553     493.2729     304.3864
   1413.53027     490.1464     302.1952   1413.53027     490.1464     302.1952
   1413.51501     487.7026     301.7904   1413.51501     487.7026     301.7904
   1413.49976     484.6664     299.6320   1413.49976     484.6664     299.6320
   1413.48450     482.5341     298.0821   1413.48450     482.5341     298.0821
   1413.46924     479.6149     296.9053   1413.46924     479.6149     296.9053
   1413.45398     476.9527     295.8138   1413.45398     476.9527     295.8138
   1413.43872     473.9792     294.3384   1413.43872     473.9792     294.3384
   1413.42346     471.1909     292.9333   1413.42346     471.1909     292.9333
   1413.40820     468.1219     291.6972   1413.40820     468.1219     291.6972
   1413.39294     465.8218     289.5732   1413.39294     465.8218     289.5732
   1413.37769     463.6300     288.2575   1413.37769     463.6300     288.2575
   1413.36243     460.3773     287.4153   1413.36243     460.3773     287.4153
   1413.34717     457.6341     286.0341   1413.34717     457.6341     286.0341
   1413.33191     455.0301     284.2491   1413.33191     455.0301     284.2491
   1413.31665     452.4376     282.9346   1413.31665     452.4376     282.9346
   1413.30139     449.7985     282.0797   1413.30139     449.7985     282.0797
   1413.28613     447.1604     280.3175   1413.28613     447.1604     280.3175
   1413.27087     444.4299     278.9994   1413.27087     444.4299     278.9994
   1413.25562     442.4344     277.5333   1413.25562     442.4344     277.5333
   1413.24036     439.9055     277.0057   1413.24036     439.9055     277.0057
   1413.22510     437.3606     275.3220   1413.22510     437.3606     275.3220
   1413.20984     434.5643     274.2227   1413.20984     434.5643     274.2227
   1413.19458     432.0351     272.6707   1413.19458     432.0351     272.6707
   1413.17932     429.9406     271.6226   1413.17932     429.9406     271.6226
   1413.16406     427.5990     270.6565   1413.16406     427.5990     270.6565
   1413.14880     425.1066     269.3803   1413.14880     425.1066     269.3803
   1413.13354     422.8251     268.1464   1413.13354     422.8251     268.1464
   1413.11829     420.3784     267.1710   1413.11829     420.3784     267.1710
   1413.10303     418.4633     266.1428   1413.10303     418.4633     266.1428
   1413.08777     416.1411     265.0544   1413.08777     416.1411     265.0544
   1413.07251     414.4453     263.6228   1413.07251     414.4453     263.6228
   1413.05725     411.1815     262.4234   1413.05725     411.1815     262.4234
   1413.04199     408.7168     261.8361   1413.04199     408.7168     261.8361
   1413.02673     407.8596     261.2518   1413.02673     407.8596     261.2518
   1413.01147     405.7145     260.1187   1413.01147     405.7145     260.1187
   1412.99622     403.6464     259.3759   1412.99622     403.6464     259.3759
   1412.98096     401.0877     258.0815   1412.98096     401.0877     258.0815
   1412.96570     398.8711     256.9771   1412.96570     398.8711     256.9771
   1412.95044     397.0789     255.8972   1412.95044     397.0789     255.8972
   1412.93518     395.8590     255.4216   1412.93518     395.8590     255.4216
   1412.91992     393.1893     254.8294   1412.91992     393.1893     254.8294
   1412.90466     391.8127     253.7782   1412.90466     391.8127     253.7782
   1412.88940     389.5787     252.7653   1412.88940     389.5787     252.7653
   1412.87415     388.4344     252.4680   1412.87415     388.4344     252.4680
   1412.85889     386.1480     251.5896   1412.85889     386.1480     251.5896
   1412.84363     384.5402     251.4177   1412.84363     384.5402     251.4177
   1412.82837     383.1105     250.2671   1412.82837     383.1105     250.2671
   1412.81311     382.0632     250.1506   1412.81311     382.0632     250.1506
   1412.79785     380.6892     249.2130   1412.79785     380.6892     249.2130
   1412.78259     378.5491     248.5363   1412.78259     378.5491     248.5363
   1412.76733     377.1744     247.8757   1412.76733     377.1744     247.8757
   1412.75208     375.0363     247.5733   1412.75208     375.0363     247.5733
   1412.73682     374.4301     247.0588   1412.73682     374.4301     247.0588
   1412.72156     373.5122     247.0648   1412.72156     373.5122     247.0648
   1412.70630     371.9273     246.0027   1412.70630     371.9273     246.0027
   1412.69104     370.5853     245.5932   1412.69104     370.5853     245.5932
   1412.67578     369.2445     245.7234   1412.67578     369.2445     245.7234
   1412.66052     368.3307     245.4383   1412.66052     368.3307     245.4383
   1412.64526     367.1992     245.1830   1412.64526     367.1992     245.1830
   1412.63000     365.8716     245.4437   1412.63000     365.8716     245.4437
   1412.61475     365.3308     244.7296   1412.61475     365.3308     244.7296
   1412.59949     364.1852     244.4482   1412.59949     364.1852     244.4482
   1412.58423     363.4933     244.8540   1412.58423     363.4933     244.8540
   1412.56897     362.6402     244.9082   1412.56897     362.6402     244.9082
   1412.55371     361.6826     243.9877   1412.55371     361.6826     243.9877
   1412.53845     361.0869     244.2281   1412.53845     361.0869     244.2281
   1412.52319     360.7143     244.0033   1412.52319     360.7143     244.0033
   1412.50793     359.8599     244.2916   1412.50793     359.8599     244.2916
   1412.49268     359.7154     244.3762   1412.49268     359.7154     244.3762
   1412.47742     358.7897     244.8195   1412.47742     358.7897     244.8195
   1412.46216     358.2943     245.0145   1412.46216     358.2943     245.0145
   1412.44690     358.0326     245.2006   1412.44690     358.0326     245.2006
   1412.43164     357.1825     245.0803   1412.43164     357.1825     245.0803
   1412.41638     357.0694     245.6085   1412.41638     357.0694     245.6085
   1412.40112     357.3427     246.1135   1412.40112     357.3427     246.1135
   1412.38586     356.6775     246.4781   1412.38586     356.6775     246.4781
   1412.37061     356.7073     246.5969   1412.37061     356.7073     246.5969
   1412.35535     357.2265     247.1308   1412.35535     357.2265     247.1308
   1412.34009     356.5291     247.7938   1412.34009     356.5291     247.7938
   1412.32483     356.5220     248.1518   1412.32483     356.5220     248.1518
   1412.30957     356.5955     249.3296   1412.30957     356.5955     249.3296
   1412.29431     357.2895     249.9234   1412.29431     357.2895     249.9234
   1412.27905     357.4541     250.3339   1412.27905     357.4541     250.3339
   1412.26379     357.1475     250.3624   1412.26379     357.1475     250.3624
   1412.24854     357.4686     251.2014   1412.24854     357.4686     251.2014
   1412.23328     359.2909     252.3236   1412.23328     359.2909     252.3236
   1412.21802     358.9406     253.2779   1412.21802     358.9406     253.2779
   1412.20276     359.8671     254.3296   1412.20276     359.8671     254.3296