#     FILENAME=!Skynet_57528_lach-hhg-169_20549_20992.cyb.fits
#     BASENAME=Skynet_57528_lach-hhg-169_20549_20992
#     SRC_NAME=lach-hhg-169
#     OBSERVER=hhgmadison16_9500
#     DATE_OBS=2016-05-20T18:17:52.750
#        OBSID=20549
#      SCANNUM=20992
#          MJD=57528.7635
#          UTC=65961
#     SCANTYPE=track
#     DATAMODE=HIRES
#     TUNEFREQ=1420.0000
# Actual_FREQ1=1420.0000
# Actual_FREQ2=1420.0000
#    LO1Tuning=6870.000
#     RFFILTER=1355_1435
#        OBSBW=-15.6250
#        NCHAN=1024 
#        FOCUS=37.0709
#           RA=05:16:32.27
#          DEC=38:07:55.31
#      RA(hrs)=5.275600
#     DEC(deg)=38.132000
#    AZIM(deg)=91.593
#    ELEV(deg)=85.253
#     IFattens=11.00, 9.00
#      WARNING=None
#    TCAL_XL1=7.9635
#    TCAL_YR1=9.1340
#    TCAL_XL2=7.9635
#    TCAL_YR2=9.1340
#     TRX_XL1=11.7060
#     TRX_YR1=11.7060
#     TRX_XL2=11.7060
#     TRX_YR2=11.7060
#        TAVE=1.0000
#Freq1(MHz)          XL1          YR1  Freq2(MHz)          XL2          YR2 

   1427.81250     376.4789     274.1906   1427.81250     376.4789     274.1906
   1427.79724     377.2384     275.7567   1427.79724     377.2384     275.7567
   1427.78198     377.3532     277.3317   1427.78198     377.3532     277.3317
   1427.76672     378.4281     277.7883   1427.76672     378.4281     277.7883
   1427.75146     378.6582     279.6284   1427.75146     378.6582     279.6284
   1427.73621     380.5116     280.8830   1427.73621     380.5116     280.8830
   1427.72095     380.6866     282.5747   1427.72095     380.6866     282.5747
   1427.70569     381.8798     284.0991   1427.70569     381.8798     284.0991
   1427.69043     382.5925     285.8156   1427.69043     382.5925     285.8156
   1427.67517     383.8757     287.8725   1427.67517     383.8757     287.8725
   1427.65991     385.0883     288.4164   1427.65991     385.0883     288.4164
   1427.64465     386.3607     290.7298   1427.64465     386.3607     290.7298
   1427.62939     387.2037     292.4928   1427.62939     387.2037     292.4928
   1427.61414     388.3957     294.4948   1427.61414     388.3957     294.4948
   1427.59888     390.2528     296.2169   1427.59888     390.2528     296.2169
   1427.58362     391.8397     297.5387   1427.58362     391.8397     297.5387
   1427.56836     392.9839     299.8273   1427.56836     392.9839     299.8273
   1427.55310     394.2585     301.6967   1427.55310     394.2585     301.6967
   1427.53784     395.9983     303.5136   1427.53784     395.9983     303.5136
   1427.52258     397.3069     305.5952   1427.52258     397.3069     305.5952
   1427.50732     399.0919     307.0980   1427.50732     399.0919     307.0980
   1427.49207     400.9632     309.6346   1427.49207     400.9632     309.6346
   1427.47681     402.1263     312.0378   1427.47681     402.1263     312.0378
   1427.46155     404.9878     313.8636   1427.46155     404.9878     313.8636
   1427.44629     406.2595     316.2691   1427.44629     406.2595     316.2691
   1427.43103     407.8561     318.0410   1427.43103     407.8561     318.0410
   1427.41577     409.8278     320.3510   1427.41577     409.8278     320.3510
   1427.40051     411.6770     322.9978   1427.40051     411.6770     322.9978
   1427.38525     414.4915     324.6399   1427.38525     414.4915     324.6399
   1427.37000     415.2907     326.6135   1427.37000     415.2907     326.6135
   1427.35474     418.0868     329.6165   1427.35474     418.0868     329.6165
   1427.33948     419.9822     331.8867   1427.33948     419.9822     331.8867
   1427.32422     422.1650     334.1719   1427.32422     422.1650     334.1719
   1427.30896     424.3076     336.0411   1427.30896     424.3076     336.0411
   1427.29370     425.9068     338.7254   1427.29370     425.9068     338.7254
   1427.27844     428.9871     340.9896   1427.27844     428.9871     340.9896
   1427.26318     431.4960     343.3967   1427.26318     431.4960     343.3967
   1427.24792     434.0822     345.7287   1427.24792     434.0822     345.7287
   1427.23267     436.5105     348.0384   1427.23267     436.5105     348.0384
   1427.21741     438.7372     350.8699   1427.21741     438.7372     350.8699
   1427.20215     440.4608     353.7401   1427.20215     440.4608     353.7401
   1427.18689     443.0435     356.0257   1427.18689     443.0435     356.0257
   1427.17163     445.5826     358.3428   1427.17163     445.5826     358.3428
   1427.15637     448.0853     360.9559   1427.15637     448.0853     360.9559
   1427.14111     450.2878     363.0579   1427.14111     450.2878     363.0579
   1427.12585     454.0778     365.7716   1427.12585     454.0778     365.7716
   1427.11060     456.9861     367.8974   1427.11060     456.9861     367.8974
   1427.09534     459.4845     370.6419   1427.09534     459.4845     370.6419
   1427.08008     462.8623     373.5229   1427.08008     462.8623     373.5229
   1427.06482     464.9290     375.5763   1427.06482     464.9290     375.5763
   1427.04956     468.2790     378.2969   1427.04956     468.2790     378.2969
   1427.03430     469.4143     380.4461   1427.03430     469.4143     380.4461
   1427.01904     473.5644     382.6744   1427.01904     473.5644     382.6744
   1427.00378     475.3535     385.4908   1427.00378     475.3535     385.4908
   1426.98853     477.9662     388.4164   1426.98853     477.9662     388.4164
   1426.97327     481.7651     390.6354   1426.97327     481.7651     390.6354
   1426.95801     484.3242     393.5977   1426.95801     484.3242     393.5977
   1426.94275     487.7000     395.7978   1426.94275     487.7000     395.7978
   1426.92749     490.2086     397.7893   1426.92749     490.2086     397.7893
   1426.91223     493.8879     400.6566   1426.91223     493.8879     400.6566
   1426.89697     496.0462     403.0991   1426.89697     496.0462     403.0991
   1426.88171     499.7676     405.3926   1426.88171     499.7676     405.3926
   1426.86646     502.4048     407.9947   1426.86646     502.4048     407.9947
   1426.85120     505.5621     410.7845   1426.85120     505.5621     410.7845
   1426.83594     508.7072     412.9126   1426.83594     508.7072     412.9126
   1426.82068     511.9421     415.6996   1426.82068     511.9421     415.6996
   1426.80542     515.1696     417.8584   1426.80542     515.1696     417.8584
   1426.79016     518.0126     420.1120   1426.79016     518.0126     420.1120
   1426.77490     520.8602     421.9855   1426.77490     520.8602     421.9855
   1426.75964     523.9354     424.8759   1426.75964     523.9354     424.8759
   1426.74438     527.4224     427.9280   1426.74438     527.4224     427.9280
   1426.72913     530.3507     429.7682   1426.72913     530.3507     429.7682
   1426.71387     533.1200     431.8341   1426.71387     533.1200     431.8341
   1426.69861     536.5964     434.0006   1426.69861     536.5964     434.0006
   1426.68335     540.7549     436.5262   1426.68335     540.7549     436.5262
   1426.66809     542.8753     438.7847   1426.66809     542.8753     438.7847
   1426.65283     546.0392     440.9321   1426.65283     546.0392     440.9321
   1426.63757     548.7570     442.8951   1426.63757     548.7570     442.8951
   1426.62231     554.6101     446.6081   1426.62231     554.6101     446.6081
   1426.60706     555.6609     447.4177   1426.60706     555.6609     447.4177
   1426.59180     558.3642     448.9906   1426.59180     558.3642     448.9906
   1426.57654     562.5816     451.6988   1426.57654     562.5816     451.6988
   1426.56128     564.8134     453.4865   1426.56128     564.8134     453.4865
   1426.54602     568.8406     456.1874   1426.54602     568.8406     456.1874
   1426.53076     570.5795     457.9056   1426.53076     570.5795     457.9056
   1426.51550     574.2878     460.4831   1426.51550     574.2878     460.4831
   1426.50024     577.5957     462.1837   1426.50024     577.5957     462.1837
   1426.48499     580.7089     464.4998   1426.48499     580.7089     464.4998
   1426.46973     582.9312     465.4188   1426.46973     582.9312     465.4188
   1426.45447     586.3463     467.6835   1426.45447     586.3463     467.6835
   1426.43921     589.0860     469.5668   1426.43921     589.0860     469.5668
   1426.42395     592.4166     471.1014   1426.42395     592.4166     471.1014
   1426.40869     595.8058     473.2763   1426.40869     595.8058     473.2763
   1426.39343     600.0286     475.7612   1426.39343     600.0286     475.7612
   1426.37817     600.5927     477.1230   1426.37817     600.5927     477.1230
   1426.36292     604.9620     479.0984   1426.36292     604.9620     479.0984
   1426.34766     606.5341     480.7945   1426.34766     606.5341     480.7945
   1426.33240     610.3292     482.3696   1426.33240     610.3292     482.3696
   1426.31714     614.3575     483.5095   1426.31714     614.3575     483.5095
   1426.30188     616.3132     485.1981   1426.30188     616.3132     485.1981
   1426.28662     619.9322     487.3809   1426.28662     619.9322     487.3809
   1426.27136     623.1689     488.2477   1426.27136     623.1689     488.2477
   1426.25610     624.7238     490.2468   1426.25610     624.7238     490.2468
   1426.24084     628.4179     491.5410   1426.24084     628.4179     491.5410
   1426.22559     631.8360     492.2472   1426.22559     631.8360     492.2472
   1426.21033     634.1902     493.9490   1426.21033     634.1902     493.9490
   1426.19507     636.4777     496.3743   1426.19507     636.4777     496.3743
   1426.17981     639.8433     498.0330   1426.17981     639.8433     498.0330
   1426.16455     642.9724     499.2026   1426.16455     642.9724     499.2026
   1426.14929     645.2148     500.5917   1426.14929     645.2148     500.5917
   1426.13403     648.4266     501.7592   1426.13403     648.4266     501.7592
   1426.11877     651.8688     502.2105   1426.11877     651.8688     502.2105
   1426.10352     653.7141     504.1021   1426.10352     653.7141     504.1021
   1426.08826     655.7813     505.6840   1426.08826     655.7813     505.6840
   1426.07300     659.3817     506.7025   1426.07300     659.3817     506.7025
   1426.05774     661.4338     508.0312   1426.05774     661.4338     508.0312
   1426.04248     663.7613     507.5564   1426.04248     663.7613     507.5564
   1426.02722     666.7503     509.4594   1426.02722     666.7503     509.4594
   1426.01196     669.1143     510.8744   1426.01196     669.1143     510.8744
   1425.99670     671.2819     512.2312   1425.99670     671.2819     512.2312
   1425.98145     673.1938     513.2004   1425.98145     673.1938     513.2004
   1425.96619     676.3223     514.0746   1425.96619     676.3223     514.0746
   1425.95093     679.6554     515.8423   1425.95093     679.6554     515.8423
   1425.93567     681.0421     515.4636   1425.93567     681.0421     515.4636
   1425.92041     683.6828     516.4186   1425.92041     683.6828     516.4186
   1425.90515     686.7273     518.2599   1425.90515     686.7273     518.2599
   1425.88989     687.5458     518.4961   1425.88989     687.5458     518.4961
   1425.87463     689.6413     519.8760   1425.87463     689.6413     519.8760
   1425.85938     692.6323     520.5968   1425.85938     692.6323     520.5968
   1425.84412     694.9462     521.2321   1425.84412     694.9462     521.2321
   1425.82886     697.1799     522.2853   1425.82886     697.1799     522.2853
   1425.81360     698.6924     522.7374   1425.81360     698.6924     522.7374
   1425.79834     701.9879     523.4476   1425.79834     701.9879     523.4476
   1425.78308     702.9929     524.1856   1425.78308     702.9929     524.1856
   1425.76782     705.6365     525.3220   1425.76782     705.6365     525.3220
   1425.75256     707.3583     524.8114   1425.75256     707.3583     524.8114
   1425.73730     709.8516     526.0966   1425.73730     709.8516     526.0966
   1425.72205     711.4448     526.8494   1425.72205     711.4448     526.8494
   1425.70679     713.0078     526.6991   1425.70679     713.0078     526.6991
   1425.69153     714.1769     527.5633   1425.69153     714.1769     527.5633
   1425.67627     717.3794     529.0722   1425.67627     717.3794     529.0722
   1425.66101     718.6002     528.6307   1425.66101     718.6002     528.6307
   1425.64575     720.0073     528.8286   1425.64575     720.0073     528.8286
   1425.63049     722.8097     529.9274   1425.63049     722.8097     529.9274
   1425.61523     724.1852     530.0431   1425.61523     724.1852     530.0431
   1425.59998     725.2932     529.6709   1425.59998     725.2932     529.6709
   1425.58472     726.7820     530.5630   1425.58472     726.7820     530.5630
   1425.56946     729.3942     531.1115   1425.56946     729.3942     531.1115
   1425.55420     730.6725     531.9786   1425.55420     730.6725     531.9786
   1425.53894     732.1289     532.2063   1425.53894     732.1289     532.2063
   1425.52368     734.1071     532.8038   1425.52368     734.1071     532.8038
   1425.50842     734.2586     533.3316   1425.50842     734.2586     533.3316
   1425.49316     736.9576     532.9901   1425.49316     736.9576     532.9901
   1425.47791     738.8419     532.8856   1425.47791     738.8419     532.8856
   1425.46265     739.3534     533.6357   1425.46265     739.3534     533.6357
   1425.44739     741.4805     533.4453   1425.44739     741.4805     533.4453
   1425.43213     742.9102     532.8148   1425.43213     742.9102     532.8148
   1425.41687     743.1388     533.8479   1425.41687     743.1388     533.8479
   1425.40161     744.8079     534.1545   1425.40161     744.8079     534.1545
   1425.38635     746.0536     535.2139   1425.38635     746.0536     535.2139
   1425.37109     746.4702     533.7887   1425.37109     746.4702     533.7887
   1425.35583     747.9186     533.9939   1425.35583     747.9186     533.9939
   1425.34058     749.7673     535.3871   1425.34058     749.7673     535.3871
   1425.32532     748.6059     534.3931   1425.32532     748.6059     534.3931
   1425.31006     750.9579     534.7253   1425.31006     750.9579     534.7253
   1425.29480     751.9531     535.0731   1425.29480     751.9531     535.0731
   1425.27954     754.0423     534.7660   1425.27954     754.0423     534.7660
   1425.26428     755.0559     534.9659   1425.26428     755.0559     534.9659
   1425.24902     755.0989     534.3440   1425.24902     755.0989     534.3440
   1425.23376     756.7408     535.1564   1425.23376     756.7408     535.1564
   1425.21851     757.0333     534.0238   1425.21851     757.0333     534.0238
   1425.20325     758.8568     535.3771   1425.20325     758.8568     535.3771
   1425.18799     758.4003     535.1577   1425.18799     758.4003     535.1577
   1425.17273     759.3690     535.1825   1425.17273     759.3690     535.1825
   1425.15747     761.2802     534.6873   1425.15747     761.2802     534.6873
   1425.14221     761.3036     533.4283   1425.14221     761.3036     533.4283
   1425.12695     762.2204     534.5812   1425.12695     762.2204     534.5812
   1425.11169     763.9864     535.0176   1425.11169     763.9864     535.0176
   1425.09644     763.2578     534.1619   1425.09644     763.2578     534.1619
   1425.08118     763.6454     533.4996   1425.08118     763.6454     533.4996
   1425.06592     764.7861     534.1928   1425.06592     764.7861     534.1928
   1425.05066     765.7097     533.0809   1425.05066     765.7097     533.0809
   1425.03540     766.9667     532.8724   1425.03540     766.9667     532.8724
   1425.02014     767.3326     532.1717   1425.02014     767.3326     532.1717
   1425.00488     767.4924     533.3093   1425.00488     767.4924     533.3093
   1424.98962     768.7031     532.1797   1424.98962     768.7031     532.1797
   1424.97437     768.2028     532.3476   1424.97437     768.2028     532.3476
   1424.95911     767.8923     532.3138   1424.95911     767.8923     532.3138
   1424.94385     767.9065     532.0752   1424.94385     767.9065     532.0752
   1424.92859     769.1954     532.1340   1424.92859     769.1954     532.1340
   1424.91333     768.4344     531.4434   1424.91333     768.4344     531.4434
   1424.89807     770.4159     531.0686   1424.89807     770.4159     531.0686
   1424.88281     770.1382     531.5010   1424.88281     770.1382     531.5010
   1424.86755     771.1255     530.3464   1424.86755     771.1255     530.3464
   1424.85229     770.2408     530.3940   1424.85229     770.2408     530.3940
   1424.83704     769.7228     529.8991   1424.83704     769.7228     529.8991
   1424.82178     772.0889     529.8434   1424.82178     772.0889     529.8434
   1424.80652     769.5917     529.5563   1424.80652     769.5917     529.5563
   1424.79126     771.6509     528.8006   1424.79126     771.6509     528.8006
   1424.77600     770.7325     529.0114   1424.77600     770.7325     529.0114
   1424.76074     771.4644     529.2023   1424.76074     771.4644     529.2023
   1424.74548     770.8212     528.2710   1424.74548     770.8212     528.2710
   1424.73022     772.0273     528.4208   1424.73022     772.0273     528.4208
   1424.71497     771.6054     526.8782   1424.71497     771.6054     526.8782
   1424.69971     772.6194     526.9106   1424.69971     772.6194     526.9106
   1424.68445     771.6616     526.6866   1424.68445     771.6616     526.6866
   1424.66919     772.5578     526.3798   1424.66919     772.5578     526.3798
   1424.65393     770.4702     525.1202   1424.65393     770.4702     525.1202
   1424.63867     771.4435     525.7548   1424.63867     771.4435     525.7548
   1424.62341     771.4551     525.2927   1424.62341     771.4551     525.2927
   1424.60815     771.5413     524.0327   1424.60815     771.5413     524.0327
   1424.59290     772.3760     523.8495   1424.59290     772.3760     523.8495
   1424.57764     770.7441     523.3251   1424.57764     770.7441     523.3251
   1424.56238     771.6527     523.5129   1424.56238     771.6527     523.5129
   1424.54712     771.4837     521.8627   1424.54712     771.4837     521.8627
   1424.53186     770.9442     523.2521   1424.53186     770.9442     523.2521
   1424.51660     771.1871     521.3040   1424.51660     771.1871     521.3040
   1424.50134     769.5390     521.0942   1424.50134     769.5390     521.0942
   1424.48608     771.4128     521.6647   1424.48608     771.4128     521.6647
   1424.47083     770.0372     521.0524   1424.47083     770.0372     521.0524
   1424.45557     770.5215     519.4891   1424.45557     770.5215     519.4891
   1424.44031     769.8201     519.4662   1424.44031     769.8201     519.4662
   1424.42505     770.0753     518.5012   1424.42505     770.0753     518.5012
   1424.40979     770.1398     518.5913   1424.40979     770.1398     518.5913
   1424.39453     770.7224     517.0723   1424.39453     770.7224     517.0723
   1424.37927     769.5154     517.8974   1424.37927     769.5154     517.8974
   1424.36401     769.6066     517.7883   1424.36401     769.6066     517.7883
   1424.34875     769.4001     516.0253   1424.34875     769.4001     516.0253
   1424.33350     768.6825     516.0393   1424.33350     768.6825     516.0393
   1424.31824     768.2000     515.4288   1424.31824     768.2000     515.4288
   1424.30298     767.7672     515.0775   1424.30298     767.7672     515.0775
   1424.28772     766.8791     514.7353   1424.28772     766.8791     514.7353
   1424.27246     767.8351     514.2032   1424.27246     767.8351     514.2032
   1424.25720     767.3530     513.2864   1424.25720     767.3530     513.2864
   1424.24194     767.4630     513.0581   1424.24194     767.4630     513.0581
   1424.22668     767.2792     512.8953   1424.22668     767.2792     512.8953
   1424.21143     765.9562     511.9460   1424.21143     765.9562     511.9460
   1424.19617     765.0497     511.0978   1424.19617     765.0497     511.0978
   1424.18091     766.2319     510.2580   1424.18091     766.2319     510.2580
   1424.16565     764.6261     509.2030   1424.16565     764.6261     509.2030
   1424.15039     765.4546     509.1851   1424.15039     765.4546     509.1851
   1424.13513     763.2204     508.2567   1424.13513     763.2204     508.2567
   1424.11987     763.2598     509.2009   1424.11987     763.2598     509.2009
   1424.10461     763.1564     508.0476   1424.10461     763.1564     508.0476
   1424.08936     763.0979     507.3518   1424.08936     763.0979     507.3518
   1424.07410     761.8344     506.6484   1424.07410     761.8344     506.6484
   1424.05884     761.3217     506.7899   1424.05884     761.3217     506.7899
   1424.04358     761.7489     505.7301   1424.04358     761.7489     505.7301
   1424.02832     760.4011     504.3720   1424.02832     760.4011     504.3720
   1424.01306     761.2926     504.6750   1424.01306     761.2926     504.6750
   1423.99780     761.1196     503.9993   1423.99780     761.1196     503.9993
   1423.98254     760.0184     502.9209   1423.98254     760.0184     502.9209
   1423.96729     760.0240     502.1812   1423.96729     760.0240     502.1812
   1423.95203     759.5143     501.5300   1423.95203     759.5143     501.5300
   1423.93677     758.3828     502.4012   1423.93677     758.3828     502.4012
   1423.92151     757.7720     501.0860   1423.92151     757.7720     501.0860
   1423.90625     757.4046     500.2933   1423.90625     757.4046     500.2933
   1423.89099     757.4218     499.3686   1423.89099     757.4218     499.3686
   1423.87573     756.5407     499.2481   1423.87573     756.5407     499.2481
   1423.86047     756.5582     498.6430   1423.86047     756.5582     498.6430
   1423.84521     756.7609     498.2950   1423.84521     756.7609     498.2950
   1423.82996     756.6091     496.3567   1423.82996     756.6091     496.3567
   1423.81470     755.9338     496.7896   1423.81470     755.9338     496.7896
   1423.79944     754.3995     495.9574   1423.79944     754.3995     495.9574
   1423.78418     754.3900     494.6058   1423.78418     754.3900     494.6058
   1423.76892     754.8289     494.4608   1423.76892     754.8289     494.4608
   1423.75366     754.3991     493.9550   1423.75366     754.3991     493.9550
   1423.73840     752.7812     494.0596   1423.73840     752.7812     494.0596
   1423.72314     753.4190     491.9983   1423.72314     753.4190     491.9983
   1423.70789     752.8742     491.8808   1423.70789     752.8742     491.8808
   1423.69263     751.9429     492.2507   1423.69263     751.9429     492.2507
   1423.67737     750.5381     490.9682   1423.67737     750.5381     490.9682
   1423.66211     751.1042     489.8841   1423.66211     751.1042     489.8841
   1423.64685     750.6864     489.7758   1423.64685     750.6864     489.7758
   1423.63159     750.1344     488.9128   1423.63159     750.1344     488.9128
   1423.61633     749.9132     488.2560   1423.61633     749.9132     488.2560
   1423.60107     749.6010     486.9828   1423.60107     749.6010     486.9828
   1423.58582     748.7973     486.2810   1423.58582     748.7973     486.2810
   1423.57056     748.9860     486.7699   1423.57056     748.9860     486.7699
   1423.55530     748.0393     485.0887   1423.55530     748.0393     485.0887
   1423.54004     747.8427     484.9421   1423.54004     747.8427     484.9421
   1423.52478     747.1038     484.7476   1423.52478     747.1038     484.7476
   1423.50952     747.7501     484.8563   1423.50952     747.7501     484.8563
   1423.49426     745.1735     482.7987   1423.49426     745.1735     482.7987
   1423.47900     745.8824     482.4032   1423.47900     745.8824     482.4032
   1423.46375     745.5093     481.9889   1423.46375     745.5093     481.9889
   1423.44849     744.3984     481.9873   1423.44849     744.3984     481.9873
   1423.43323     746.1251     479.8539   1423.43323     746.1251     479.8539
   1423.41797     744.2934     479.7205   1423.41797     744.2934     479.7205
   1423.40271     743.6059     479.8033   1423.40271     743.6059     479.8033
   1423.38745     743.4125     478.9529   1423.38745     743.4125     478.9529
   1423.37219     744.4075     477.6539   1423.37219     744.4075     477.6539
   1423.35693     742.5905     477.1335   1423.35693     742.5905     477.1335
   1423.34167     743.1055     476.6321   1423.34167     743.1055     476.6321
   1423.32642     741.9939     476.2567   1423.32642     741.9939     476.2567
   1423.31116     742.3257     475.1813   1423.31116     742.3257     475.1813
   1423.29590     741.3365     474.6084   1423.29590     741.3365     474.6084
   1423.28064     741.3943     473.6526   1423.28064     741.3943     473.6526
   1423.26538     740.8672     472.9733   1423.26538     740.8672     472.9733
   1423.25012     740.5943     472.8649   1423.25012     740.5943     472.8649
   1423.23486     740.0236     471.6511   1423.23486     740.0236     471.6511
   1423.21960     738.7737     471.1178   1423.21960     738.7737     471.1178
   1423.20435     739.5795     470.1415   1423.20435     739.5795     470.1415
   1423.18909     738.9926     469.5429   1423.18909     738.9926     469.5429
   1423.17383     738.4874     469.5845   1423.17383     738.4874     469.5845
   1423.15857     737.7091     468.2066   1423.15857     737.7091     468.2066
   1423.14331     737.8412     467.4971   1423.14331     737.8412     467.4971
   1423.12805     736.7628     466.6312   1423.12805     736.7628     466.6312
   1423.11279     737.2632     466.2971   1423.11279     737.2632     466.2971
   1423.09753     736.6666     466.0910   1423.09753     736.6666     466.0910
   1423.08228     736.2177     465.2430   1423.08228     736.2177     465.2430
   1423.06702     737.5760     464.0402   1423.06702     737.5760     464.0402
   1423.05176     734.7644     464.2835   1423.05176     734.7644     464.2835
   1423.03650     735.3092     462.8152   1423.03650     735.3092     462.8152
   1423.02124     735.6651     462.5256   1423.02124     735.6651     462.5256
   1423.00598     735.5094     461.5073   1423.00598     735.5094     461.5073
   1422.99072     734.6921     460.4010   1422.99072     734.6921     460.4010
   1422.97546     735.4883     459.0056   1422.97546     735.4883     459.0056
   1422.96021     735.2269     459.1987   1422.96021     735.2269     459.1987
   1422.94495     733.8156     458.6632   1422.94495     733.8156     458.6632
   1422.92969     733.9901     458.1382   1422.92969     733.9901     458.1382
   1422.91443     733.5787     457.2593   1422.91443     733.5787     457.2593
   1422.89917     733.5552     456.7550   1422.89917     733.5552     456.7550
   1422.88391     733.5559     455.7223   1422.88391     733.5559     455.7223
   1422.86865     732.7346     455.0142   1422.86865     732.7346     455.0142
   1422.85339     732.8436     454.5528   1422.85339     732.8436     454.5528
   1422.83813     733.3731     452.8470   1422.83813     733.3731     452.8470
   1422.82288     732.1674     452.9579   1422.82288     732.1674     452.9579
   1422.80762     732.3036     452.2401   1422.80762     732.3036     452.2401
   1422.79236     731.5867     451.6338   1422.79236     731.5867     451.6338
   1422.77710     731.0790     450.3221   1422.77710     731.0790     450.3221
   1422.76184     730.9570     449.8001   1422.76184     730.9570     449.8001
   1422.74658     730.7496     449.7637   1422.74658     730.7496     449.7637
   1422.73132     730.3892     448.8448   1422.73132     730.3892     448.8448
   1422.71606     731.2252     448.1481   1422.71606     731.2252     448.1481
   1422.70081     729.5810     446.9582   1422.70081     729.5810     446.9582
   1422.68555     730.9525     446.9773   1422.68555     730.9525     446.9773
   1422.67029     729.5618     445.6686   1422.67029     729.5618     445.6686
   1422.65503     728.9311     445.0887   1422.65503     728.9311     445.0887
   1422.63977     729.0385     444.2192   1422.63977     729.0385     444.2192
   1422.62451     728.6741     443.7004   1422.62451     728.6741     443.7004
   1422.60925     729.2297     443.0177   1422.60925     729.2297     443.0177
   1422.59399     728.6254     442.3417   1422.59399     728.6254     442.3417
   1422.57874     729.8837     441.1479   1422.57874     729.8837     441.1479
   1422.56348     728.8641     441.0407   1422.56348     728.8641     441.0407
   1422.54822     727.7264     440.0872   1422.54822     727.7264     440.0872
   1422.53296     729.0415     438.6003   1422.53296     729.0415     438.6003
   1422.51770     728.2515     438.6984   1422.51770     728.2515     438.6984
   1422.50244     729.5756     437.8961   1422.50244     729.5756     437.8961
   1422.48718     729.1122     438.2295   1422.48718     729.1122     438.2295
   1422.47192     726.4370     437.1442   1422.47192     726.4370     437.1442
   1422.45667     727.8466     435.5872   1422.45667     727.8466     435.5872
   1422.44141     727.3525     435.4248   1422.44141     727.3525     435.4248
   1422.42615     727.9684     434.4325   1422.42615     727.9684     434.4325
   1422.41089     727.7874     433.5782   1422.41089     727.7874     433.5782
   1422.39563     728.0739     433.3694   1422.39563     728.0739     433.3694
   1422.38037     727.3016     431.7047   1422.38037     727.3016     431.7047
   1422.36511     727.8497     430.6362   1422.36511     727.8497     430.6362
   1422.34985     726.9781     431.0022   1422.34985     726.9781     431.0022
   1422.33459     725.0758     429.7739   1422.33459     725.0758     429.7739
   1422.31934     726.4149     428.4321   1422.31934     726.4149     428.4321
   1422.30408     727.0753     428.5220   1422.30408     727.0753     428.5220
   1422.28882     726.5231     428.5536   1422.28882     726.5231     428.5536
   1422.27356     726.6452     426.4335   1422.27356     726.6452     426.4335
   1422.25830     725.8019     426.5801   1422.25830     725.8019     426.5801
   1422.24304     726.6198     425.3164   1422.24304     726.6198     425.3164
   1422.22778     725.6223     424.8029   1422.22778     725.6223     424.8029
   1422.21252     726.2800     423.5988   1422.21252     726.2800     423.5988
   1422.19727     726.1862     423.2550   1422.19727     726.1862     423.2550
   1422.18201     726.0637     423.0255   1422.18201     726.0637     423.0255
   1422.16675     726.4078     421.5714   1422.16675     726.4078     421.5714
   1422.15149     725.0785     420.7280   1422.15149     725.0785     420.7280
   1422.13623     726.1193     420.6059   1422.13623     726.1193     420.6059
   1422.12097     725.8464     419.1605   1422.12097     725.8464     419.1605
   1422.10571     726.0079     419.5047   1422.10571     726.0079     419.5047
   1422.09045     724.5837     418.6969   1422.09045     724.5837     418.6969
   1422.07520     725.4138     417.1848   1422.07520     725.4138     417.1848
   1422.05994     726.1631     416.7310   1422.05994     726.1631     416.7310
   1422.04468     725.9866     416.6656   1422.04468     725.9866     416.6656
   1422.02942     725.6909     415.5796   1422.02942     725.6909     415.5796
   1422.01416     725.4349     415.0608   1422.01416     725.4349     415.0608
   1421.99890     725.1252     414.2401   1421.99890     725.1252     414.2401
   1421.98364     724.9827     413.5802   1421.98364     724.9827     413.5802
   1421.96838     724.6728     412.5729   1421.96838     724.6728     412.5729
   1421.95312     724.1636     411.7677   1421.95312     724.1636     411.7677
   1421.93787     725.1439     411.2195   1421.93787     725.1439     411.2195
   1421.92261     724.5719     410.8358   1421.92261     724.5719     410.8358
   1421.90735     724.8666     409.5532   1421.90735     724.8666     409.5532
   1421.89209     724.4775     409.2236   1421.89209     724.4775     409.2236
   1421.87683     724.3810     408.3075   1421.87683     724.3810     408.3075
   1421.86157     724.2336     407.8384   1421.86157     724.2336     407.8384
   1421.84631     724.1394     406.6541   1421.84631     724.1394     406.6541
   1421.83105     723.9041     406.0132   1421.83105     723.9041     406.0132
   1421.81580     724.5597     405.7984   1421.81580     724.5597     405.7984
   1421.80054     722.8899     404.6753   1421.80054     722.8899     404.6753
   1421.78528     722.6499     403.7845   1421.78528     722.6499     403.7845
   1421.77002     724.1489     403.2360   1421.77002     724.1489     403.2360
   1421.75476     724.2182     402.6214   1421.75476     724.2182     402.6214
   1421.73950     723.9932     401.4519   1421.73950     723.9932     401.4519
   1421.72424     723.4713     400.8198   1421.72424     723.4713     400.8198
   1421.70898     724.1155     400.0758   1421.70898     724.1155     400.0758
   1421.69373     723.2074     399.1149   1421.69373     723.2074     399.1149
   1421.67847     723.3401     398.7507   1421.67847     723.3401     398.7507
   1421.66321     722.9496     398.4544   1421.66321     722.9496     398.4544
   1421.64795     721.5039     397.2492   1421.64795     721.5039     397.2492
   1421.63269     722.8686     397.1098   1421.63269     722.8686     397.1098
   1421.61743     721.9049     396.0248   1421.61743     721.9049     396.0248
   1421.60217     722.2546     395.3909   1421.60217     722.2546     395.3909
   1421.58691     723.6440     394.8727   1421.58691     723.6440     394.8727
   1421.57166     721.1861     393.9215   1421.57166     721.1861     393.9215
   1421.55640     721.5721     393.3314   1421.55640     721.5721     393.3314
   1421.54114     722.6485     392.2955   1421.54114     722.6485     392.2955
   1421.52588     723.3514     391.9208   1421.52588     723.3514     391.9208
   1421.51062     722.5817     391.3049   1421.51062     722.5817     391.3049
   1421.49536     722.2469     389.9868   1421.49536     722.2469     389.9868
   1421.48010     721.7292     390.6418   1421.48010     721.7292     390.6418
   1421.46484     721.9311     388.9183   1421.46484     721.9311     388.9183
   1421.44958     720.5018     388.1564   1421.44958     720.5018     388.1564
   1421.43433     721.5771     387.4790   1421.43433     721.5771     387.4790
   1421.41907     721.0826     387.4488   1421.41907     721.0826     387.4488
   1421.40381     721.1287     386.7289   1421.40381     721.1287     386.7289
   1421.38855     722.3853     385.3469   1421.38855     722.3853     385.3469
   1421.37329     722.0385     384.9266   1421.37329     722.0385     384.9266
   1421.35803     720.3091     384.6210   1421.35803     720.3091     384.6210
   1421.34277     720.4466     384.0331   1421.34277     720.4466     384.0331
   1421.32751     720.4816     382.8104   1421.32751     720.4816     382.8104
   1421.31226     719.9850     382.6341   1421.31226     719.9850     382.6341
   1421.29700     720.3906     381.7695   1421.29700     720.3906     381.7695
   1421.28174     719.2053     380.3359   1421.28174     719.2053     380.3359
   1421.26648     719.8251     380.4145   1421.26648     719.8251     380.4145
   1421.25122     720.7051     379.6494   1421.25122     720.7051     379.6494
   1421.23596     718.7749     378.7928   1421.23596     718.7749     378.7928
   1421.22070     719.6561     377.9283   1421.22070     719.6561     377.9283
   1421.20544     719.2620     376.9134   1421.20544     719.2620     376.9134
   1421.19019     719.6250     376.7169   1421.19019     719.6250     376.7169
   1421.17493     720.1271     376.2177   1421.17493     720.1271     376.2177
   1421.15967     718.1335     374.9695   1421.15967     718.1335     374.9695
   1421.14441     718.6667     375.0309   1421.14441     718.6667     375.0309
   1421.12915     719.1429     374.1862   1421.12915     719.1429     374.1862
   1421.11389     717.7252     372.7195   1421.11389     717.7252     372.7195
   1421.09863     718.8073     372.4407   1421.09863     718.8073     372.4407
   1421.08337     718.1465     372.1235   1421.08337     718.1465     372.1235
   1421.06812     717.2242     371.0764   1421.06812     717.2242     371.0764
   1421.05286     718.7445     370.7399   1421.05286     718.7445     370.7399
   1421.03760     717.3369     369.8632   1421.03760     717.3369     369.8632
   1421.02234     717.9208     369.6055   1421.02234     717.9208     369.6055
   1421.00708     717.3915     368.8711   1421.00708     717.3915     368.8711
   1420.99182     717.6982     368.5100   1420.99182     717.6982     368.5100
   1420.97656     718.1627     367.5417   1420.97656     718.1627     367.5417
   1420.96130     718.0611     367.2464   1420.96130     718.0611     367.2464
   1420.94604     717.6118     366.6760   1420.94604     717.6118     366.6760
   1420.93079     718.4523     366.6171   1420.93079     718.4523     366.6171
   1420.91553     718.4464     365.9311   1420.91553     718.4464     365.9311
   1420.90027     718.4965     365.9452   1420.90027     718.4965     365.9452
   1420.88501     720.2546     364.8594   1420.88501     720.2546     364.8594
   1420.86975     719.8911     365.1803   1420.86975     719.8911     365.1803
   1420.85449     720.3395     364.2897   1420.85449     720.3395     364.2897
   1420.83923     721.9113     364.5218   1420.83923     721.9113     364.5218
   1420.82397     722.1603     363.7951   1420.82397     722.1603     363.7951
   1420.80872     721.3512     363.5045   1420.80872     721.3512     363.5045
   1420.79346     722.9445     363.4289   1420.79346     722.9445     363.4289
   1420.77820     722.5324     362.7416   1420.77820     722.5324     362.7416
   1420.76294     722.9301     361.9641   1420.76294     722.9301     361.9641
   1420.74768     721.3365     361.6730   1420.74768     721.3365     361.6730
   1420.73242     722.6693     361.6586   1420.73242     722.6693     361.6586
   1420.71716     721.0065     360.5427   1420.71716     721.0065     360.5427
   1420.70190     722.1849     359.8146   1420.70190     722.1849     359.8146
   1420.68665     722.8402     359.0508   1420.68665     722.8402     359.0508
   1420.67139     723.2565     358.6476   1420.67139     723.2565     358.6476
   1420.65613     723.8001     359.4449   1420.65613     723.8001     359.4449
   1420.64087     727.4040     360.1373   1420.64087     727.4040     360.1373
   1420.62561     731.0311     361.8102   1420.62561     731.0311     361.8102
   1420.61035     736.7950     364.3340   1420.61035     736.7950     364.3340
   1420.59509     746.8321     367.9985   1420.59509     746.8321     367.9985
   1420.57983     760.4867     374.3398   1420.57983     760.4867     374.3398
   1420.56458     783.1923     384.2727   1420.56458     783.1923     384.2727
   1420.54932     809.3691     396.6304   1420.54932     809.3691     396.6304
   1420.53406     848.8365     414.0359   1420.53406     848.8365     414.0359
   1420.51880     878.1396     429.7633   1420.51880     878.1396     429.7633
   1420.50354     939.9377     457.7351   1420.50354     939.9377     457.7351
   1420.48828    1131.9631     550.3474   1420.48828    1131.9631     550.3474
   1420.47302    1636.3821     791.2278   1420.47302    1636.3821     791.2278
   1420.45776    1941.2936     936.4574   1420.45776    1941.2936     936.4574
   1420.44250    1984.3713     956.8837   1420.44250    1984.3713     956.8837
   1420.42725    2257.8611    1087.0791   1420.42725    2257.8611    1087.0791
   1420.41199    2440.1104    1172.0092   1420.41199    2440.1104    1172.0092
   1420.39673    2459.8118    1177.2596   1420.39673    2459.8118    1177.2596
   1420.38147    2405.5603    1152.2317   1420.38147    2405.5603    1152.2317
   1420.36621    2358.4600    1128.0071   1420.36621    2358.4600    1128.0071
   1420.35095    2161.3901    1033.0435   1420.35095    2161.3901    1033.0435
   1420.33569    1991.6228     950.9235   1420.33569    1991.6228     950.9235
   1420.32043    1843.3118     878.1517   1420.32043    1843.3118     878.1517
   1420.30518    1599.2606     763.0872   1420.30518    1599.2606     763.0872
   1420.28992    1335.0319     636.6188   1420.28992    1335.0319     636.6188
   1420.27466    1026.6603     490.6056   1420.27466    1026.6603     490.6056
   1420.25940     869.9023     415.5619   1420.25940     869.9023     415.5619
   1420.24414     795.4780     380.1387   1420.24414     795.4780     380.1387
   1420.22888     759.8444     362.2630   1420.22888     759.8444     362.2630
   1420.21362     738.2148     351.7852   1420.21362     738.2148     351.7852
   1420.19836     725.9247     345.7044   1420.19836     725.9247     345.7044
   1420.18311     718.8862     341.9452   1420.18311     718.8862     341.9452
   1420.16785     715.4672     339.1330   1420.16785     715.4672     339.1330
   1420.15259     713.0295     338.0539   1420.15259     713.0295     338.0539
   1420.13733     710.5177     336.5553   1420.13733     710.5177     336.5553
   1420.12207     710.3295     335.2918   1420.12207     710.3295     335.2918
   1420.10681     707.0704     334.2146   1420.10681     707.0704     334.2146
   1420.09155     707.7211     333.2318   1420.09155     707.7211     333.2318
   1420.07629     706.5830     331.9054   1420.07629     706.5830     331.9054
   1420.06104     705.1688     331.8337   1420.06104     705.1688     331.8337
   1420.04578     704.2503     331.0077   1420.04578     704.2503     331.0077
   1420.03052     703.9712     329.9677   1420.03052     703.9712     329.9677
   1420.01526     705.2336     329.9835   1420.01526     705.2336     329.9835
   1420.00000     705.5053     330.7392   1420.00000     705.5053     330.7392
   1419.98474     705.7767     331.4948   1419.98474     705.7767     331.4948
   1419.96948     706.2464     328.9093   1419.96948     706.2464     328.9093
   1419.95422     703.1496     328.2134   1419.95422     703.1496     328.2134
   1419.93896     703.0911     327.0907   1419.93896     703.0911     327.0907
   1419.92371     702.1017     326.4655   1419.92371     702.1017     326.4655
   1419.90845     702.3242     325.9472   1419.90845     702.3242     325.9472
   1419.89319     701.7071     325.3088   1419.89319     701.7071     325.3088
   1419.87793     702.2450     325.2333   1419.87793     702.2450     325.2333
   1419.86267     702.3939     325.0188   1419.86267     702.3939     325.0188
   1419.84741     702.4478     324.0328   1419.84741     702.4478     324.0328
   1419.83215     701.7317     323.7625   1419.83215     701.7317     323.7625
   1419.81689     702.3571     323.3495   1419.81689     702.3571     323.3495
   1419.80164     702.1331     322.8786   1419.80164     702.1331     322.8786
   1419.78638     701.1084     321.9701   1419.78638     701.1084     321.9701
   1419.77112     701.1155     322.3567   1419.77112     701.1155     322.3567
   1419.75586     701.9622     322.0836   1419.75586     701.9622     322.0836
   1419.74060     701.8471     321.1668   1419.74060     701.8471     321.1668
   1419.72534     702.0835     321.2899   1419.72534     702.0835     321.2899
   1419.71008     701.7518     320.5000   1419.71008     701.7518     320.5000
   1419.69482     702.1334     320.8549   1419.69482     702.1334     320.8549
   1419.67957     701.5463     320.1923   1419.67957     701.5463     320.1923
   1419.66431     702.0848     319.2939   1419.66431     702.0848     319.2939
   1419.64905     701.1323     319.8330   1419.64905     701.1323     319.8330
   1419.63379     701.3953     318.9792   1419.63379     701.3953     318.9792
   1419.61853     701.8741     318.7372   1419.61853     701.8741     318.7372
   1419.60327     702.5520     318.3066   1419.60327     702.5520     318.3066
   1419.58801     702.2548     318.0969   1419.58801     702.2548     318.0969
   1419.57275     702.0687     317.6198   1419.57275     702.0687     317.6198
   1419.55750     702.6775     317.7296   1419.55750     702.6775     317.7296
   1419.54224     702.5557     317.5984   1419.54224     702.5557     317.5984
   1419.52698     703.4899     317.6650   1419.52698     703.4899     317.6650
   1419.51172     702.5888     316.9438   1419.51172     702.5888     316.9438
   1419.49646     703.4117     316.1487   1419.49646     703.4117     316.1487
   1419.48120     703.2109     316.3418   1419.48120     703.2109     316.3418
   1419.46594     702.8759     316.4670   1419.46594     702.8759     316.4670
   1419.45068     702.9814     315.3964   1419.45068     702.9814     315.3964
   1419.43542     703.6080     316.4756   1419.43542     703.6080     316.4756
   1419.42017     703.4506     315.4414   1419.42017     703.4506     315.4414
   1419.40491     704.3190     315.4131   1419.40491     704.3190     315.4131
   1419.38965     704.5607     314.9990   1419.38965     704.5607     314.9990
   1419.37439     704.2274     314.5071   1419.37439     704.2274     314.5071
   1419.35913     704.7558     314.3332   1419.35913     704.7558     314.3332
   1419.34387     704.4868     314.5399   1419.34387     704.4868     314.5399
   1419.32861     704.2598     313.6795   1419.32861     704.2598     313.6795
   1419.31335     705.2698     314.3288   1419.31335     705.2698     314.3288
   1419.29810     705.2588     314.3091   1419.29810     705.2588     314.3091
   1419.28284     706.0637     313.3760   1419.28284     706.0637     313.3760
   1419.26758     705.8907     313.4583   1419.26758     705.8907     313.4583
   1419.25232     706.2776     313.0687   1419.25232     706.2776     313.0687
   1419.23706     705.7972     313.5786   1419.23706     705.7972     313.5786
   1419.22180     706.4929     313.5115   1419.22180     706.4929     313.5115
   1419.20654     706.7870     313.3683   1419.20654     706.7870     313.3683
   1419.19128     706.3001     312.7352   1419.19128     706.3001     312.7352
   1419.17603     707.3070     313.0100   1419.17603     707.3070     313.0100
   1419.16077     708.4696     312.9617   1419.16077     708.4696     312.9617
   1419.14551     707.8323     312.9951   1419.14551     707.8323     312.9951
   1419.13025     708.5923     312.7022   1419.13025     708.5923     312.7022
   1419.11499     708.6607     312.8797   1419.11499     708.6607     312.8797
   1419.09973     708.4158     312.4923   1419.09973     708.4158     312.4923
   1419.08447     709.3407     312.6859   1419.08447     709.3407     312.6859
   1419.06921     708.2682     312.2660   1419.06921     708.2682     312.2660
   1419.05396     710.0668     312.9749   1419.05396     710.0668     312.9749
   1419.03870     709.5870     311.7819   1419.03870     709.5870     311.7819
   1419.02344     709.5382     312.1044   1419.02344     709.5382     312.1044
   1419.00818     709.8527     312.6452   1419.00818     709.8527     312.6452
   1418.99292     710.8876     312.4003   1418.99292     710.8876     312.4003
   1418.97766     712.5394     312.2001   1418.97766     712.5394     312.2001
   1418.96240     711.8565     312.4597   1418.96240     711.8565     312.4597
   1418.94714     711.3785     312.4095   1418.94714     711.3785     312.4095
   1418.93188     712.8010     312.3341   1418.93188     712.8010     312.3341
   1418.91663     712.3463     312.2344   1418.91663     712.3463     312.2344
   1418.90137     713.4860     312.8058   1418.90137     713.4860     312.8058
   1418.88611     714.1802     312.7253   1418.88611     714.1802     312.7253
   1418.87085     713.5698     312.6099   1418.87085     713.5698     312.6099
   1418.85559     712.9417     312.5875   1418.85559     712.9417     312.5875
   1418.84033     713.5463     312.1859   1418.84033     713.5463     312.1859
   1418.82507     714.9860     313.0471   1418.82507     714.9860     313.0471
   1418.80981     715.9369     312.6811   1418.80981     715.9369     312.6811
   1418.79456     715.8407     312.7561   1418.79456     715.8407     312.7561
   1418.77930     717.1487     313.2173   1418.77930     717.1487     313.2173
   1418.76404     717.6426     313.3541   1418.76404     717.6426     313.3541
   1418.74878     716.9587     313.9130   1418.74878     716.9587     313.9130
   1418.73352     718.5582     313.3416   1418.73352     718.5582     313.3416
   1418.71826     719.0361     313.8815   1418.71826     719.0361     313.8815
   1418.70300     718.1562     313.4688   1418.70300     718.1562     313.4688
   1418.68774     718.5334     313.7085   1418.68774     718.5334     313.7085
   1418.67249     720.6549     313.9739   1418.67249     720.6549     313.9739
   1418.65723     720.4771     314.1591   1418.65723     720.4771     314.1591
   1418.64197     720.5923     314.3121   1418.64197     720.5923     314.3121
   1418.62671     721.0053     314.7834   1418.62671     721.0053     314.7834
   1418.61145     721.5612     314.2188   1418.61145     721.5612     314.2188
   1418.59619     722.5404     314.6678   1418.59619     722.5404     314.6678
   1418.58093     723.3900     315.6131   1418.58093     723.3900     315.6131
   1418.56567     723.8727     315.4136   1418.56567     723.8727     315.4136
   1418.55042     724.0303     315.7774   1418.55042     724.0303     315.7774
   1418.53516     725.2954     316.0591   1418.53516     725.2954     316.0591
   1418.51990     724.7061     316.1648   1418.51990     724.7061     316.1648
   1418.50464     725.0250     316.1504   1418.50464     725.0250     316.1504
   1418.48938     725.5953     316.3776   1418.48938     725.5953     316.3776
   1418.47412     726.4176     317.0892   1418.47412     726.4176     317.0892
   1418.45886     727.2491     316.6980   1418.45886     727.2491     316.6980
   1418.44360     727.6937     316.9339   1418.44360     727.6937     316.9339
   1418.42834     728.7505     317.4889   1418.42834     728.7505     317.4889
   1418.41309     728.4087     317.9266   1418.41309     728.4087     317.9266
   1418.39783     729.7520     318.5681   1418.39783     729.7520     318.5681
   1418.38257     730.1108     318.8605   1418.38257     730.1108     318.8605
   1418.36731     730.8878     318.8330   1418.36731     730.8878     318.8330
   1418.35205     730.9929     319.7527   1418.35205     730.9929     319.7527
   1418.33679     731.8926     319.5184   1418.33679     731.8926     319.5184
   1418.32153     731.9254     320.9823   1418.32153     731.9254     320.9823
   1418.30627     733.9704     320.1049   1418.30627     733.9704     320.1049
   1418.29102     733.1765     320.6487   1418.29102     733.1765     320.6487
   1418.27576     735.2260     321.1770   1418.27576     735.2260     321.1770
   1418.26050     735.3298     321.2444   1418.26050     735.3298     321.2444
   1418.24524     736.6699     322.1376   1418.24524     736.6699     322.1376
   1418.22998     735.5876     322.6786   1418.22998     735.5876     322.6786
   1418.21472     736.9977     322.3799   1418.21472     736.9977     322.3799
   1418.19946     737.9462     323.0963   1418.19946     737.9462     323.0963
   1418.18420     738.1287     323.2441   1418.18420     738.1287     323.2441
   1418.16895     740.2097     323.9857   1418.16895     740.2097     323.9857
   1418.15369     740.0564     324.5269   1418.15369     740.0564     324.5269
   1418.13843     739.5706     324.8942   1418.13843     739.5706     324.8942
   1418.12317     739.6861     325.1808   1418.12317     739.6861     325.1808
   1418.10791     741.7858     325.4173   1418.10791     741.7858     325.4173
   1418.09265     741.9005     326.5807   1418.09265     741.9005     326.5807
   1418.07739     742.8565     326.9930   1418.07739     742.8565     326.9930
   1418.06213     743.4395     326.8459   1418.06213     743.4395     326.8459
   1418.04688     742.6538     327.8777   1418.04688     742.6538     327.8777
   1418.03162     745.0890     328.4672   1418.03162     745.0890     328.4672
   1418.01636     744.8901     328.6385   1418.01636     744.8901     328.6385
   1418.00110     746.2294     329.3827   1418.00110     746.2294     329.3827
   1417.98584     747.0530     330.0806   1417.98584     747.0530     330.0806
   1417.97058     748.1717     330.5930   1417.97058     748.1717     330.5930
   1417.95532     747.8976     331.0904   1417.95532     747.8976     331.0904
   1417.94006     748.3741     331.4886   1417.94006     748.3741     331.4886
   1417.92480     749.2256     332.3763   1417.92480     749.2256     332.3763
   1417.90955     749.3672     332.2866   1417.90955     749.3672     332.2866
   1417.89429     749.8635     333.2537   1417.89429     749.8635     333.2537
   1417.87903     752.0415     333.5214   1417.87903     752.0415     333.5214
   1417.86377     752.3898     334.3992   1417.86377     752.3898     334.3992
   1417.84851     752.1418     334.7983   1417.84851     752.1418     334.7983
   1417.83325     753.7296     335.4728   1417.83325     753.7296     335.4728
   1417.81799     754.4698     335.7855   1417.81799     754.4698     335.7855
   1417.80273     755.5171     336.0807   1417.80273     755.5171     336.0807
   1417.78748     755.9594     336.7657   1417.78748     755.9594     336.7657
   1417.77222     756.3766     337.7654   1417.77222     756.3766     337.7654
   1417.75696     757.7582     338.8925   1417.75696     757.7582     338.8925
   1417.74170     757.5344     339.5684   1417.74170     757.5344     339.5684
   1417.72644     759.6161     340.2645   1417.72644     759.6161     340.2645
   1417.71118     759.3801     340.3143   1417.71118     759.3801     340.3143
   1417.69592     760.4377     340.9268   1417.69592     760.4377     340.9268
   1417.68066     760.1562     342.0482   1417.68066     760.1562     342.0482
   1417.66541     761.0070     341.8916   1417.66541     761.0070     341.8916
   1417.65015     761.9219     343.2153   1417.65015     761.9219     343.2153
   1417.63489     762.1873     343.3693   1417.63489     762.1873     343.3693
   1417.61963     762.7216     344.4748   1417.61963     762.7216     344.4748
   1417.60437     764.8378     345.3608   1417.60437     764.8378     345.3608
   1417.58911     765.2091     345.9083   1417.58911     765.2091     345.9083
   1417.57385     765.6644     346.2315   1417.57385     765.6644     346.2315
   1417.55859     765.8616     347.1810   1417.55859     765.8616     347.1810
   1417.54333     766.8736     347.7669   1417.54333     766.8736     347.7669
   1417.52808     766.3303     349.2820   1417.52808     766.3303     349.2820
   1417.51282     767.5675     348.9974   1417.51282     767.5675     348.9974
   1417.49756     769.0976     350.2827   1417.49756     769.0976     350.2827
   1417.48230     769.1575     351.1479   1417.48230     769.1575     351.1479
   1417.46704     768.9761     351.9125   1417.46704     768.9761     351.9125
   1417.45178     770.5705     352.1324   1417.45178     770.5705     352.1324
   1417.43652     770.2673     352.8927   1417.43652     770.2673     352.8927
   1417.42126     771.8687     354.1457   1417.42126     771.8687     354.1457
   1417.40601     772.2617     354.7056   1417.40601     772.2617     354.7056
   1417.39075     774.1803     355.4585   1417.39075     774.1803     355.4585
   1417.37549     773.1974     356.6624   1417.37549     773.1974     356.6624
   1417.36023     774.3792     356.9221   1417.36023     774.3792     356.9221
   1417.34497     774.1198     358.1629   1417.34497     774.1198     358.1629
   1417.32971     775.8419     358.5251   1417.32971     775.8419     358.5251
   1417.31445     777.3610     359.1225   1417.31445     777.3610     359.1225
   1417.29919     776.5983     360.0438   1417.29919     776.5983     360.0438
   1417.28394     776.5043     361.0913   1417.28394     776.5043     361.0913
   1417.26868     778.0644     361.1898   1417.26868     778.0644     361.1898
   1417.25342     778.3902     362.1866   1417.25342     778.3902     362.1866
   1417.23816     779.6661     363.1870   1417.23816     779.6661     363.1870
   1417.22290     780.3295     364.0605   1417.22290     780.3295     364.0605
   1417.20764     780.6036     365.1909   1417.20764     780.6036     365.1909
   1417.19238     780.1854     365.7599   1417.19238     780.1854     365.7599
   1417.17712     780.8481     366.1056   1417.17712     780.8481     366.1056
   1417.16187     783.0588     367.1914   1417.16187     783.0588     367.1914
   1417.14661     782.4532     367.5202   1417.14661     782.4532     367.5202
   1417.13135     783.1068     368.5302   1417.13135     783.1068     368.5302
   1417.11609     783.1425     368.9716   1417.11609     783.1425     368.9716
   1417.10083     785.1635     369.9882   1417.10083     785.1635     369.9882
   1417.08557     783.1302     370.5014   1417.08557     783.1302     370.5014
   1417.07031     784.3939     371.2706   1417.07031     784.3939     371.2706
   1417.05505     784.5847     372.7659   1417.05505     784.5847     372.7659
   1417.03979     785.5561     373.7365   1417.03979     785.5561     373.7365
   1417.02454     786.4626     374.2541   1417.02454     786.4626     374.2541
   1417.00928     787.0663     374.7697   1417.00928     787.0663     374.7697
   1416.99402     786.9490     375.5775   1416.99402     786.9490     375.5775
   1416.97876     786.9570     376.7642   1416.97876     786.9570     376.7642
   1416.96350     787.9505     377.3377   1416.96350     787.9505     377.3377
   1416.94824     787.9542     378.0894   1416.94824     787.9542     378.0894
   1416.93298     788.9817     378.8137   1416.93298     788.9817     378.8137
   1416.91772     787.9370     379.8052   1416.91772     787.9370     379.8052
   1416.90247     789.2053     379.7579   1416.90247     789.2053     379.7579
   1416.88721     790.1345     380.9746   1416.88721     790.1345     380.9746
   1416.87195     790.2068     381.9392   1416.87195     790.2068     381.9392
   1416.85669     790.3467     382.0340   1416.85669     790.3467     382.0340
   1416.84143     790.9464     383.4203   1416.84143     790.9464     383.4203
   1416.82617     789.5051     383.9915   1416.82617     789.5051     383.9915
   1416.81091     792.9642     384.3160   1416.81091     792.9642     384.3160
   1416.79565     790.9389     385.0037   1416.79565     790.9389     385.0037
   1416.78040     790.7948     385.9292   1416.78040     790.7948     385.9292
   1416.76514     792.7550     386.7637   1416.76514     792.7550     386.7637
   1416.74988     792.0225     386.9161   1416.74988     792.0225     386.9161
   1416.73462     791.6630     388.2218   1416.73462     791.6630     388.2218
   1416.71936     792.0814     388.6943   1416.71936     792.0814     388.6943
   1416.70410     792.8306     388.7670   1416.70410     792.8306     388.7670
   1416.68884     793.9617     389.9231   1416.68884     793.9617     389.9231
   1416.67358     792.7604     390.2135   1416.67358     792.7604     390.2135
   1416.65833     792.8761     391.2522   1416.65833     792.8761     391.2522
   1416.64307     792.9961     391.8190   1416.64307     792.9961     391.8190
   1416.62781     794.9966     391.9915   1416.62781     794.9966     391.9915
   1416.61255     793.0384     392.3147   1416.61255     793.0384     392.3147
   1416.59729     794.2461     393.2957   1416.59729     794.2461     393.2957
   1416.58203     792.1174     393.7346   1416.58203     792.1174     393.7346
   1416.56677     793.3622     394.7054   1416.56677     793.3622     394.7054
   1416.55151     794.2198     395.2099   1416.55151     794.2198     395.2099
   1416.53625     793.8216     396.3667   1416.53625     793.8216     396.3667
   1416.52100     794.8470     395.5521   1416.52100     794.8470     395.5521
   1416.50574     794.3550     396.4633   1416.50574     794.3550     396.4633
   1416.49048     793.8721     397.0602   1416.49048     793.8721     397.0602
   1416.47522     794.1868     397.0594   1416.47522     794.1868     397.0594
   1416.45996     793.7576     398.2641   1416.45996     793.7576     398.2641
   1416.44470     793.5806     398.6065   1416.44470     793.5806     398.6065
   1416.42944     795.0585     398.6318   1416.42944     795.0585     398.6318
   1416.41418     793.9515     399.3833   1416.41418     793.9515     399.3833
   1416.39893     795.1464     399.7065   1416.39893     795.1464     399.7065
   1416.38367     794.3097     399.9257   1416.38367     794.3097     399.9257
   1416.36841     793.6515     400.2944   1416.36841     793.6515     400.2944
   1416.35315     793.5583     400.6829   1416.35315     793.5583     400.6829
   1416.33789     793.2985     402.3651   1416.33789     793.2985     402.3651
   1416.32263     792.8998     402.0957   1416.32263     792.8998     402.0957
   1416.30737     794.8722     402.2585   1416.30737     794.8722     402.2585
   1416.29211     792.7155     402.7531   1416.29211     792.7155     402.7531
   1416.27686     792.6998     403.0526   1416.27686     792.6998     403.0526
   1416.26160     792.7266     402.9183   1416.26160     792.7266     402.9183
   1416.24634     792.1721     403.8663   1416.24634     792.1721     403.8663
   1416.23108     790.6599     404.0274   1416.23108     790.6599     404.0274
   1416.21582     792.6692     403.4518   1416.21582     792.6692     403.4518
   1416.20056     791.4863     404.3956   1416.20056     791.4863     404.3956
   1416.18530     790.7187     404.9494   1416.18530     790.7187     404.9494
   1416.17004     790.3318     404.8845   1416.17004     790.3318     404.8845
   1416.15479     791.6602     404.8362   1416.15479     791.6602     404.8362
   1416.13953     791.5753     405.8085   1416.13953     791.5753     405.8085
   1416.12427     791.1157     405.9690   1416.12427     791.1157     405.9690
   1416.10901     790.6625     405.3641   1416.10901     790.6625     405.3641
   1416.09375     789.5763     405.3993   1416.09375     789.5763     405.3993
   1416.07849     789.6964     405.6931   1416.07849     789.6964     405.6931
   1416.06323     788.7770     406.5058   1416.06323     788.7770     406.5058
   1416.04797     788.1523     405.8358   1416.04797     788.1523     405.8358
   1416.03271     788.5925     406.3790   1416.03271     788.5925     406.3790
   1416.01746     787.0127     406.4073   1416.01746     787.0127     406.4073
   1416.00220     788.0403     406.4925   1416.00220     788.0403     406.4925
   1415.98694     787.7498     406.7192   1415.98694     787.7498     406.7192
   1415.97168     786.2563     406.9454   1415.97168     786.2563     406.9454
   1415.95642     785.9971     406.6321   1415.95642     785.9971     406.6321
   1415.94116     784.5197     406.9585   1415.94116     784.5197     406.9585
   1415.92590     784.9217     407.4818   1415.92590     784.9217     407.4818
   1415.91064     783.7673     407.9533   1415.91064     783.7673     407.9533
   1415.89539     784.4394     406.7269   1415.89539     784.4394     406.7269
   1415.88013     782.6859     407.9659   1415.88013     782.6859     407.9659
   1415.86487     782.7574     407.9924   1415.86487     782.7574     407.9924
   1415.84961     782.7782     407.9790   1415.84961     782.7782     407.9790
   1415.83435     782.3602     407.4506   1415.83435     782.3602     407.4506
   1415.81909     780.6849     407.6584   1415.81909     780.6849     407.6584
   1415.80383     778.8452     407.5680   1415.80383     778.8452     407.5680
   1415.78857     778.6010     407.2726   1415.78857     778.6010     407.2726
   1415.77332     779.2744     408.3920   1415.77332     779.2744     408.3920
   1415.75806     778.2157     408.2230   1415.75806     778.2157     408.2230
   1415.74280     777.6299     407.4690   1415.74280     777.6299     407.4690
   1415.72754     778.0617     407.5420   1415.72754     778.0617     407.5420
   1415.71228     776.3948     408.1676   1415.71228     776.3948     408.1676
   1415.69702     775.3189     407.5708   1415.69702     775.3189     407.5708
   1415.68176     775.5107     408.1361   1415.68176     775.5107     408.1361
   1415.66650     775.1729     408.1221   1415.66650     775.1729     408.1221
   1415.65125     774.5904     408.3929   1415.65125     774.5904     408.3929
   1415.63599     773.1996     407.6653   1415.63599     773.1996     407.6653
   1415.62073     772.8912     408.0153   1415.62073     772.8912     408.0153
   1415.60547     771.1166     408.0027   1415.60547     771.1166     408.0027
   1415.59021     771.1784     407.2924   1415.59021     771.1784     407.2924
   1415.57495     769.9365     408.0015   1415.57495     769.9365     408.0015
   1415.55969     769.2066     407.4530   1415.55969     769.2066     407.4530
   1415.54443     767.7782     407.1345   1415.54443     767.7782     407.1345
   1415.52917     768.1882     407.3274   1415.52917     768.1882     407.3274
   1415.51392     768.7037     407.1028   1415.51392     768.7037     407.1028
   1415.49866     766.8054     407.0311   1415.49866     766.8054     407.0311
   1415.48340     766.4526     406.7107   1415.48340     766.4526     406.7107
   1415.46814     763.6934     406.4237   1415.46814     763.6934     406.4237
   1415.45288     762.5146     406.1365   1415.45288     762.5146     406.1365
   1415.43762     762.2483     407.0046   1415.43762     762.2483     407.0046
   1415.42236     761.8136     406.6574   1415.42236     761.8136     406.6574
   1415.40710     761.4286     406.1167   1415.40710     761.4286     406.1167
   1415.39185     759.6145     405.2685   1415.39185     759.6145     405.2685
   1415.37659     757.9554     405.5059   1415.37659     757.9554     405.5059
   1415.36133     758.1164     404.7943   1415.36133     758.1164     404.7943
   1415.34607     756.3486     405.3610   1415.34607     756.3486     405.3610
   1415.33081     755.9881     405.0123   1415.33081     755.9881     405.0123
   1415.31555     753.7768     404.6023   1415.31555     753.7768     404.6023
   1415.30029     754.2177     405.2122   1415.30029     754.2177     405.2122
   1415.28503     753.5673     403.7763   1415.28503     753.5673     403.7763
   1415.26978     751.9052     404.1238   1415.26978     751.9052     404.1238
   1415.25452     750.4509     403.1176   1415.25452     750.4509     403.1176
   1415.23926     749.8460     403.8540   1415.23926     749.8460     403.8540
   1415.22400     748.7188     403.4574   1415.22400     748.7188     403.4574
   1415.20874     746.8976     403.2782   1415.20874     746.8976     403.2782
   1415.19348     744.8798     402.3263   1415.19348     744.8798     402.3263
   1415.17822     744.1577     402.3912   1415.17822     744.1577     402.3912
   1415.16296     744.3911     402.0525   1415.16296     744.3911     402.0525
   1415.14771     741.5767     401.7375   1415.14771     741.5767     401.7375
   1415.13245     740.2675     401.5104   1415.13245     740.2675     401.5104
   1415.11719     740.2963     401.1063   1415.11719     740.2963     401.1063
   1415.10193     738.9092     401.0612   1415.10193     738.9092     401.0612
   1415.08667     739.1462     400.7570   1415.08667     739.1462     400.7570
   1415.07141     735.5562     400.5438   1415.07141     735.5562     400.5438
   1415.05615     734.6144     399.2705   1415.05615     734.6144     399.2705
   1415.04089     734.0641     399.1383   1415.04089     734.0641     399.1383
   1415.02563     732.0101     399.5016   1415.02563     732.0101     399.5016
   1415.01038     730.6657     398.6133   1415.01038     730.6657     398.6133
   1414.99512     729.2574     398.8556   1414.99512     729.2574     398.8556
   1414.97986     728.3468     397.9531   1414.97986     728.3468     397.9531
   1414.96460     725.8326     397.4933   1414.96460     725.8326     397.4933
   1414.94934     724.1171     397.0601   1414.94934     724.1171     397.0601
   1414.93408     722.8818     396.9301   1414.93408     722.8818     396.9301
   1414.91882     722.2919     395.3741   1414.91882     722.2919     395.3741
   1414.90356     720.1635     395.2307   1414.90356     720.1635     395.2307
   1414.88831     718.8514     394.4395   1414.88831     718.8514     394.4395
   1414.87305     717.0304     394.9134   1414.87305     717.0304     394.9134
   1414.85779     715.1404     393.4871   1414.85779     715.1404     393.4871
   1414.84253     714.1108     393.7053   1414.84253     714.1108     393.7053
   1414.82727     712.1356     392.8500   1414.82727     712.1356     392.8500
   1414.81201     711.1345     391.8102   1414.81201     711.1345     391.8102
   1414.79675     709.0808     391.9494   1414.79675     709.0808     391.9494
   1414.78149     707.5656     391.3593   1414.78149     707.5656     391.3593
   1414.76624     705.4116     390.5841   1414.76624     705.4116     390.5841
   1414.75098     705.2424     389.8206   1414.75098     705.2424     389.8206
   1414.73572     703.6097     389.7614   1414.73572     703.6097     389.7614
   1414.72046     701.1911     388.4777   1414.72046     701.1911     388.4777
   1414.70520     698.9249     388.0082   1414.70520     698.9249     388.0082
   1414.68994     697.8419     387.7670   1414.68994     697.8419     387.7670
   1414.67468     695.5693     386.5486   1414.67468     695.5693     386.5486
   1414.65942     694.4885     386.5820   1414.65942     694.4885     386.5820
   1414.64417     692.3159     385.5196   1414.64417     692.3159     385.5196
   1414.62891     689.4566     384.0721   1414.62891     689.4566     384.0721
   1414.61365     687.5616     384.1211   1414.61365     687.5616     384.1211
   1414.59839     685.8386     383.3357   1414.59839     685.8386     383.3357
   1414.58313     684.4712     382.4904   1414.58313     684.4712     382.4904
   1414.56787     683.3845     381.7996   1414.56787     683.3845     381.7996
   1414.55261     679.7692     381.3087   1414.55261     679.7692     381.3087
   1414.53735     678.6241     379.9872   1414.53735     678.6241     379.9872
   1414.52209     676.6758     379.3124   1414.52209     676.6758     379.3124
   1414.50684     674.9324     378.4255   1414.50684     674.9324     378.4255
   1414.49158     671.7851     377.6577   1414.49158     671.7851     377.6577
   1414.47632     670.2886     376.8041   1414.47632     670.2886     376.8041
   1414.46106     667.7566     376.2961   1414.46106     667.7566     376.2961
   1414.44580     665.8200     375.5880   1414.44580     665.8200     375.5880
   1414.43054     664.0896     373.9385   1414.43054     664.0896     373.9385
   1414.41528     661.9067     373.3716   1414.41528     661.9067     373.3716
   1414.40002     659.5670     372.9315   1414.40002     659.5670     372.9315
   1414.38477     656.5076     371.5923   1414.38477     656.5076     371.5923
   1414.36951     653.9897     370.9283   1414.36951     653.9897     370.9283
   1414.35425     652.0131     370.0054   1414.35425     652.0131     370.0054
   1414.33899     649.9741     368.4898   1414.33899     649.9741     368.4898
   1414.32373     648.7188     367.8726   1414.32373     648.7188     367.8726
   1414.30847     645.9386     366.6888   1414.30847     645.9386     366.6888
   1414.29321     643.9421     365.9316   1414.29321     643.9421     365.9316
   1414.27795     640.8830     365.3784   1414.27795     640.8830     365.3784
   1414.26270     638.7405     364.1334   1414.26270     638.7405     364.1334
   1414.24744     635.0737     362.7762   1414.24744     635.0737     362.7762
   1414.23218     633.4457     361.5287   1414.23218     633.4457     361.5287
   1414.21692     630.9057     360.5422   1414.21692     630.9057     360.5422
   1414.20166     629.1369     360.0321   1414.20166     629.1369     360.0321
   1414.18640     625.9061     358.7675   1414.18640     625.9061     358.7675
   1414.17114     624.1891     357.6760   1414.17114     624.1891     357.6760
   1414.15588     620.3947     356.5291   1414.15588     620.3947     356.5291
   1414.14062     618.5888     356.0503   1414.14062     618.5888     356.0503
   1414.12537     617.7706     354.7814   1414.12537     617.7706     354.7814
   1414.11011     613.2004     353.2383   1414.11011     613.2004     353.2383
   1414.09485     611.0251     352.1165   1414.09485     611.0251     352.1165
   1414.07959     609.1951     351.1468   1414.07959     609.1951     351.1468
   1414.06433     606.2531     349.9821   1414.06433     606.2531     349.9821
   1414.04907     604.4015     348.8727   1414.04907     604.4015     348.8727
   1414.03381     600.8622     346.9360   1414.03381     600.8622     346.9360
   1414.01855     598.8181     346.8483   1414.01855     598.8181     346.8483
   1414.00330     617.5052     353.5472   1414.00330     617.5052     353.5472
   1413.98804     594.9219     344.9083   1413.98804     594.9219     344.9083
   1413.97278     590.1685     342.5568   1413.97278     590.1685     342.5568
   1413.95752     587.7346     341.5028   1413.95752     587.7346     341.5028
   1413.94226     584.4581     340.2513   1413.94226     584.4581     340.2513
   1413.92700     581.9060     339.3312   1413.92700     581.9060     339.3312
   1413.91174     579.9495     337.9459   1413.91174     579.9495     337.9459
   1413.89648     577.0217     337.7672   1413.89648     577.0217     337.7672
   1413.88123     573.9212     336.0942   1413.88123     573.9212     336.0942
   1413.86597     571.8428     334.6026   1413.86597     571.8428     334.6026
   1413.85071     568.1407     332.6800   1413.85071     568.1407     332.6800
   1413.83545     565.7949     331.7382   1413.83545     565.7949     331.7382
   1413.82019     563.0834     330.8744   1413.82019     563.0834     330.8744
   1413.80493     559.5701     329.1438   1413.80493     559.5701     329.1438
   1413.78967     557.1545     327.9694   1413.78967     557.1545     327.9694
   1413.77441     554.3659     326.6667   1413.77441     554.3659     326.6667
   1413.75916     551.9247     325.7917   1413.75916     551.9247     325.7917
   1413.74390     548.6812     324.1949   1413.74390     548.6812     324.1949
   1413.72864     545.7489     322.9310   1413.72864     545.7489     322.9310
   1413.71338     544.4877     321.9738   1413.71338     544.4877     321.9738
   1413.69812     540.2554     320.4208   1413.69812     540.2554     320.4208
   1413.68286     537.2591     319.0363   1413.68286     537.2591     319.0363
   1413.66760     534.5679     317.7009   1413.66760     534.5679     317.7009
   1413.65234     532.4645     316.5546   1413.65234     532.4645     316.5546
   1413.63708     529.2538     315.1802   1413.63708     529.2538     315.1802
   1413.62183     526.0178     313.8896   1413.62183     526.0178     313.8896
   1413.60657     522.8287     312.3970   1413.60657     522.8287     312.3970
   1413.59131     520.5604     311.4705   1413.59131     520.5604     311.4705
   1413.57605     517.7112     309.5172   1413.57605     517.7112     309.5172
   1413.56079     515.5235     308.3656   1413.56079     515.5235     308.3656
   1413.54553     512.4468     307.1746   1413.54553     512.4468     307.1746
   1413.53027     508.5186     306.1406   1413.53027     508.5186     306.1406
   1413.51501     506.8701     304.6613   1413.51501     506.8701     304.6613
   1413.49976     503.6785     303.1998   1413.49976     503.6785     303.1998
   1413.48450     501.1354     302.1983   1413.48450     501.1354     302.1983
   1413.46924     498.1033     301.2969   1413.46924     498.1033     301.2969
   1413.45398     494.7364     299.8417   1413.45398     494.7364     299.8417
   1413.43872     492.4228     298.3515   1413.43872     492.4228     298.3515
   1413.42346     489.6917     297.7948   1413.42346     489.6917     297.7948
   1413.40820     487.5336     295.7776   1413.40820     487.5336     295.7776
   1413.39294     484.5020     295.1822   1413.39294     484.5020     295.1822
   1413.37769     481.5491     293.6692   1413.37769     481.5491     293.6692
   1413.36243     477.7296     292.0096   1413.36243     477.7296     292.0096
   1413.34717     476.5930     290.8606   1413.34717     476.5930     290.8606
   1413.33191     473.5169     290.0322   1413.33191     473.5169     290.0322
   1413.31665     471.0280     288.4766   1413.31665     471.0280     288.4766
   1413.30139     468.5035     287.5143   1413.30139     468.5035     287.5143
   1413.28613     466.1265     286.5706   1413.28613     466.1265     286.5706
   1413.27087     463.7797     285.3756   1413.27087     463.7797     285.3756
   1413.25562     460.9644     284.6452   1413.25562     460.9644     284.6452
   1413.24036     458.2736     282.9969   1413.24036     458.2736     282.9969
   1413.22510     455.5338     281.6782   1413.22510     455.5338     281.6782
   1413.20984     452.9037     280.8308   1413.20984     452.9037     280.8308
   1413.19458     449.9944     280.0180   1413.19458     449.9944     280.0180
   1413.17932     448.5760     278.5715   1413.17932     448.5760     278.5715
   1413.16406     445.9340     277.3314   1413.16406     445.9340     277.3314
   1413.14880     443.4606     276.6661   1413.14880     443.4606     276.6661
   1413.13354     441.2415     275.9676   1413.13354     441.2415     275.9676
   1413.11829     438.3649     274.6599   1413.11829     438.3649     274.6599
   1413.10303     436.7358     273.7620   1413.10303     436.7358     273.7620
   1413.08777     434.1856     272.5160   1413.08777     434.1856     272.5160
   1413.07251     431.9498     271.4429   1413.07251     431.9498     271.4429
   1413.05725     428.7816     270.7809   1413.05725     428.7816     270.7809
   1413.04199     427.3731     269.7014   1413.04199     427.3731     269.7014
   1413.02673     425.1281     268.8472   1413.02673     425.1281     268.8472
   1413.01147     423.1416     268.3217   1413.01147     423.1416     268.3217
   1412.99622     421.0741     267.2696   1412.99622     421.0741     267.2696
   1412.98096     418.3453     266.5500   1412.98096     418.3453     266.5500
   1412.96570     416.7539     265.8944   1412.96570     416.7539     265.8944
   1412.95044     414.4605     265.4011   1412.95044     414.4605     265.4011
   1412.93518     412.4239     264.0619   1412.93518     412.4239     264.0619
   1412.91992     411.0514     263.8503   1412.91992     411.0514     263.8503
   1412.90466     409.1000     263.5192   1412.90466     409.1000     263.5192
   1412.88940     407.1896     262.5517   1412.88940     407.1896     262.5517
   1412.87415     405.6904     261.6736   1412.87415     405.6904     261.6736
   1412.85889     403.6783     261.3733   1412.85889     403.6783     261.3733
   1412.84363     401.2602     260.9761   1412.84363     401.2602     260.9761
   1412.82837     400.0485     260.2246   1412.82837     400.0485     260.2246
   1412.81311     398.6494     259.4948   1412.81311     398.6494     259.4948
   1412.79785     397.3486     259.3412   1412.79785     397.3486     259.3412
   1412.78259     395.7215     259.0026   1412.78259     395.7215     259.0026
   1412.76733     393.5745     258.6398   1412.76733     393.5745     258.6398
   1412.75208     392.9697     258.0192   1412.75208     392.9697     258.0192
   1412.73682     390.8432     258.0799   1412.73682     390.8432     258.0799
   1412.72156     389.8795     257.8163   1412.72156     389.8795     257.8163
   1412.70630     388.0368     257.2811   1412.70630     388.0368     257.2811
   1412.69104     387.7966     257.1943   1412.69104     387.7966     257.1943
   1412.67578     385.7462     256.9538   1412.67578     385.7462     256.9538
   1412.66052     384.4664     256.9419   1412.66052     384.4664     256.9419
   1412.64526     384.1206     256.6609   1412.64526     384.1206     256.6609
   1412.63000     383.1988     256.5101   1412.63000     383.1988     256.5101
   1412.61475     382.1554     256.9032   1412.61475     382.1554     256.9032
   1412.59949     380.8537     256.6388   1412.59949     380.8537     256.6388
   1412.58423     379.8877     256.5967   1412.58423     379.8877     256.5967
   1412.56897     378.6515     257.2959   1412.56897     378.6515     257.2959
   1412.55371     377.9411     257.1508   1412.55371     377.9411     257.1508
   1412.53845     377.5341     257.6157   1412.53845     377.5341     257.6157
   1412.52319     377.0468     257.8875   1412.52319     377.0468     257.8875
   1412.50793     376.2325     258.0155   1412.50793     376.2325     258.0155
   1412.49268     376.0573     258.2083   1412.49268     376.0573     258.2083
   1412.47742     375.9104     258.8615   1412.47742     375.9104     258.8615
   1412.46216     374.5298     259.0662   1412.46216     374.5298     259.0662
   1412.44690     374.2070     259.6515   1412.44690     374.2070     259.6515
   1412.43164     373.8601     259.7190   1412.43164     373.8601     259.7190
   1412.41638     374.5855     260.6137   1412.41638     374.5855     260.6137
   1412.40112     373.8434     260.7170   1412.40112     373.8434     260.7170
   1412.38586     373.5190     261.8275   1412.38586     373.5190     261.8275
   1412.37061     373.4532     262.7461   1412.37061     373.4532     262.7461
   1412.35535     373.5305     263.4431   1412.35535     373.5305     263.4431
   1412.34009     373.5794     263.6764   1412.34009     373.5794     263.6764
   1412.32483     373.3261     265.4103   1412.32483     373.3261     265.4103
   1412.30957     373.6958     265.8343   1412.30957     373.6958     265.8343
   1412.29431     374.1353     266.9350   1412.29431     374.1353     266.9350
   1412.27905     374.2902     268.0529   1412.27905     374.2902     268.0529
   1412.26379     374.1427     268.4765   1412.26379     374.1427     268.4765
   1412.24854     374.1449     269.6490   1412.24854     374.1449     269.6490
   1412.23328     375.1071     270.4805   1412.23328     375.1071     270.4805
   1412.21802     375.8423     272.3154   1412.21802     375.8423     272.3154
   1412.20276     375.8673     273.1691   1412.20276     375.8673     273.1691