#     FILENAME=!Skynet_57528_lach-cc-231_20647_21026.cyb.fits
#     BASENAME=Skynet_57528_lach-cc-231_20647_21026
#     SRC_NAME=lach-cc-231
#     OBSERVER=ccmadison16_9505
#     DATE_OBS=2016-05-20T19:28:06.620
#        OBSID=20647
#      SCANNUM=21026
#          MJD=57528.8122
#          UTC=70175
#     SCANTYPE=track
#     DATAMODE=HIRES
#     TUNEFREQ=1420.0000
# Actual_FREQ1=1420.0000
# Actual_FREQ2=1420.0000
#    LO1Tuning=6870.000
#     RFFILTER=1355_1435
#        OBSBW=-15.6250
#        NCHAN=1024 
#        FOCUS=37.0489
#           RA=07:25:14.60
#          DEC=-16:01:23.13
#      RA(hrs)=7.420700
#     DEC(deg)=-16.023100
#    AZIM(deg)=156.126
#    ELEV(deg)=32.081
#     IFattens=10.00, 9.00
#      WARNING=None
#    TCAL_XL1=7.9635
#    TCAL_YR1=9.1340
#    TCAL_XL2=7.9635
#    TCAL_YR2=9.1340
#     TRX_XL1=11.7060
#     TRX_YR1=11.7060
#     TRX_XL2=11.7060
#     TRX_YR2=11.7060
#        TAVE=1.0000
#Freq1(MHz)          XL1          YR1  Freq2(MHz)          XL2          YR2 

   1427.81250     364.7257     284.1441   1427.81250     364.7257     284.1441
   1427.79724     364.9663     284.6223   1427.79724     364.9663     284.6223
   1427.78198     365.2283     284.7226   1427.78198     365.2283     284.7226
   1427.76672     366.0738     285.3330   1427.76672     366.0738     285.3330
   1427.75146     366.7565     286.1506   1427.75146     366.7565     286.1506
   1427.73621     367.8267     286.4794   1427.73621     367.8267     286.4794
   1427.72095     369.1267     286.9216   1427.72095     369.1267     286.9216
   1427.70569     369.3310     287.8496   1427.70569     369.3310     287.8496
   1427.69043     371.6355     288.8663   1427.69043     371.6355     288.8663
   1427.67517     372.3210     289.6008   1427.67517     372.3210     289.6008
   1427.65991     373.3033     290.1786   1427.65991     373.3033     290.1786
   1427.64465     374.4553     291.3925   1427.64465     374.4553     291.3925
   1427.62939     375.3280     291.7976   1427.62939     375.3280     291.7976
   1427.61414     377.0996     293.1473   1427.61414     377.0996     293.1473
   1427.59888     377.7485     294.0031   1427.59888     377.7485     294.0031
   1427.58362     379.8856     294.4089   1427.58362     379.8856     294.4089
   1427.56836     381.6673     295.7847   1427.56836     381.6673     295.7847
   1427.55310     383.0525     297.2888   1427.55310     383.0525     297.2888
   1427.53784     384.6209     298.2071   1427.53784     384.6209     298.2071
   1427.52258     385.9881     299.5062   1427.52258     385.9881     299.5062
   1427.50732     387.6715     300.1927   1427.50732     387.6715     300.1927
   1427.49207     388.7438     301.3750   1427.49207     388.7438     301.3750
   1427.47681     390.7321     302.7721   1427.47681     390.7321     302.7721
   1427.46155     392.9957     304.7533   1427.46155     392.9957     304.7533
   1427.44629     394.3568     305.5528   1427.44629     394.3568     305.5528
   1427.43103     395.9460     306.6625   1427.43103     395.9460     306.6625
   1427.41577     397.9492     307.8953   1427.41577     397.9492     307.8953
   1427.40051     399.0954     309.5733   1427.40051     399.0954     309.5733
   1427.38525     402.3882     311.0999   1427.38525     402.3882     311.0999
   1427.37000     404.0905     313.0568   1427.37000     404.0905     313.0568
   1427.35474     406.2735     314.5453   1427.35474     406.2735     314.5453
   1427.33948     408.2280     315.8413   1427.33948     408.2280     315.8413
   1427.32422     411.7856     317.5409   1427.32422     411.7856     317.5409
   1427.30896     412.7266     319.5038   1427.30896     412.7266     319.5038
   1427.29370     414.7532     320.9867   1427.29370     414.7532     320.9867
   1427.27844     416.6985     322.5386   1427.27844     416.6985     322.5386
   1427.26318     419.6426     324.2199   1427.26318     419.6426     324.2199
   1427.24792     422.0146     325.8535   1427.24792     422.0146     325.8535
   1427.23267     424.2456     327.9884   1427.23267     424.2456     327.9884
   1427.21741     426.4861     329.6754   1427.21741     426.4861     329.6754
   1427.20215     429.0635     330.8763   1427.20215     429.0635     330.8763
   1427.18689     430.8702     333.2580   1427.18689     430.8702     333.2580
   1427.17163     433.4838     335.1832   1427.17163     433.4838     335.1832
   1427.15637     436.5618     337.4312   1427.15637     436.5618     337.4312
   1427.14111     438.9406     339.1763   1427.14111     438.9406     339.1763
   1427.12585     441.7866     341.2190   1427.12585     441.7866     341.2190
   1427.11060     444.0074     342.6574   1427.11060     444.0074     342.6574
   1427.09534     446.8102     344.9263   1427.09534     446.8102     344.9263
   1427.08008     449.5388     347.2504   1427.08008     449.5388     347.2504
   1427.06482     451.4259     349.5939   1427.06482     451.4259     349.5939
   1427.04956     455.1417     351.6391   1427.04956     455.1417     351.6391
   1427.03430     457.0705     353.6574   1427.03430     457.0705     353.6574
   1427.01904     459.4834     355.6473   1427.01904     459.4834     355.6473
   1427.00378     462.3970     357.7549   1427.00378     462.3970     357.7549
   1426.98853     465.3984     359.9858   1426.98853     465.3984     359.9858
   1426.97327     468.3155     362.5908   1426.97327     468.3155     362.5908
   1426.95801     471.2339     364.2656   1426.95801     471.2339     364.2656
   1426.94275     473.8499     366.3051   1426.94275     473.8499     366.3051
   1426.92749     476.5743     369.0726   1426.92749     476.5743     369.0726
   1426.91223     479.8464     370.5013   1426.91223     479.8464     370.5013
   1426.89697     482.3474     373.8795   1426.89697     482.3474     373.8795
   1426.88171     485.4147     376.1244   1426.88171     485.4147     376.1244
   1426.86646     486.9095     378.2556   1426.86646     486.9095     378.2556
   1426.85120     490.9318     380.3431   1426.85120     490.9318     380.3431
   1426.83594     493.9957     382.5425   1426.83594     493.9957     382.5425
   1426.82068     496.2163     384.8152   1426.82068     496.2163     384.8152
   1426.80542     499.2707     386.6140   1426.80542     499.2707     386.6140
   1426.79016     502.9164     389.6543   1426.79016     502.9164     389.6543
   1426.77490     505.3615     392.2813   1426.77490     505.3615     392.2813
   1426.75964     508.4402     394.6151   1426.75964     508.4402     394.6151
   1426.74438     511.5252     396.4691   1426.74438     511.5252     396.4691
   1426.72913     514.0845     399.7454   1426.72913     514.0845     399.7454
   1426.71387     517.3693     402.0989   1426.71387     517.3693     402.0989
   1426.69861     519.7934     403.9103   1426.69861     519.7934     403.9103
   1426.68335     523.3914     406.7415   1426.68335     523.3914     406.7415
   1426.66809     526.0552     409.0696   1426.66809     526.0552     409.0696
   1426.65283     530.3615     412.0640   1426.65283     530.3615     412.0640
   1426.63757     531.7785     414.4176   1426.63757     531.7785     414.4176
   1426.62231     544.5287     418.2301   1426.62231     544.5287     418.2301
   1426.60706     537.5874     418.9694   1426.60706     537.5874     418.9694
   1426.59180     540.9261     421.6030   1426.59180     540.9261     421.6030
   1426.57654     544.1632     424.3185   1426.57654     544.1632     424.3185
   1426.56128     546.1456     426.7064   1426.56128     546.1456     426.7064
   1426.54602     549.2505     428.6421   1426.54602     549.2505     428.6421
   1426.53076     552.1015     431.6457   1426.53076     552.1015     431.6457
   1426.51550     554.9053     434.0770   1426.51550     554.9053     434.0770
   1426.50024     558.8918     435.3745   1426.50024     558.8918     435.3745
   1426.48499     561.3857     439.4958   1426.48499     561.3857     439.4958
   1426.46973     564.2411     441.0944   1426.46973     564.2411     441.0944
   1426.45447     567.3012     443.1451   1426.45447     567.3012     443.1451
   1426.43921     568.9809     445.9539   1426.43921     568.9809     445.9539
   1426.42395     573.3727     448.5920   1426.42395     573.3727     448.5920
   1426.40869     575.6730     450.6216   1426.40869     575.6730     450.6216
   1426.39343     578.4990     453.3897   1426.39343     578.4990     453.3897
   1426.37817     581.3351     455.5869   1426.37817     581.3351     455.5869
   1426.36292     583.2217     457.8861   1426.36292     583.2217     457.8861
   1426.34766     585.5355     460.9511   1426.34766     585.5355     460.9511
   1426.33240     589.0834     463.4839   1426.33240     589.0834     463.4839
   1426.31714     591.4705     465.3073   1426.31714     591.4705     465.3073
   1426.30188     594.2989     467.7437   1426.30188     594.2989     467.7437
   1426.28662     597.4147     471.2514   1426.28662     597.4147     471.2514
   1426.27136     600.2650     472.8438   1426.27136     600.2650     472.8438
   1426.25610     602.9752     474.7372   1426.25610     602.9752     474.7372
   1426.24084     604.6444     477.7683   1426.24084     604.6444     477.7683
   1426.22559     607.4747     480.4057   1426.22559     607.4747     480.4057
   1426.21033     610.3669     482.4191   1426.21033     610.3669     482.4191
   1426.19507     613.5629     485.0539   1426.19507     613.5629     485.0539
   1426.17981     615.4911     488.1782   1426.17981     615.4911     488.1782
   1426.16455     618.6700     489.3004   1426.16455     618.6700     489.3004
   1426.14929     620.4066     492.4310   1426.14929     620.4066     492.4310
   1426.13403     622.9064     495.2764   1426.13403     622.9064     495.2764
   1426.11877     626.6914     497.4162   1426.11877     626.6914     497.4162
   1426.10352     627.8903     499.1547   1426.10352     627.8903     499.1547
   1426.08826     630.8751     501.4852   1426.08826     630.8751     501.4852
   1426.07300     632.4944     503.7399   1426.07300     632.4944     503.7399
   1426.05774     634.2397     506.2148   1426.05774     634.2397     506.2148
   1426.04248     638.0890     507.9838   1426.04248     638.0890     507.9838
   1426.02722     640.2755     510.4520   1426.02722     640.2755     510.4520
   1426.01196     641.9387     513.2346   1426.01196     641.9387     513.2346
   1425.99670     644.6165     515.6046   1425.99670     644.6165     515.6046
   1425.98145     646.5105     517.5203   1425.98145     646.5105     517.5203
   1425.96619     649.6469     519.8164   1425.96619     649.6469     519.8164
   1425.95093     650.4679     522.0318   1425.95093     650.4679     522.0318
   1425.93567     653.3848     524.9215   1425.93567     653.3848     524.9215
   1425.92041     655.0216     525.7527   1425.92041     655.0216     525.7527
   1425.90515     657.2340     528.8437   1425.90515     657.2340     528.8437
   1425.88989     660.0601     531.3708   1425.88989     660.0601     531.3708
   1425.87463     661.7703     533.0045   1425.87463     661.7703     533.0045
   1425.85938     663.7379     535.0773   1425.85938     663.7379     535.0773
   1425.84412     664.9797     537.3695   1425.84412     664.9797     537.3695
   1425.82886     667.3630     538.9155   1425.82886     667.3630     538.9155
   1425.81360     668.7766     540.8874   1425.81360     668.7766     540.8874
   1425.79834     671.0502     544.5829   1425.79834     671.0502     544.5829
   1425.78308     673.1002     546.1617   1425.78308     673.1002     546.1617
   1425.76782     674.4562     547.6341   1425.76782     674.4562     547.6341
   1425.75256     675.9625     550.7735   1425.75256     675.9625     550.7735
   1425.73730     679.1073     552.1324   1425.73730     679.1073     552.1324
   1425.72205     680.7145     554.2360   1425.72205     680.7145     554.2360
   1425.70679     680.8683     555.9209   1425.70679     680.8683     555.9209
   1425.69153     684.1687     558.2753   1425.69153     684.1687     558.2753
   1425.67627     686.0308     560.0270   1425.67627     686.0308     560.0270
   1425.66101     686.5532     562.1028   1425.66101     686.5532     562.1028
   1425.64575     689.0192     564.1198   1425.64575     689.0192     564.1198
   1425.63049     690.5462     565.7252   1425.63049     690.5462     565.7252
   1425.61523     691.7584     567.3304   1425.61523     691.7584     567.3304
   1425.59998     694.3105     570.4015   1425.59998     694.3105     570.4015
   1425.58472     694.5811     572.6010   1425.58472     694.5811     572.6010
   1425.56946     696.5856     574.0244   1425.56946     696.5856     574.0244
   1425.55420     697.9887     575.8180   1425.55420     697.9887     575.8180
   1425.53894     698.0047     576.8893   1425.53894     698.0047     576.8893
   1425.52368     699.6848     578.9962   1425.52368     699.6848     578.9962
   1425.50842     700.8531     582.4005   1425.50842     700.8531     582.4005
   1425.49316     702.5086     583.5999   1425.49316     702.5086     583.5999
   1425.47791     703.9501     585.1801   1425.47791     703.9501     585.1801
   1425.46265     705.6874     586.5636   1425.46265     705.6874     586.5636
   1425.44739     706.2887     588.5931   1425.44739     706.2887     588.5931
   1425.43213     708.1348     590.6420   1425.43213     708.1348     590.6420
   1425.41687     710.1267     593.0310   1425.41687     710.1267     593.0310
   1425.40161     709.6309     594.3218   1425.40161     709.6309     594.3218
   1425.38635     711.1179     596.5393   1425.38635     711.1179     596.5393
   1425.37109     711.8646     598.0832   1425.37109     711.8646     598.0832
   1425.35583     713.6063     599.4828   1425.35583     713.6063     599.4828
   1425.34058     713.5245     601.0181   1425.34058     713.5245     601.0181
   1425.32532     715.4036     603.2005   1425.32532     715.4036     603.2005
   1425.31006     715.5387     604.0479   1425.31006     715.5387     604.0479
   1425.29480     716.8635     605.7532   1425.29480     716.8635     605.7532
   1425.27954     719.2371     607.7511   1425.27954     719.2371     607.7511
   1425.26428     719.6673     609.0077   1425.26428     719.6673     609.0077
   1425.24902     720.5140     611.3702   1425.24902     720.5140     611.3702
   1425.23376     720.4466     612.0632   1425.23376     720.4466     612.0632
   1425.21851     721.1415     613.5123   1425.21851     721.1415     613.5123
   1425.20325     722.5936     616.3907   1425.20325     722.5936     616.3907
   1425.18799     721.9732     617.9463   1425.18799     721.9732     617.9463
   1425.17273     724.1856     618.6148   1425.17273     724.1856     618.6148
   1425.15747     722.7927     620.1273   1425.15747     722.7927     620.1273
   1425.14221     726.1931     621.8738   1425.14221     726.1931     621.8738
   1425.12695     725.5115     622.8179   1425.12695     725.5115     622.8179
   1425.11169     726.3178     624.6586   1425.11169     726.3178     624.6586
   1425.09644     728.8984     626.3041   1425.09644     728.8984     626.3041
   1425.08118     727.1422     626.6108   1425.08118     727.1422     626.6108
   1425.06592     728.1299     628.0587   1425.06592     728.1299     628.0587
   1425.05066     729.2318     631.1038   1425.05066     729.2318     631.1038
   1425.03540     729.2264     632.2276   1425.03540     729.2264     632.2276
   1425.02014     730.5190     632.6042   1425.02014     730.5190     632.6042
   1425.00488     730.8312     634.3378   1425.00488     730.8312     634.3378
   1424.98962     730.3623     636.3217   1424.98962     730.3623     636.3217
   1424.97437     731.2294     637.6746   1424.97437     731.2294     637.6746
   1424.95911     731.6867     638.1144   1424.95911     731.6867     638.1144
   1424.94385     732.5039     639.0849   1424.94385     732.5039     639.0849
   1424.92859     732.4915     641.0358   1424.92859     732.4915     641.0358
   1424.91333     733.7466     641.8704   1424.91333     733.7466     641.8704
   1424.89807     732.4199     643.7581   1424.89807     732.4199     643.7581
   1424.88281     732.3921     645.3542   1424.88281     732.3921     645.3542
   1424.86755     733.0059     644.9294   1424.86755     733.0059     644.9294
   1424.85229     733.9398     648.0269   1424.85229     733.9398     648.0269
   1424.83704     734.8687     647.9927   1424.83704     734.8687     647.9927
   1424.82178     734.4915     649.4666   1424.82178     734.4915     649.4666
   1424.80652     734.7218     649.6403   1424.80652     734.7218     649.6403
   1424.79126     734.9559     651.8399   1424.79126     734.9559     651.8399
   1424.77600     735.4910     652.8844   1424.77600     735.4910     652.8844
   1424.76074     734.4003     652.8525   1424.76074     734.4003     652.8525
   1424.74548     735.6692     653.7145   1424.74548     735.6692     653.7145
   1424.73022     736.8159     655.9235   1424.73022     736.8159     655.9235
   1424.71497     736.2175     656.5532   1424.71497     736.2175     656.5532
   1424.69971     736.0806     657.7474   1424.69971     736.0806     657.7474
   1424.68445     735.3602     658.3808   1424.68445     735.3602     658.3808
   1424.66919     736.6439     659.8267   1424.66919     736.6439     659.8267
   1424.65393     736.4160     661.1617   1424.65393     736.4160     661.1617
   1424.63867     736.4709     661.2393   1424.63867     736.4709     661.2393
   1424.62341     735.9664     662.1829   1424.62341     735.9664     662.1829
   1424.60815     736.8649     663.0707   1424.60815     736.8649     663.0707
   1424.59290     736.4211     664.7189   1424.59290     736.4211     664.7189
   1424.57764     736.4428     666.2591   1424.57764     736.4428     666.2591
   1424.56238     736.7710     664.4659   1424.56238     736.7710     664.4659
   1424.54712     736.2011     667.0265   1424.54712     736.2011     667.0265
   1424.53186     736.3674     667.5468   1424.53186     736.3674     667.5468
   1424.51660     736.0463     668.3024   1424.51660     736.0463     668.3024
   1424.50134     735.8158     668.1950   1424.50134     735.8158     668.1950
   1424.48608     736.6937     669.9166   1424.48608     736.6937     669.9166
   1424.47083     736.0866     670.4628   1424.47083     736.0866     670.4628
   1424.45557     735.5130     671.1036   1424.45557     735.5130     671.1036
   1424.44031     736.1780     671.6840   1424.44031     736.1780     671.6840
   1424.42505     735.5915     672.0906   1424.42505     735.5915     672.0906
   1424.40979     735.8830     672.3743   1424.40979     735.8830     672.3743
   1424.39453     735.5710     672.7972   1424.39453     735.5710     672.7972
   1424.37927     735.8428     673.8970   1424.37927     735.8428     673.8970
   1424.36401     734.7202     674.1484   1424.36401     734.7202     674.1484
   1424.34875     735.9893     675.0739   1424.34875     735.9893     675.0739
   1424.33350     735.5415     675.1780   1424.33350     735.5415     675.1780
   1424.31824     735.7911     676.5984   1424.31824     735.7911     676.5984
   1424.30298     735.1924     675.7907   1424.30298     735.1924     675.7907
   1424.28772     736.1637     676.5191   1424.28772     736.1637     676.5191
   1424.27246     734.8411     677.3931   1424.27246     734.8411     677.3931
   1424.25720     735.0460     678.2609   1424.25720     735.0460     678.2609
   1424.24194     734.2211     677.9800   1424.24194     734.2211     677.9800
   1424.22668     733.4229     678.4603   1424.22668     733.4229     678.4603
   1424.21143     733.5621     679.7798   1424.21143     733.5621     679.7798
   1424.19617     734.0830     679.4186   1424.19617     734.0830     679.4186
   1424.18091     733.9358     679.9291   1424.18091     733.9358     679.9291
   1424.16565     733.4174     681.1992   1424.16565     733.4174     681.1992
   1424.15039     732.3966     681.6766   1424.15039     732.3966     681.6766
   1424.13513     732.9350     681.2419   1424.13513     732.9350     681.2419
   1424.11987     732.7153     682.0411   1424.11987     732.7153     682.0411
   1424.10461     733.3411     680.3542   1424.10461     733.3411     680.3542
   1424.08936     732.4769     681.5508   1424.08936     732.4769     681.5508
   1424.07410     732.5010     682.1672   1424.07410     732.5010     682.1672
   1424.05884     732.8421     682.2774   1424.05884     732.8421     682.2774
   1424.04358     731.4435     682.0064   1424.04358     731.4435     682.0064
   1424.02832     731.6328     681.8401   1424.02832     731.6328     681.8401
   1424.01306     731.5406     682.5735   1424.01306     731.5406     682.5735
   1423.99780     732.5162     683.2411   1423.99780     732.5162     683.2411
   1423.98254     730.7852     683.1104   1423.98254     730.7852     683.1104
   1423.96729     730.9000     682.2649   1423.96729     730.9000     682.2649
   1423.95203     731.0820     682.0007   1423.95203     731.0820     682.0007
   1423.93677     729.5948     681.8997   1423.93677     729.5948     681.8997
   1423.92151     729.5853     682.9331   1423.92151     729.5853     682.9331
   1423.90625     729.3515     681.9922   1423.90625     729.3515     681.9922
   1423.89099     729.5021     682.7477   1423.89099     729.5021     682.7477
   1423.87573     729.1157     682.3896   1423.87573     729.1157     682.3896
   1423.86047     729.2837     682.2284   1423.86047     729.2837     682.2284
   1423.84521     728.8162     683.2736   1423.84521     728.8162     683.2736
   1423.82996     728.8666     683.4600   1423.82996     728.8666     683.4600
   1423.81470     728.1388     683.1924   1423.81470     728.1388     683.1924
   1423.79944     728.9936     681.7206   1423.79944     728.9936     681.7206
   1423.78418     726.6592     681.2020   1423.78418     726.6592     681.2020
   1423.76892     726.6431     682.0404   1423.76892     726.6431     682.0404
   1423.75366     727.7032     681.7548   1423.75366     727.7032     681.7548
   1423.73840     726.4626     680.6432   1423.73840     726.4626     680.6432
   1423.72314     726.3985     681.9903   1423.72314     726.3985     681.9903
   1423.70789     725.1793     679.9623   1423.70789     725.1793     679.9623
   1423.69263     726.1556     681.1067   1423.69263     726.1556     681.1067
   1423.67737     726.3542     679.9870   1423.67737     726.3542     679.9870
   1423.66211     725.7920     680.3435   1423.66211     725.7920     680.3435
   1423.64685     724.8588     680.1190   1423.64685     724.8588     680.1190
   1423.63159     724.6329     679.1765   1423.63159     724.6329     679.1765
   1423.61633     725.0233     680.1444   1423.61633     725.0233     680.1444
   1423.60107     724.0493     678.0032   1423.60107     724.0493     678.0032
   1423.58582     724.5484     678.0659   1423.58582     724.5484     678.0659
   1423.57056     724.0494     678.5051   1423.57056     724.0494     678.5051
   1423.55530     724.2496     677.4236   1423.55530     724.2496     677.4236
   1423.54004     722.0981     678.0397   1423.54004     722.0981     678.0397
   1423.52478     722.5344     676.7689   1423.52478     722.5344     676.7689
   1423.50952     721.7783     676.9644   1423.50952     721.7783     676.9644
   1423.49426     722.5316     674.9105   1423.49426     722.5316     674.9105
   1423.47900     720.6970     674.9578   1423.47900     720.6970     674.9578
   1423.46375     721.3662     672.9454   1423.46375     721.3662     672.9454
   1423.44849     720.7711     673.8481   1423.44849     720.7711     673.8481
   1423.43323     721.6900     674.5127   1423.43323     721.6900     674.5127
   1423.41797     720.6610     672.4774   1423.41797     720.6610     672.4774
   1423.40271     720.8923     672.1005   1423.40271     720.8923     672.1005
   1423.38745     719.7114     671.7639   1423.38745     719.7114     671.7639
   1423.37219     718.9490     670.9167   1423.37219     718.9490     670.9167
   1423.35693     720.0264     670.5523   1423.35693     720.0264     670.5523
   1423.34167     718.6122     668.9656   1423.34167     718.6122     668.9656
   1423.32642     719.0883     668.0034   1423.32642     719.0883     668.0034
   1423.31116     719.2061     666.7388   1423.31116     719.2061     666.7388
   1423.29590     717.9487     667.5554   1423.29590     717.9487     667.5554
   1423.28064     718.5077     666.2125   1423.28064     718.5077     666.2125
   1423.26538     718.3634     666.9920   1423.26538     718.3634     666.9920
   1423.25012     718.3676     665.5381   1423.25012     718.3676     665.5381
   1423.23486     716.6729     665.2839   1423.23486     716.6729     665.2839
   1423.21960     716.6931     663.9284   1423.21960     716.6931     663.9284
   1423.20435     717.2397     662.4655   1423.20435     717.2397     662.4655
   1423.18909     716.7846     662.6533   1423.18909     716.7846     662.6533
   1423.17383     716.9918     661.8330   1423.17383     716.9918     661.8330
   1423.15857     716.8931     659.9846   1423.15857     716.8931     659.9846
   1423.14331     715.1321     659.2364   1423.14331     715.1321     659.2364
   1423.12805     715.6465     658.4434   1423.12805     715.6465     658.4434
   1423.11279     715.6126     657.1417   1423.11279     715.6126     657.1417
   1423.09753     715.6661     656.3752   1423.09753     715.6661     656.3752
   1423.08228     715.3214     655.8741   1423.08228     715.3214     655.8741
   1423.06702     714.0498     654.5488   1423.06702     714.0498     654.5488
   1423.05176     713.7650     652.9767   1423.05176     713.7650     652.9767
   1423.03650     714.5309     652.5847   1423.03650     714.5309     652.5847
   1423.02124     714.7745     651.5331   1423.02124     714.7745     651.5331
   1423.00598     713.1693     650.7315   1423.00598     713.1693     650.7315
   1422.99072     712.8629     649.1755   1422.99072     712.8629     649.1755
   1422.97546     713.4689     649.2016   1422.97546     713.4689     649.2016
   1422.96021     713.4844     647.7266   1422.96021     713.4844     647.7266
   1422.94495     711.9602     647.0793   1422.94495     711.9602     647.0793
   1422.92969     712.6473     644.5140   1422.92969     712.6473     644.5140
   1422.91443     711.9766     644.7388   1422.91443     711.9766     644.7388
   1422.89917     711.7791     642.9824   1422.89917     711.7791     642.9824
   1422.88391     711.1758     641.6012   1422.88391     711.1758     641.6012
   1422.86865     711.7626     640.8972   1422.86865     711.7626     640.8972
   1422.85339     710.4840     639.7560   1422.85339     710.4840     639.7560
   1422.83813     710.5869     638.6630   1422.83813     710.5869     638.6630
   1422.82288     710.8816     636.9836   1422.82288     710.8816     636.9836
   1422.80762     710.2396     636.5098   1422.80762     710.2396     636.5098
   1422.79236     709.6080     634.5935   1422.79236     709.6080     634.5935
   1422.77710     709.5454     633.4584   1422.77710     709.5454     633.4584
   1422.76184     708.6542     632.5126   1422.76184     708.6542     632.5126
   1422.74658     709.2571     631.0862   1422.74658     709.2571     631.0862
   1422.73132     707.7388     629.1312   1422.73132     707.7388     629.1312
   1422.71606     706.9609     629.4535   1422.71606     706.9609     629.4535
   1422.70081     709.2109     627.9316   1422.70081     709.2109     627.9316
   1422.68555     709.1133     626.4176   1422.68555     709.1133     626.4176
   1422.67029     707.1113     624.6785   1422.67029     707.1113     624.6785
   1422.65503     707.2469     624.1161   1422.65503     707.2469     624.1161
   1422.63977     708.3846     623.3448   1422.63977     708.3846     623.3448
   1422.62451     708.4819     621.3861   1422.62451     708.4819     621.3861
   1422.60925     706.9791     620.1295   1422.60925     706.9791     620.1295
   1422.59399     706.2309     619.7462   1422.59399     706.2309     619.7462
   1422.57874     706.0865     617.7768   1422.57874     706.0865     617.7768
   1422.56348     706.5528     617.2751   1422.56348     706.5528     617.2751
   1422.54822     705.9249     615.3890   1422.54822     705.9249     615.3890
   1422.53296     706.7695     614.9280   1422.53296     706.7695     614.9280
   1422.51770     705.9789     612.4944   1422.51770     705.9789     612.4944
   1422.50244     705.2963     611.5848   1422.50244     705.2963     611.5848
   1422.48718     705.2182     611.0284   1422.48718     705.2182     611.0284
   1422.47192     704.0575     609.7510   1422.47192     704.0575     609.7510
   1422.45667     704.1240     607.5356   1422.45667     704.1240     607.5356
   1422.44141     703.6360     605.8682   1422.44141     703.6360     605.8682
   1422.42615     704.3987     605.3300   1422.42615     704.3987     605.3300
   1422.41089     704.1975     603.1884   1422.41089     704.1975     603.1884
   1422.39563     704.5603     601.8007   1422.39563     704.5603     601.8007
   1422.38037     702.9984     601.1583   1422.38037     702.9984     601.1583
   1422.36511     703.7388     599.0201   1422.36511     703.7388     599.0201
   1422.34985     704.5602     597.6931   1422.34985     704.5602     597.6931
   1422.33459     703.9520     596.1204   1422.33459     703.9520     596.1204
   1422.31934     703.0858     595.5386   1422.31934     703.0858     595.5386
   1422.30408     702.2752     593.8512   1422.30408     702.2752     593.8512
   1422.28882     703.2050     591.9668   1422.28882     703.2050     591.9668
   1422.27356     703.0482     591.6065   1422.27356     703.0482     591.6065
   1422.25830     702.3021     589.1425   1422.25830     702.3021     589.1425
   1422.24304     701.6275     588.6586   1422.24304     701.6275     588.6586
   1422.22778     701.4929     586.6680   1422.22778     701.4929     586.6680
   1422.21252     701.8135     585.0271   1422.21252     701.8135     585.0271
   1422.19727     701.5220     584.3990   1422.19727     701.5220     584.3990
   1422.18201     701.1617     582.5681   1422.18201     701.1617     582.5681
   1422.16675     701.2483     581.1953   1422.16675     701.2483     581.1953
   1422.15149     700.4796     579.2048   1422.15149     700.4796     579.2048
   1422.13623     699.8925     579.7939   1422.13623     699.8925     579.7939
   1422.12097     700.1426     577.5883   1422.12097     700.1426     577.5883
   1422.10571     699.8030     575.0649   1422.10571     699.8030     575.0649
   1422.09045     699.6534     573.9651   1422.09045     699.6534     573.9651
   1422.07520     698.7587     573.1528   1422.07520     698.7587     573.1528
   1422.05994     699.2521     571.2712   1422.05994     699.2521     571.2712
   1422.04468     698.5247     570.9443   1422.04468     698.5247     570.9443
   1422.02942     698.8515     568.7019   1422.02942     698.8515     568.7019
   1422.01416     699.9220     567.1933   1422.01416     699.9220     567.1933
   1421.99890     699.7298     565.3845   1421.99890     699.7298     565.3845
   1421.98364     699.2299     564.9604   1421.98364     699.2299     564.9604
   1421.96838     698.4590     564.2484   1421.96838     698.4590     564.2484
   1421.95312     698.6852     561.1629   1421.95312     698.6852     561.1629
   1421.93787     698.8275     560.5151   1421.93787     698.8275     560.5151
   1421.92261     697.1335     559.2107   1421.92261     697.1335     559.2107
   1421.90735     696.2019     558.0171   1421.90735     696.2019     558.0171
   1421.89209     697.7680     556.0551   1421.89209     697.7680     556.0551
   1421.87683     695.8840     554.4510   1421.87683     695.8840     554.4510
   1421.86157     696.2809     552.6420   1421.86157     696.2809     552.6420
   1421.84631     696.9522     552.7194   1421.84631     696.9522     552.7194
   1421.83105     695.7220     551.2737   1421.83105     695.7220     551.2737
   1421.81580     694.6298     549.1317   1421.81580     694.6298     549.1317
   1421.80054     695.5525     548.2885   1421.80054     695.5525     548.2885
   1421.78528     692.9765     546.6703   1421.78528     692.9765     546.6703
   1421.77002     695.0223     544.8058   1421.77002     695.0223     544.8058
   1421.75476     694.8680     544.4509   1421.75476     694.8680     544.4509
   1421.73950     694.5532     543.3015   1421.73950     694.5532     543.3015
   1421.72424     694.9303     541.3180   1421.72424     694.9303     541.3180
   1421.70898     693.9870     539.8551   1421.70898     693.9870     539.8551
   1421.69373     694.5642     537.9116   1421.69373     694.5642     537.9116
   1421.67847     694.5100     536.5907   1421.67847     694.5100     536.5907
   1421.66321     693.9236     534.6208   1421.66321     693.9236     534.6208
   1421.64795     692.8776     534.0172   1421.64795     692.8776     534.0172
   1421.63269     692.5262     533.3228   1421.63269     692.5262     533.3228
   1421.61743     692.3641     532.4059   1421.61743     692.3641     532.4059
   1421.60217     692.5483     530.1262   1421.60217     692.5483     530.1262
   1421.58691     691.8784     529.1699   1421.58691     691.8784     529.1699
   1421.57166     691.6852     527.9341   1421.57166     691.6852     527.9341
   1421.55640     691.3194     526.1880   1421.55640     691.3194     526.1880
   1421.54114     692.5979     524.6130   1421.54114     692.5979     524.6130
   1421.52588     691.4510     523.6142   1421.52588     691.4510     523.6142
   1421.51062     691.9169     522.6975   1421.51062     691.9169     522.6975
   1421.49536     691.7330     521.7330   1421.49536     691.7330     521.7330
   1421.48010     690.3975     520.1096   1421.48010     690.3975     520.1096
   1421.46484     690.4807     519.3300   1421.46484     690.4807     519.3300
   1421.44958     690.1455     517.8453   1421.44958     690.1455     517.8453
   1421.43433     690.7043     516.0138   1421.43433     690.7043     516.0138
   1421.41907     689.3566     514.6248   1421.41907     689.3566     514.6248
   1421.40381     689.9854     513.1443   1421.40381     689.9854     513.1443
   1421.38855     689.5124     512.2725   1421.38855     689.5124     512.2725
   1421.37329     689.6475     510.6951   1421.37329     689.6475     510.6951
   1421.35803     688.2778     509.6292   1421.35803     688.2778     509.6292
   1421.34277     688.6540     508.9032   1421.34277     688.6540     508.9032
   1421.32751     689.6865     506.8217   1421.32751     689.6865     506.8217
   1421.31226     688.9053     505.5269   1421.31226     688.9053     505.5269
   1421.29700     688.4588     504.0814   1421.29700     688.4588     504.0814
   1421.28174     689.1524     503.0775   1421.28174     689.1524     503.0775
   1421.26648     688.1572     502.1497   1421.26648     688.1572     502.1497
   1421.25122     686.7656     500.8177   1421.25122     686.7656     500.8177
   1421.23596     687.4428     500.1208   1421.23596     687.4428     500.1208
   1421.22070     686.8781     498.4049   1421.22070     686.8781     498.4049
   1421.20544     687.0002     497.0856   1421.20544     687.0002     497.0856
   1421.19019     686.0834     496.5422   1421.19019     686.0834     496.5422
   1421.17493     686.3735     494.9058   1421.17493     686.3735     494.9058
   1421.15967     685.5072     493.7404   1421.15967     685.5072     493.7404
   1421.14441     685.7131     492.4375   1421.14441     685.7131     492.4375
   1421.12915     686.6948     491.4375   1421.12915     686.6948     491.4375
   1421.11389     685.8653     489.5856   1421.11389     685.8653     489.5856
   1421.09863     684.7780     489.1001   1421.09863     684.7780     489.1001
   1421.08337     684.2898     488.1439   1421.08337     684.2898     488.1439
   1421.06812     684.7139     486.6272   1421.06812     684.7139     486.6272
   1421.05286     684.4751     485.3381   1421.05286     684.4751     485.3381
   1421.03760     684.5671     484.0629   1421.03760     684.5671     484.0629
   1421.02234     683.6168     483.2877   1421.02234     683.6168     483.2877
   1421.00708     684.3176     482.2552   1421.00708     684.3176     482.2552
   1420.99182     684.0109     480.3833   1420.99182     684.0109     480.3833
   1420.97656     683.3453     479.8354   1420.97656     683.3453     479.8354
   1420.96130     682.9950     478.6699   1420.96130     682.9950     478.6699
   1420.94604     682.9778     478.2598   1420.94604     682.9778     478.2598
   1420.93079     682.8463     476.5864   1420.93079     682.8463     476.5864
   1420.91553     682.9622     475.7072   1420.91553     682.9622     475.7072
   1420.90027     682.0319     474.9185   1420.90027     682.0319     474.9185
   1420.88501     682.4709     474.3555   1420.88501     682.4709     474.3555
   1420.86975     682.0186     472.9697   1420.86975     682.0186     472.9697
   1420.85449     682.3998     472.4000   1420.85449     682.3998     472.4000
   1420.83923     681.7097     470.5547   1420.83923     681.7097     470.5547
   1420.82397     682.0739     470.0650   1420.82397     682.0739     470.0650
   1420.80872     681.8831     469.5669   1420.80872     681.8831     469.5669
   1420.79346     682.4711     468.2689   1420.79346     682.4711     468.2689
   1420.77820     681.2278     467.7425   1420.77820     681.2278     467.7425
   1420.76294     681.0362     466.5869   1420.76294     681.0362     466.5869
   1420.74768     682.0737     466.0514   1420.74768     682.0737     466.0514
   1420.73242     682.4150     465.1523   1420.73242     682.4150     465.1523
   1420.71716     683.0182     464.0254   1420.71716     683.0182     464.0254
   1420.70190     682.2507     462.8623   1420.70190     682.2507     462.8623
   1420.68665     681.5639     462.5384   1420.68665     681.5639     462.5384
   1420.67139     681.1227     461.7142   1420.67139     681.1227     461.7142
   1420.65613     680.1729     460.0879   1420.65613     680.1729     460.0879
   1420.64087     680.5317     460.3629   1420.64087     680.5317     460.3629
   1420.62561     681.2326     458.3527   1420.62561     681.2326     458.3527
   1420.61035     680.7194     457.3092   1420.61035     680.7194     457.3092
   1420.59509     681.6931     455.9142   1420.59509     681.6931     455.9142
   1420.57983     681.9535     456.8555   1420.57983     681.9535     456.8555
   1420.56458     682.0991     456.2377   1420.56458     682.0991     456.2377
   1420.54932     683.3658     456.8674   1420.54932     683.3658     456.8674
   1420.53406     685.4788     456.3542   1420.53406     685.4788     456.3542
   1420.51880     685.9984     456.5891   1420.51880     685.9984     456.5891
   1420.50354     685.7665     455.8905   1420.50354     685.7665     455.8905
   1420.48828     685.1871     454.8194   1420.48828     685.1871     454.8194
   1420.47302     685.0660     454.0865   1420.47302     685.0660     454.0865
   1420.45776     683.6522     451.4758   1420.45776     683.6522     451.4758
   1420.44250     684.2646     450.4704   1420.44250     684.2646     450.4704
   1420.42725     683.3646     450.1053   1420.42725     683.3646     450.1053
   1420.41199     682.8901     449.7881   1420.41199     682.8901     449.7881
   1420.39673     682.3698     448.1129   1420.39673     682.3698     448.1129
   1420.38147     682.6697     447.6478   1420.38147     682.6697     447.6478
   1420.36621     683.5223     448.0948   1420.36621     683.5223     448.0948
   1420.35095     684.8861     447.7007   1420.35095     684.8861     447.7007
   1420.33569     684.6459     447.6119   1420.33569     684.6459     447.6119
   1420.32043     686.5303     447.3971   1420.32043     686.5303     447.3971
   1420.30518     689.1114     448.9501   1420.30518     689.1114     448.9501
   1420.28992     693.2661     451.0986   1420.28992     693.2661     451.0986
   1420.27466     702.9184     455.1063   1420.27466     702.9184     455.1063
   1420.25940     729.0571     471.4092   1420.25940     729.0571     471.4092
   1420.24414     824.5717     531.3153   1420.24414     824.5717     531.3153
   1420.22888    1212.8184     769.0487   1420.22888    1212.8184     769.0487
   1420.21362    1386.0063     878.1816   1420.21362    1386.0063     878.1816
   1420.19836    1157.7130     734.0369   1420.19836    1157.7130     734.0369
   1420.18311    1083.3511     685.6492   1420.18311    1083.3511     685.6492
   1420.16785    1159.8129     734.9509   1420.16785    1159.8129     734.9509
   1420.15259    1341.8928     847.7291   1420.15259    1341.8928     847.7291
   1420.13733    1809.9644    1130.9338   1420.13733    1809.9644    1130.9338
   1420.12207    1868.0692    1165.7781   1420.12207    1868.0692    1165.7781
   1420.10681    1765.5287    1102.0780   1420.10681    1765.5287    1102.0780
   1420.09155    1754.6624    1094.8759   1420.09155    1754.6624    1094.8759
   1420.07629    1787.9602    1112.1449   1420.07629    1787.9602    1112.1449
   1420.06104    1822.0723    1137.3397   1420.06104    1822.0723    1137.3397
   1420.04578    1935.5090    1201.2014   1420.04578    1935.5090    1201.2014
   1420.03052    2110.1018    1309.0609   1420.03052    2110.1018    1309.0609
   1420.01526    2103.3643    1300.2988   1420.01526    2103.3643    1300.2988
   1420.00000    1893.4724    1172.0566   1420.00000    1893.4724    1172.0566
   1419.98474    1683.5798    1043.8145   1419.98474    1683.5798    1043.8145
   1419.96948    1456.5052     905.2775   1419.96948    1456.5052     905.2775
   1419.95422    1262.4016     783.7903   1419.95422    1262.4016     783.7903
   1419.93896    1198.0350     743.0339   1419.93896    1198.0350     743.0339
   1419.92371    1303.8926     807.5911   1419.92371    1303.8926     807.5911
   1419.90845    1564.7208     965.1489   1419.90845    1564.7208     965.1489
   1419.89319    1691.8640    1039.4039   1419.89319    1691.8640    1039.4039
   1419.87793    1478.8499     910.3205   1419.87793    1478.8499     910.3205
   1419.86267    1200.0863     741.9819   1419.86267    1200.0863     741.9819
   1419.84741    1017.5225     631.3509   1419.84741    1017.5225     631.3509
   1419.83215     919.0234     571.8553   1419.83215     919.0234     571.8553
   1419.81689     850.3416     528.9320   1419.81689     850.3416     528.9320
   1419.80164     800.5922     499.0260   1419.80164     800.5922     499.0260
   1419.78638     764.8622     476.6763   1419.78638     764.8622     476.6763
   1419.77112     738.4186     460.3800   1419.77112     738.4186     460.3800
   1419.75586     719.9105     449.5707   1419.75586     719.9105     449.5707
   1419.74060     707.5412     441.4115   1419.74060     707.5412     441.4115
   1419.72534     699.3406     435.9246   1419.72534     699.3406     435.9246
   1419.71008     692.2139     430.8641   1419.71008     692.2139     430.8641
   1419.69482     687.1246     428.1107   1419.69482     687.1246     428.1107
   1419.67957     684.4177     425.6104   1419.67957     684.4177     425.6104
   1419.66431     680.8670     423.7673   1419.66431     680.8670     423.7673
   1419.64905     679.6686     422.4958   1419.64905     679.6686     422.4958
   1419.63379     679.3735     421.1284   1419.63379     679.3735     421.1284
   1419.61853     677.9996     420.2785   1419.61853     677.9996     420.2785
   1419.60327     676.6042     419.5257   1419.60327     676.6042     419.5257
   1419.58801     676.5685     419.1808   1419.58801     676.5685     419.1808
   1419.57275     677.0742     417.9841   1419.57275     677.0742     417.9841
   1419.55750     676.6750     417.8955   1419.55750     676.6750     417.8955
   1419.54224     675.9523     417.4900   1419.54224     675.9523     417.4900
   1419.52698     677.0153     417.7979   1419.52698     677.0153     417.7979
   1419.51172     676.9894     417.1197   1419.51172     676.9894     417.1197
   1419.49646     677.1328     416.9738   1419.49646     677.1328     416.9738
   1419.48120     676.6191     416.6646   1419.48120     676.6191     416.6646
   1419.46594     676.9914     416.6577   1419.46594     676.9914     416.6577
   1419.45068     676.7786     415.9366   1419.45068     676.7786     415.9366
   1419.43542     676.8920     415.7782   1419.43542     676.8920     415.7782
   1419.42017     677.1917     416.3434   1419.42017     677.1917     416.3434
   1419.40491     677.6536     415.8312   1419.40491     677.6536     415.8312
   1419.38965     678.1224     415.3792   1419.38965     678.1224     415.3792
   1419.37439     678.6007     416.2858   1419.37439     678.6007     416.2858
   1419.35913     678.6443     415.8304   1419.35913     678.6443     415.8304
   1419.34387     678.6068     416.1786   1419.34387     678.6068     416.1786
   1419.32861     678.7816     415.8110   1419.32861     678.7816     415.8110
   1419.31335     679.6482     415.4114   1419.31335     679.6482     415.4114
   1419.29810     680.0247     416.3850   1419.29810     680.0247     416.3850
   1419.28284     680.0908     415.9595   1419.28284     680.0908     415.9595
   1419.26758     680.9888     416.1329   1419.26758     680.9888     416.1329
   1419.25232     681.5753     415.6870   1419.25232     681.5753     415.6870
   1419.23706     681.8513     416.4955   1419.23706     681.8513     416.4955
   1419.22180     683.0189     415.5354   1419.22180     683.0189     415.5354
   1419.20654     683.5891     416.3237   1419.20654     683.5891     416.3237
   1419.19128     682.8178     415.8550   1419.19128     682.8178     415.8550
   1419.17603     683.1058     416.2581   1419.17603     683.1058     416.2581
   1419.16077     683.7926     416.5304   1419.16077     683.7926     416.5304
   1419.14551     684.9320     417.1500   1419.14551     684.9320     417.1500
   1419.13025     685.2783     416.6709   1419.13025     685.2783     416.6709
   1419.11499     685.4580     416.5260   1419.11499     685.4580     416.5260
   1419.09973     686.1777     417.5560   1419.09973     686.1777     417.5560
   1419.08447     686.0355     417.2243   1419.08447     686.0355     417.2243
   1419.06921     687.0884     418.1857   1419.06921     687.0884     418.1857
   1419.05396     688.2291     417.8546   1419.05396     688.2291     417.8546
   1419.03870     687.9030     417.4444   1419.03870     687.9030     417.4444
   1419.02344     688.9978     417.9325   1419.02344     688.9978     417.9325
   1419.00818     689.7515     417.9695   1419.00818     689.7515     417.9695
   1418.99292     690.1725     418.4306   1418.99292     690.1725     418.4306
   1418.97766     690.2796     418.1129   1418.97766     690.2796     418.1129
   1418.96240     691.9669     418.8553   1418.96240     691.9669     418.8553
   1418.94714     692.7283     418.8657   1418.94714     692.7283     418.8657
   1418.93188     692.6864     418.6498   1418.93188     692.6864     418.6498
   1418.91663     693.6254     419.4131   1418.91663     693.6254     419.4131
   1418.90137     694.2385     419.5314   1418.90137     694.2385     419.5314
   1418.88611     694.7066     418.7170   1418.88611     694.7066     418.7170
   1418.87085     694.0248     420.4065   1418.87085     694.0248     420.4065
   1418.85559     696.7905     420.3839   1418.85559     696.7905     420.3839
   1418.84033     697.0504     420.0552   1418.84033     697.0504     420.0552
   1418.82507     698.0611     420.9742   1418.82507     698.0611     420.9742
   1418.80981     698.0327     421.1662   1418.80981     698.0327     421.1662
   1418.79456     699.2932     422.0561   1418.79456     699.2932     422.0561
   1418.77930     699.6813     422.5229   1418.77930     699.6813     422.5229
   1418.76404     700.6686     422.8481   1418.76404     700.6686     422.8481
   1418.74878     700.5114     423.2565   1418.74878     700.5114     423.2565
   1418.73352     702.5758     423.3208   1418.73352     702.5758     423.3208
   1418.71826     702.6096     423.2619   1418.71826     702.6096     423.2619
   1418.70300     703.6448     422.8721   1418.70300     703.6448     422.8721
   1418.68774     703.8384     424.0027   1418.68774     703.8384     424.0027
   1418.67249     704.7332     423.4466   1418.67249     704.7332     423.4466
   1418.65723     706.8240     424.2320   1418.65723     706.8240     424.2320
   1418.64197     707.2845     425.5187   1418.64197     707.2845     425.5187
   1418.62671     706.5855     426.0345   1418.62671     706.5855     426.0345
   1418.61145     708.4886     426.0542   1418.61145     708.4886     426.0542
   1418.59619     709.0416     426.1339   1418.59619     709.0416     426.1339
   1418.58093     710.7074     426.4853   1418.58093     710.7074     426.4853
   1418.56567     711.6209     427.2064   1418.56567     711.6209     427.2064
   1418.55042     712.3235     427.5091   1418.55042     712.3235     427.5091
   1418.53516     711.7092     427.8912   1418.53516     711.7092     427.8912
   1418.51990     713.6326     428.7427   1418.51990     713.6326     428.7427
   1418.50464     713.7311     429.1776   1418.50464     713.7311     429.1776
   1418.48938     715.4037     428.9237   1418.48938     715.4037     428.9237
   1418.47412     717.9446     430.2578   1418.47412     717.9446     430.2578
   1418.45886     717.4449     431.0504   1418.45886     717.4449     431.0504
   1418.44360     717.4915     431.2015   1418.44360     717.4915     431.2015
   1418.42834     719.2330     431.8007   1418.42834     719.2330     431.8007
   1418.41309     719.6481     432.5401   1418.41309     719.6481     432.5401
   1418.39783     721.7229     432.9253   1418.39783     721.7229     432.9253
   1418.38257     723.1928     432.2195   1418.38257     723.1928     432.2195
   1418.36731     722.8292     432.9836   1418.36731     722.8292     432.9836
   1418.35205     724.1090     433.5818   1418.35205     724.1090     433.5818
   1418.33679     725.0338     434.6739   1418.33679     725.0338     434.6739
   1418.32153     726.9222     435.2513   1418.32153     726.9222     435.2513
   1418.30627     727.8453     434.9985   1418.30627     727.8453     434.9985
   1418.29102     728.2397     436.5475   1418.29102     728.2397     436.5475
   1418.27576     730.4428     436.7926   1418.27576     730.4428     436.7926
   1418.26050     730.3818     437.4698   1418.26050     730.3818     437.4698
   1418.24524     732.0150     436.6678   1418.24524     732.0150     436.6678
   1418.22998     734.3647     438.5305   1418.22998     734.3647     438.5305
   1418.21472     733.3051     438.8040   1418.21472     733.3051     438.8040
   1418.19946     735.3596     439.5856   1418.19946     735.3596     439.5856
   1418.18420     735.0635     440.0973   1418.18420     735.0635     440.0973
   1418.16895     738.2675     440.4436   1418.16895     738.2675     440.4436
   1418.15369     736.9911     441.6159   1418.15369     736.9911     441.6159
   1418.13843     738.8979     442.1802   1418.13843     738.8979     442.1802
   1418.12317     740.9825     441.9643   1418.12317     740.9825     441.9643
   1418.10791     742.3172     443.4755   1418.10791     742.3172     443.4755
   1418.09265     743.8499     442.9466   1418.09265     743.8499     442.9466
   1418.07739     743.0704     444.6688   1418.07739     743.0704     444.6688
   1418.06213     746.2078     445.0110   1418.06213     746.2078     445.0110
   1418.04688     746.0668     445.7945   1418.04688     746.0668     445.7945
   1418.03162     747.8666     446.0370   1418.03162     747.8666     446.0370
   1418.01636     748.0719     446.3255   1418.01636     748.0719     446.3255
   1418.00110     749.0889     447.2786   1418.00110     749.0889     447.2786
   1417.98584     751.0620     447.9398   1417.98584     751.0620     447.9398
   1417.97058     752.8949     448.4084   1417.97058     752.8949     448.4084
   1417.95532     752.3678     449.2930   1417.95532     752.3678     449.2930
   1417.94006     753.5175     450.4760   1417.94006     753.5175     450.4760
   1417.92480     755.5196     450.6729   1417.92480     755.5196     450.6729
   1417.90955     756.0794     451.1772   1417.90955     756.0794     451.1772
   1417.89429     757.8708     452.7998   1417.89429     757.8708     452.7998
   1417.87903     758.7043     452.4744   1417.87903     758.7043     452.4744
   1417.86377     761.1215     453.3000   1417.86377     761.1215     453.3000
   1417.84851     760.3170     453.6786   1417.84851     760.3170     453.6786
   1417.83325     762.7103     454.6999   1417.83325     762.7103     454.6999
   1417.81799     764.9998     454.7476   1417.81799     764.9998     454.7476
   1417.80273     764.5644     455.5464   1417.80273     764.5644     455.5464
   1417.78748     765.9797     456.4312   1417.78748     765.9797     456.4312
   1417.77222     768.9368     457.1080   1417.77222     768.9368     457.1080
   1417.75696     769.1860     457.5639   1417.75696     769.1860     457.5639
   1417.74170     769.6055     457.8158   1417.74170     769.6055     457.8158
   1417.72644     770.3285     458.8645   1417.72644     770.3285     458.8645
   1417.71118     772.6534     459.5864   1417.71118     772.6534     459.5864
   1417.69592     773.2715     461.0490   1417.69592     773.2715     461.0490
   1417.68066     774.6929     461.4108   1417.68066     774.6929     461.4108
   1417.66541     775.5917     461.7916   1417.66541     775.5917     461.7916
   1417.65015     777.8832     462.4180   1417.65015     777.8832     462.4180
   1417.63489     777.8362     462.9105   1417.63489     777.8362     462.9105
   1417.61963     779.7758     464.0474   1417.61963     779.7758     464.0474
   1417.60437     781.0765     464.6292   1417.60437     781.0765     464.6292
   1417.58911     781.9174     464.6870   1417.58911     781.9174     464.6870
   1417.57385     783.3713     465.9237   1417.57385     783.3713     465.9237
   1417.55859     784.9283     465.7916   1417.55859     784.9283     465.7916
   1417.54333     785.2243     466.7430   1417.54333     785.2243     466.7430
   1417.52808     787.3005     467.0925   1417.52808     787.3005     467.0925
   1417.51282     787.6341     468.3812   1417.51282     787.6341     468.3812
   1417.49756     788.2922     468.7585   1417.49756     788.2922     468.7585
   1417.48230     791.0646     469.6713   1417.48230     791.0646     469.6713
   1417.46704     791.3285     469.8576   1417.46704     791.3285     469.8576
   1417.45178     792.9542     470.9954   1417.45178     792.9542     470.9954
   1417.43652     794.1862     471.5739   1417.43652     794.1862     471.5739
   1417.42126     795.4054     472.3859   1417.42126     795.4054     472.3859
   1417.40601     796.4484     473.0716   1417.40601     796.4484     473.0716
   1417.39075     797.6075     473.0940   1417.39075     797.6075     473.0940
   1417.37549     798.7193     473.9634   1417.37549     798.7193     473.9634
   1417.36023     799.9038     474.7119   1417.36023     799.9038     474.7119
   1417.34497     800.1013     474.9963   1417.34497     800.1013     474.9963
   1417.32971     801.7504     475.6015   1417.32971     801.7504     475.6015
   1417.31445     803.6079     476.1909   1417.31445     803.6079     476.1909
   1417.29919     802.8359     477.6389   1417.29919     802.8359     477.6389
   1417.28394     805.9062     477.5913   1417.28394     805.9062     477.5913
   1417.26868     804.4340     477.9154   1417.26868     804.4340     477.9154
   1417.25342     808.0146     478.6731   1417.25342     808.0146     478.6731
   1417.23816     807.3090     479.4343   1417.23816     807.3090     479.4343
   1417.22290     810.8135     479.5478   1417.22290     810.8135     479.5478
   1417.20764     810.9089     480.5336   1417.20764     810.9089     480.5336
   1417.19238     811.8260     481.6707   1417.19238     811.8260     481.6707
   1417.17712     812.5635     481.9137   1417.17712     812.5635     481.9137
   1417.16187     813.7878     481.6878   1417.16187     813.7878     481.6878
   1417.14661     813.3538     483.1401   1417.14661     813.3538     483.1401
   1417.13135     814.4284     483.1414   1417.13135     814.4284     483.1414
   1417.11609     815.8616     483.9922   1417.11609     815.8616     483.9922
   1417.10083     817.3397     484.1975   1417.10083     817.3397     484.1975
   1417.08557     817.9794     484.6202   1417.08557     817.9794     484.6202
   1417.07031     820.5087     485.3486   1417.07031     820.5087     485.3486
   1417.05505     819.4988     485.6671   1417.05505     819.4988     485.6671
   1417.03979     820.5956     486.3635   1417.03979     820.5956     486.3635
   1417.02454     820.6054     485.6810   1417.02454     820.6054     485.6810
   1417.00928     822.8929     487.2500   1417.00928     822.8929     487.2500
   1416.99402     822.9036     487.4330   1416.99402     822.9036     487.4330
   1416.97876     823.3625     488.0128   1416.97876     823.3625     488.0128
   1416.96350     824.7881     488.2008   1416.96350     824.7881     488.2008
   1416.94824     825.6254     488.6036   1416.94824     825.6254     488.6036
   1416.93298     825.5310     488.3747   1416.93298     825.5310     488.3747
   1416.91772     826.4381     489.6804   1416.91772     826.4381     489.6804
   1416.90247     826.2596     490.1160   1416.90247     826.2596     490.1160
   1416.88721     827.2891     490.2227   1416.88721     827.2891     490.2227
   1416.87195     827.5983     490.3434   1416.87195     827.5983     490.3434
   1416.85669     829.7155     490.3690   1416.85669     829.7155     490.3690
   1416.84143     829.9468     491.0043   1416.84143     829.9468     491.0043
   1416.82617     830.5941     491.1896   1416.82617     830.5941     491.1896
   1416.81091     830.6027     491.9309   1416.81091     830.6027     491.9309
   1416.79565     830.9275     491.5720   1416.79565     830.9275     491.5720
   1416.78040     832.5630     492.3328   1416.78040     832.5630     492.3328
   1416.76514     832.3207     491.9350   1416.76514     832.3207     491.9350
   1416.74988     831.5026     491.9583   1416.74988     831.5026     491.9583
   1416.73462     833.6089     493.0197   1416.73462     833.6089     493.0197
   1416.71936     834.2401     492.6201   1416.71936     834.2401     492.6201
   1416.70410     835.0401     493.4898   1416.70410     835.0401     493.4898
   1416.68884     835.0272     493.4342   1416.68884     835.0272     493.4342
   1416.67358     834.6754     493.9396   1416.67358     834.6754     493.9396
   1416.65833     836.2617     493.7722   1416.65833     836.2617     493.7722
   1416.64307     835.6846     494.4041   1416.64307     835.6846     494.4041
   1416.62781     836.1407     493.6610   1416.62781     836.1407     493.6610
   1416.61255     836.6239     493.7360   1416.61255     836.6239     493.7360
   1416.59729     836.1886     494.0512   1416.59729     836.1886     494.0512
   1416.58203     836.4651     494.3703   1416.58203     836.4651     494.3703
   1416.56677     836.8192     494.2705   1416.56677     836.8192     494.2705
   1416.55151     837.3403     494.4393   1416.55151     837.3403     494.4393
   1416.53625     836.5591     495.4660   1416.53625     836.5591     495.4660
   1416.52100     836.7956     495.3856   1416.52100     836.7956     495.3856
   1416.50574     836.6888     494.7432   1416.50574     836.6888     494.7432
   1416.49048     838.0298     494.8640   1416.49048     838.0298     494.8640
   1416.47522     837.4682     494.2660   1416.47522     837.4682     494.2660
   1416.45996     838.1809     495.5266   1416.45996     838.1809     495.5266
   1416.44470     837.4285     494.8250   1416.44470     837.4285     494.8250
   1416.42944     837.3210     495.0898   1416.42944     837.3210     495.0898
   1416.41418     836.3746     494.4030   1416.41418     836.3746     494.4030
   1416.39893     836.3492     493.7516   1416.39893     836.3492     493.7516
   1416.38367     836.3430     495.1819   1416.38367     836.3430     495.1819
   1416.36841     836.7153     494.8303   1416.36841     836.7153     494.8303
   1416.35315     835.8950     494.2621   1416.35315     835.8950     494.2621
   1416.33789     837.1698     494.6032   1416.33789     837.1698     494.6032
   1416.32263     835.6745     493.5499   1416.32263     835.6745     493.5499
   1416.30737     834.2891     493.0795   1416.30737     834.2891     493.0795
   1416.29211     835.1819     493.6909   1416.29211     835.1819     493.6909
   1416.27686     835.4984     493.0555   1416.27686     835.4984     493.0555
   1416.26160     834.3487     493.9141   1416.26160     834.3487     493.9141
   1416.24634     834.5520     493.0546   1416.24634     834.5520     493.0546
   1416.23108     836.8772     493.7228   1416.23108     836.8772     493.7228
   1416.21582     834.0839     493.2016   1416.21582     834.0839     493.2016
   1416.20056     833.7609     492.7624   1416.20056     833.7609     492.7624
   1416.18530     833.1898     492.2920   1416.18530     833.1898     492.2920
   1416.17004     834.2596     491.4997   1416.17004     834.2596     491.4997
   1416.15479     833.1182     492.7447   1416.15479     833.1182     492.7447
   1416.13953     833.0633     492.5446   1416.13953     833.0633     492.5446
   1416.12427     830.2861     492.9394   1416.12427     830.2861     492.9394
   1416.10901     829.9844     492.6051   1416.10901     829.9844     492.6051
   1416.09375     830.6688     491.4107   1416.09375     830.6688     491.4107
   1416.07849     830.1289     491.1549   1416.07849     830.1289     491.1549
   1416.06323     829.1828     490.8384   1416.06323     829.1828     490.8384
   1416.04797     828.1586     491.4682   1416.04797     828.1586     491.4682
   1416.03271     826.8907     491.2380   1416.03271     826.8907     491.2380
   1416.01746     829.4969     490.5746   1416.01746     829.4969     490.5746
   1416.00220     827.7949     490.5588   1416.00220     827.7949     490.5588
   1415.98694     826.1667     490.2675   1415.98694     826.1667     490.2675
   1415.97168     826.0006     489.5348   1415.97168     826.0006     489.5348
   1415.95642     825.4380     489.8230   1415.95642     825.4380     489.8230
   1415.94116     825.0762     489.2494   1415.94116     825.0762     489.2494
   1415.92590     822.8550     489.3966   1415.92590     822.8550     489.3966
   1415.91064     824.8505     489.1899   1415.91064     824.8505     489.1899
   1415.89539     823.0809     489.1187   1415.89539     823.0809     489.1187
   1415.88013     821.7330     489.1112   1415.88013     821.7330     489.1112
   1415.86487     821.1186     488.3360   1415.86487     821.1186     488.3360
   1415.84961     819.7890     488.9081   1415.84961     819.7890     488.9081
   1415.83435     820.1772     488.2060   1415.83435     820.1772     488.2060
   1415.81909     819.1273     487.9994   1415.81909     819.1273     487.9994
   1415.80383     818.7498     487.1743   1415.80383     818.7498     487.1743
   1415.78857     816.7491     487.6136   1415.78857     816.7491     487.6136
   1415.77332     816.1057     487.3535   1415.77332     816.1057     487.3535
   1415.75806     816.3923     487.0694   1415.75806     816.3923     487.0694
   1415.74280     814.8469     486.3892   1415.74280     814.8469     486.3892
   1415.72754     814.4585     486.2944   1415.72754     814.4585     486.2944
   1415.71228     811.7936     485.2466   1415.71228     811.7936     485.2466
   1415.69702     812.1060     486.0293   1415.69702     812.1060     486.0293
   1415.68176     811.1272     484.9685   1415.68176     811.1272     484.9685
   1415.66650     809.5139     484.6331   1415.66650     809.5139     484.6331
   1415.65125     809.1768     484.4457   1415.65125     809.1768     484.4457
   1415.63599     808.1627     484.9342   1415.63599     808.1627     484.9342
   1415.62073     807.8311     484.2858   1415.62073     807.8311     484.2858
   1415.60547     806.8218     484.2108   1415.60547     806.8218     484.2108
   1415.59021     806.7337     483.7599   1415.59021     806.7337     483.7599
   1415.57495     804.2642     483.8166   1415.57495     804.2642     483.8166
   1415.55969     802.9747     483.3245   1415.55969     802.9747     483.3245
   1415.54443     802.0117     481.8853   1415.54443     802.0117     481.8853
   1415.52917     801.8970     482.7430   1415.52917     801.8970     482.7430
   1415.51392     800.4396     482.3707   1415.51392     800.4396     482.3707
   1415.49866     799.7253     482.0069   1415.49866     799.7253     482.0069
   1415.48340     798.4063     482.2245   1415.48340     798.4063     482.2245
   1415.46814     797.1520     481.9233   1415.46814     797.1520     481.9233
   1415.45288     796.7540     481.2091   1415.45288     796.7540     481.2091
   1415.43762     795.2343     480.7035   1415.43762     795.2343     480.7035
   1415.42236     793.4415     480.4568   1415.42236     793.4415     480.4568
   1415.40710     791.8047     481.0801   1415.40710     791.8047     481.0801
   1415.39185     791.1849     479.3560   1415.39185     791.1849     479.3560
   1415.37659     789.3133     479.6529   1415.37659     789.3133     479.6529
   1415.36133     789.0997     478.9719   1415.36133     789.0997     478.9719
   1415.34607     788.1092     478.6485   1415.34607     788.1092     478.6485
   1415.33081     785.8270     478.8974   1415.33081     785.8270     478.8974
   1415.31555     785.2377     479.3010   1415.31555     785.2377     479.3010
   1415.30029     783.7044     478.2399   1415.30029     783.7044     478.2399
   1415.28503     781.9336     477.6239   1415.28503     781.9336     477.6239
   1415.26978     780.6896     477.2623   1415.26978     780.6896     477.2623
   1415.25452     779.1735     476.7844   1415.25452     779.1735     476.7844
   1415.23926     777.3614     476.8082   1415.23926     777.3614     476.8082
   1415.22400     776.8386     475.5605   1415.22400     776.8386     475.5605
   1415.20874     774.7897     475.4114   1415.20874     774.7897     475.4114
   1415.19348     773.3678     475.3160   1415.19348     773.3678     475.3160
   1415.17822     773.8476     475.2315   1415.17822     773.8476     475.2315
   1415.16296     770.7485     473.7307   1415.16296     770.7485     473.7307
   1415.14771     769.9721     473.6121   1415.14771     769.9721     473.6121
   1415.13245     767.1567     473.0914   1415.13245     767.1567     473.0914
   1415.11719     767.7845     472.9118   1415.11719     767.7845     472.9118
   1415.10193     764.6328     472.2425   1415.10193     764.6328     472.2425
   1415.08667     762.8997     471.7280   1415.08667     762.8997     471.7280
   1415.07141     762.2152     471.3826   1415.07141     762.2152     471.3826
   1415.05615     759.3859     470.3153   1415.05615     759.3859     470.3153
   1415.04089     757.9101     470.1644   1415.04089     757.9101     470.1644
   1415.02563     756.3139     469.2712   1415.02563     756.3139     469.2712
   1415.01038     753.3154     469.4763   1415.01038     753.3154     469.4763
   1414.99512     753.1157     469.0702   1414.99512     753.1157     469.0702
   1414.97986     749.4905     467.9380   1414.97986     749.4905     467.9380
   1414.96460     749.7755     468.4670   1414.96460     749.7755     468.4670
   1414.94934     746.8995     467.2973   1414.94934     746.8995     467.2973
   1414.93408     744.3540     466.6776   1414.93408     744.3540     466.6776
   1414.91882     743.6110     466.6102   1414.91882     743.6110     466.6102
   1414.90356     742.4998     465.5623   1414.90356     742.4998     465.5623
   1414.88831     739.4646     465.1730   1414.88831     739.4646     465.1730
   1414.87305     737.7432     464.4868   1414.87305     737.7432     464.4868
   1414.85779     734.7719     462.8347   1414.85779     734.7719     462.8347
   1414.84253     733.9827     463.0833   1414.84253     733.9827     463.0833
   1414.82727     732.1906     462.0574   1414.82727     732.1906     462.0574
   1414.81201     730.8386     461.2658   1414.81201     730.8386     461.2658
   1414.79675     728.6750     461.1947   1414.79675     728.6750     461.1947
   1414.78149     724.7568     460.3739   1414.78149     724.7568     460.3739
   1414.76624     724.0717     459.1831   1414.76624     724.0717     459.1831
   1414.75098     721.4374     458.5144   1414.75098     721.4374     458.5144
   1414.73572     718.9538     458.6835   1414.73572     718.9538     458.6835
   1414.72046     717.9255     457.1302   1414.72046     717.9255     457.1302
   1414.70520     715.5112     456.7940   1414.70520     715.5112     456.7940
   1414.68994     713.7582     456.4090   1414.68994     713.7582     456.4090
   1414.67468     710.2813     455.1226   1414.67468     710.2813     455.1226
   1414.65942     708.1182     454.0557   1414.65942     708.1182     454.0557
   1414.64417     705.6167     453.4706   1414.64417     705.6167     453.4706
   1414.62891     703.8718     452.3694   1414.62891     703.8718     452.3694
   1414.61365     701.7835     451.3864   1414.61365     701.7835     451.3864
   1414.59839     698.5486     450.4915   1414.59839     698.5486     450.4915
   1414.58313     696.9942     450.0874   1414.58313     696.9942     450.0874
   1414.56787     693.6500     448.7113   1414.56787     693.6500     448.7113
   1414.55261     690.9502     447.0604   1414.55261     690.9502     447.0604
   1414.53735     690.3686     447.5728   1414.53735     690.3686     447.5728
   1414.52209     687.5570     446.4500   1414.52209     687.5570     446.4500
   1414.50684     685.2417     445.7974   1414.50684     685.2417     445.7974
   1414.49158     682.6702     444.7162   1414.49158     682.6702     444.7162
   1414.47632     678.7561     444.0919   1414.47632     678.7561     444.0919
   1414.46106     676.8764     442.4594   1414.46106     676.8764     442.4594
   1414.44580     675.0878     442.0844   1414.44580     675.0878     442.0844
   1414.43054     672.2184     441.0181   1414.43054     672.2184     441.0181
   1414.41528     669.8973     439.6163   1414.41528     669.8973     439.6163
   1414.40002     664.2534     438.6116   1414.40002     664.2534     438.6116
   1414.38477     663.8901     437.4606   1414.38477     663.8901     437.4606
   1414.36951     661.3210     437.6115   1414.36951     661.3210     437.6115
   1414.35425     657.3661     435.7298   1414.35425     657.3661     435.7298
   1414.33899     656.4457     435.0159   1414.33899     656.4457     435.0159
   1414.32373     652.9156     432.8517   1414.32373     652.9156     432.8517
   1414.30847     650.0031     432.7111   1414.30847     650.0031     432.7111
   1414.29321     647.7850     431.6307   1414.29321     647.7850     431.6307
   1414.27795     644.7932     430.2917   1414.27795     644.7932     430.2917
   1414.26270     642.1297     429.3100   1414.26270     642.1297     429.3100
   1414.24744     639.9649     428.0283   1414.24744     639.9649     428.0283
   1414.23218     636.1224     426.6385   1414.23218     636.1224     426.6385
   1414.21692     633.8096     424.6012   1414.21692     633.8096     424.6012
   1414.20166     631.3212     423.9595   1414.20166     631.3212     423.9595
   1414.18640     628.2271     422.7843   1414.18640     628.2271     422.7843
   1414.17114     625.3384     422.2820   1414.17114     625.3384     422.2820
   1414.15588     622.0447     421.0930   1414.15588     622.0447     421.0930
   1414.14062     618.8236     419.4448   1414.14062     618.8236     419.4448
   1414.12537     616.2376     418.8855   1414.12537     616.2376     418.8855
   1414.11011     612.8972     416.6425   1414.11011     612.8972     416.6425
   1414.09485     610.9871     415.4363   1414.09485     610.9871     415.4363
   1414.07959     606.8988     414.2850   1414.07959     606.8988     414.2850
   1414.06433     604.0591     413.2151   1414.06433     604.0591     413.2151
   1414.04907     601.4922     411.0101   1414.04907     601.4922     411.0101
   1414.03381     599.0251     410.3011   1414.03381     599.0251     410.3011
   1414.01855     596.2673     409.3460   1414.01855     596.2673     409.3460
   1414.00330     614.3276     413.8886   1414.00330     614.3276     413.8886
   1413.98804     592.0270     407.1248   1413.98804     592.0270     407.1248
   1413.97278     586.5118     404.8125   1413.97278     586.5118     404.8125
   1413.95752     582.8742     403.5762   1413.95752     582.8742     403.5762
   1413.94226     580.8841     401.6934   1413.94226     580.8841     401.6934
   1413.92700     577.7161     401.1425   1413.92700     577.7161     401.1425
   1413.91174     573.9896     399.7917   1413.91174     573.9896     399.7917
   1413.89648     570.7711     398.0357   1413.89648     570.7711     398.0357
   1413.88123     567.5052     396.6553   1413.88123     567.5052     396.6553
   1413.86597     564.3271     394.5795   1413.86597     564.3271     394.5795
   1413.85071     561.0804     393.2337   1413.85071     561.0804     393.2337
   1413.83545     558.3394     392.2253   1413.83545     558.3394     392.2253
   1413.82019     554.5887     390.6621   1413.82019     554.5887     390.6621
   1413.80493     552.2584     388.9427   1413.80493     552.2584     388.9427
   1413.78967     548.8663     387.8615   1413.78967     548.8663     387.8615
   1413.77441     545.9297     385.6948   1413.77441     545.9297     385.6948
   1413.75916     542.5925     384.5146   1413.75916     542.5925     384.5146
   1413.74390     539.3867     382.6738   1413.74390     539.3867     382.6738
   1413.72864     535.8959     381.3994   1413.72864     535.8959     381.3994
   1413.71338     532.8948     380.0403   1413.71338     532.8948     380.0403
   1413.69812     529.8019     378.4402   1413.69812     529.8019     378.4402
   1413.68286     526.9902     377.2702   1413.68286     526.9902     377.2702
   1413.66760     523.6815     375.3869   1413.66760     523.6815     375.3869
   1413.65234     521.1551     374.0852   1413.65234     521.1551     374.0852
   1413.63708     517.5889     372.3100   1413.63708     517.5889     372.3100
   1413.62183     514.5120     370.9351   1413.62183     514.5120     370.9351
   1413.60657     510.8065     369.2474   1413.60657     510.8065     369.2474
   1413.59131     508.3301     367.4566   1413.59131     508.3301     367.4566
   1413.57605     504.6431     366.3092   1413.57605     504.6431     366.3092
   1413.56079     501.8886     365.1399   1413.56079     501.8886     365.1399
   1413.54553     499.0100     362.9387   1413.54553     499.0100     362.9387
   1413.53027     496.2728     361.6430   1413.53027     496.2728     361.6430
   1413.51501     492.8843     360.2075   1413.51501     492.8843     360.2075
   1413.49976     489.7241     358.2669   1413.49976     489.7241     358.2669
   1413.48450     486.5987     356.8093   1413.48450     486.5987     356.8093
   1413.46924     483.8132     355.2769   1413.46924     483.8132     355.2769
   1413.45398     481.2285     353.6107   1413.45398     481.2285     353.6107
   1413.43872     477.8670     352.3626   1413.43872     477.8670     352.3626
   1413.42346     475.8366     351.3930   1413.42346     475.8366     351.3930
   1413.40820     472.3230     349.3097   1413.40820     472.3230     349.3097
   1413.39294     469.8506     347.4080   1413.39294     469.8506     347.4080
   1413.37769     466.9759     346.6003   1413.37769     466.9759     346.6003
   1413.36243     463.7787     345.2544   1413.36243     463.7787     345.2544
   1413.34717     460.6132     342.6582   1413.34717     460.6132     342.6582
   1413.33191     458.2536     340.9706   1413.33191     458.2536     340.9706
   1413.31665     454.5992     339.7635   1413.31665     454.5992     339.7635
   1413.30139     452.7669     338.4633   1413.30139     452.7669     338.4633
   1413.28613     449.2093     336.9879   1413.28613     449.2093     336.9879
   1413.27087     447.3772     335.0783   1413.27087     447.3772     335.0783
   1413.25562     444.2919     333.3354   1413.25562     444.2919     333.3354
   1413.24036     441.7093     332.1578   1413.24036     441.7093     332.1578
   1413.22510     439.5504     330.6079   1413.22510     439.5504     330.6079
   1413.20984     436.1539     329.5830   1413.20984     436.1539     329.5830
   1413.19458     433.3300     328.0852   1413.19458     433.3300     328.0852
   1413.17932     431.7550     326.6221   1413.17932     431.7550     326.6221
   1413.16406     428.5905     325.3967   1413.16406     428.5905     325.3967
   1413.14880     426.2172     323.7836   1413.14880     426.2172     323.7836
   1413.13354     424.1655     322.1535   1413.13354     424.1655     322.1535
   1413.11829     421.4728     320.6929   1413.11829     421.4728     320.6929
   1413.10303     419.2082     319.6063   1413.10303     419.2082     319.6063
   1413.08777     416.3363     317.8741   1413.08777     416.3363     317.8741
   1413.07251     414.4387     316.7966   1413.07251     414.4387     316.7966
   1413.05725     412.0918     315.4982   1413.05725     412.0918     315.4982
   1413.04199     410.3092     313.9264   1413.04199     410.3092     313.9264
   1413.02673     407.7843     312.9618   1413.02673     407.7843     312.9618
   1413.01147     405.4840     312.0127   1413.01147     405.4840     312.0127
   1412.99622     403.6728     310.3509   1412.99622     403.6728     310.3509
   1412.98096     401.9669     309.2747   1412.98096     401.9669     309.2747
   1412.96570     399.5137     308.1039   1412.96570     399.5137     308.1039
   1412.95044     397.7459     307.2740   1412.95044     397.7459     307.2740
   1412.93518     396.1029     305.4327   1412.93518     396.1029     305.4327
   1412.91992     393.8372     304.7645   1412.91992     393.8372     304.7645
   1412.90466     391.9235     303.1761   1412.90466     391.9235     303.1761
   1412.88940     390.4010     301.8297   1412.88940     390.4010     301.8297
   1412.87415     388.6732     301.0134   1412.87415     388.6732     301.0134
   1412.85889     387.2517     300.2390   1412.85889     387.2517     300.2390
   1412.84363     385.3420     298.8428   1412.84363     385.3420     298.8428
   1412.82837     384.1360     297.9726   1412.82837     384.1360     297.9726
   1412.81311     382.3749     297.3132   1412.81311     382.3749     297.3132
   1412.79785     380.5721     296.2057   1412.79785     380.5721     296.2057
   1412.78259     379.6452     295.0316   1412.78259     379.6452     295.0316
   1412.76733     377.9695     294.0702   1412.76733     377.9695     294.0702
   1412.75208     376.3338     292.6751   1412.75208     376.3338     292.6751
   1412.73682     375.0617     292.3999   1412.73682     375.0617     292.3999
   1412.72156     374.0625     291.7890   1412.72156     374.0625     291.7890
   1412.70630     372.5689     291.0705   1412.70630     372.5689     291.0705
   1412.69104     371.7779     289.7863   1412.69104     371.7779     289.7863
   1412.67578     370.7058     289.3507   1412.67578     370.7058     289.3507
   1412.66052     369.6764     288.6953   1412.66052     369.6764     288.6953
   1412.64526     368.5288     287.7250   1412.64526     368.5288     287.7250
   1412.63000     367.4396     287.6245   1412.63000     367.4396     287.6245
   1412.61475     366.5349     286.4665   1412.61475     366.5349     286.4665
   1412.59949     365.6441     286.1632   1412.59949     365.6441     286.1632
   1412.58423     364.8324     285.2394   1412.58423     364.8324     285.2394
   1412.56897     363.6118     284.6401   1412.56897     363.6118     284.6401
   1412.55371     363.3044     284.1836   1412.55371     363.3044     284.1836
   1412.53845     363.2182     284.0231   1412.53845     363.2182     284.0231
   1412.52319     362.4365     283.8765   1412.52319     362.4365     283.8765
   1412.50793     361.7998     283.5614   1412.50793     361.7998     283.5614
   1412.49268     361.1142     283.1293   1412.49268     361.1142     283.1293
   1412.47742     361.2332     282.5461   1412.47742     361.2332     282.5461
   1412.46216     360.8429     282.9729   1412.46216     360.8429     282.9729
   1412.44690     360.0974     282.1080   1412.44690     360.0974     282.1080
   1412.43164     359.9338     281.5812   1412.43164     359.9338     281.5812
   1412.41638     359.3238     281.7879   1412.41638     359.3238     281.7879
   1412.40112     359.8402     281.5214   1412.40112     359.8402     281.5214
   1412.38586     359.3957     281.8509   1412.38586     359.3957     281.8509
   1412.37061     359.8937     281.4754   1412.37061     359.8937     281.4754
   1412.35535     359.4638     282.0024   1412.35535     359.4638     282.0024
   1412.34009     360.3676     281.5086   1412.34009     360.3676     281.5086
   1412.32483     359.7610     281.5622   1412.32483     359.7610     281.5622
   1412.30957     360.2527     281.8209   1412.30957     360.2527     281.8209
   1412.29431     360.2739     281.9292   1412.29431     360.2739     281.9292
   1412.27905     361.1685     281.9761   1412.27905     361.1685     281.9761
   1412.26379     361.4411     282.1407   1412.26379     361.4411     282.1407
   1412.24854     361.7296     282.1089   1412.24854     361.7296     282.1089
   1412.23328     361.7650     283.1646   1412.23328     361.7650     283.1646
   1412.21802     362.8127     283.2192   1412.21802     362.8127     283.2192
   1412.20276     363.1152     283.0064   1412.20276     363.1152     283.0064