#     FILENAME=!Skynet_57528_lach-hhg-167_20545_20990.cyb.fits
#     BASENAME=Skynet_57528_lach-hhg-167_20545_20990
#     SRC_NAME=lach-hhg-167
#     OBSERVER=hhgmadison16_9500
#     DATE_OBS=2016-05-20T18:10:39.750
#        OBSID=20545
#      SCANNUM=20990
#          MJD=57528.7585
#          UTC=65529
#     SCANTYPE=track
#     DATAMODE=HIRES
#     TUNEFREQ=1420.0000
# Actual_FREQ1=1420.0000
# Actual_FREQ2=1420.0000
#    LO1Tuning=6870.000
#     RFFILTER=1355_1435
#        OBSBW=-15.6250
#        NCHAN=1024 
#        FOCUS=37.0709
#           RA=05:10:31.32
#          DEC=39:45:08.05
#      RA(hrs)=5.175400
#     DEC(deg)=39.752200
#    AZIM(deg)=72.537
#    ELEV(deg)=84.902
#     IFattens=10.00, 10.00
#      WARNING=None
#    TCAL_XL1=7.9635
#    TCAL_YR1=9.1340
#    TCAL_XL2=7.9635
#    TCAL_YR2=9.1340
#     TRX_XL1=11.7060
#     TRX_YR1=11.7060
#     TRX_XL2=11.7060
#     TRX_YR2=11.7060
#        TAVE=1.0000
#Freq1(MHz)          XL1          YR1  Freq2(MHz)          XL2          YR2 

   1427.81250     299.0280     338.1320   1427.81250     299.0280     338.1320
   1427.79724     299.6629     340.4129   1427.79724     299.6629     340.4129
   1427.78198     300.1124     342.0487   1427.78198     300.1124     342.0487
   1427.76672     300.3857     343.4933   1427.76672     300.3857     343.4933
   1427.75146     301.6104     345.7788   1427.75146     301.6104     345.7788
   1427.73621     302.0723     346.8723   1427.73621     302.0723     346.8723
   1427.72095     302.9975     349.5148   1427.72095     302.9975     349.5148
   1427.70569     303.3419     351.0418   1427.70569     303.3419     351.0418
   1427.69043     304.1536     352.5974   1427.69043     304.1536     352.5974
   1427.67517     304.9576     354.5838   1427.67517     304.9576     354.5838
   1427.65991     305.0278     356.7258   1427.65991     305.0278     356.7258
   1427.64465     306.0166     358.2786   1427.64465     306.0166     358.2786
   1427.62939     307.7587     361.3155   1427.62939     307.7587     361.3155
   1427.61414     308.2121     362.9443   1427.61414     308.2121     362.9443
   1427.59888     309.6689     365.1932   1427.59888     309.6689     365.1932
   1427.58362     310.6466     367.4672   1427.58362     310.6466     367.4672
   1427.56836     311.6505     370.1176   1427.56836     311.6505     370.1176
   1427.55310     312.7496     372.1904   1427.55310     312.7496     372.1904
   1427.53784     314.2310     374.6282   1427.53784     314.2310     374.6282
   1427.52258     315.3521     376.7879   1427.52258     315.3521     376.7879
   1427.50732     316.3891     379.5943   1427.50732     316.3891     379.5943
   1427.49207     317.0176     381.5444   1427.49207     317.0176     381.5444
   1427.47681     318.4102     383.9639   1427.47681     318.4102     383.9639
   1427.46155     321.0358     387.1560   1427.46155     321.0358     387.1560
   1427.44629     321.8653     389.2678   1427.44629     321.8653     389.2678
   1427.43103     322.8181     391.3062   1427.43103     322.8181     391.3062
   1427.41577     324.5751     394.8331   1427.41577     324.5751     394.8331
   1427.40051     325.6772     397.2811   1427.40051     325.6772     397.2811
   1427.38525     327.4632     400.7179   1427.38525     327.4632     400.7179
   1427.37000     330.2066     402.8426   1427.37000     330.2066     402.8426
   1427.35474     330.9863     405.0398   1427.35474     330.9863     405.0398
   1427.33948     332.1513     407.8981   1427.33948     332.1513     407.8981
   1427.32422     334.0100     411.3593   1427.32422     334.0100     411.3593
   1427.30896     335.8669     413.8989   1427.30896     335.8669     413.8989
   1427.29370     337.7761     416.8325   1427.29370     337.7761     416.8325
   1427.27844     339.3232     419.9608   1427.27844     339.3232     419.9608
   1427.26318     341.6310     422.8051   1427.26318     341.6310     422.8051
   1427.24792     342.7365     425.8000   1427.24792     342.7365     425.8000
   1427.23267     344.9764     428.0871   1427.23267     344.9764     428.0871
   1427.21741     346.9861     431.6393   1427.21741     346.9861     431.6393
   1427.20215     348.6639     433.9564   1427.20215     348.6639     433.9564
   1427.18689     351.1728     437.3751   1427.18689     351.1728     437.3751
   1427.17163     352.6735     440.6688   1427.17163     352.6735     440.6688
   1427.15637     354.6311     442.4912   1427.15637     354.6311     442.4912
   1427.14111     356.7121     445.5882   1427.14111     356.7121     445.5882
   1427.12585     359.0938     449.0548   1427.12585     359.0938     449.0548
   1427.11060     361.0031     451.8491   1427.11060     361.0031     451.8491
   1427.09534     363.1078     454.4753   1427.09534     363.1078     454.4753
   1427.08008     364.9499     457.4509   1427.08008     364.9499     457.4509
   1427.06482     367.3822     460.4610   1427.06482     367.3822     460.4610
   1427.04956     369.5435     463.1439   1427.04956     369.5435     463.1439
   1427.03430     371.3270     466.6839   1427.03430     371.3270     466.6839
   1427.01904     373.8902     469.9541   1427.01904     373.8902     469.9541
   1427.00378     375.9151     473.0773   1427.00378     375.9151     473.0773
   1426.98853     377.6928     475.3951   1426.98853     377.6928     475.3951
   1426.97327     380.9720     478.4154   1426.97327     380.9720     478.4154
   1426.95801     382.3268     480.9384   1426.95801     382.3268     480.9384
   1426.94275     385.0049     484.4231   1426.94275     385.0049     484.4231
   1426.92749     387.3090     487.8958   1426.92749     387.3090     487.8958
   1426.91223     389.5194     490.4076   1426.91223     389.5194     490.4076
   1426.89697     392.5986     493.3662   1426.89697     392.5986     493.3662
   1426.88171     393.8069     496.7588   1426.88171     393.8069     496.7588
   1426.86646     396.3337     499.6294   1426.86646     396.3337     499.6294
   1426.85120     399.2225     502.4465   1426.85120     399.2225     502.4465
   1426.83594     401.4960     506.0919   1426.83594     401.4960     506.0919
   1426.82068     403.5995     508.2075   1426.82068     403.5995     508.2075
   1426.80542     406.3238     511.1576   1426.80542     406.3238     511.1576
   1426.79016     408.3893     513.4710   1426.79016     408.3893     513.4710
   1426.77490     410.5771     516.4232   1426.77490     410.5771     516.4232
   1426.75964     413.0954     519.2507   1426.75964     413.0954     519.2507
   1426.74438     415.2875     522.0466   1426.74438     415.2875     522.0466
   1426.72913     418.1029     524.8419   1426.72913     418.1029     524.8419
   1426.71387     421.7579     527.9275   1426.71387     421.7579     527.9275
   1426.69861     423.5411     530.1870   1426.69861     423.5411     530.1870
   1426.68335     426.7427     534.0015   1426.68335     426.7427     534.0015
   1426.66809     427.9793     536.2292   1426.66809     427.9793     536.2292
   1426.65283     430.0300     538.4659   1426.65283     430.0300     538.4659
   1426.63757     433.9904     540.8000   1426.63757     433.9904     540.8000
   1426.62231     445.3440     544.7474   1426.62231     445.3440     544.7474
   1426.60706     439.4478     545.1160   1426.60706     439.4478     545.1160
   1426.59180     440.7028     548.5442   1426.59180     440.7028     548.5442
   1426.57654     442.9419     550.9236   1426.57654     442.9419     550.9236
   1426.56128     445.7344     553.6576   1426.56128     445.7344     553.6576
   1426.54602     447.8064     556.5817   1426.54602     447.8064     556.5817
   1426.53076     451.1706     558.9161   1426.53076     451.1706     558.9161
   1426.51550     452.7661     561.2792   1426.51550     452.7661     561.2792
   1426.50024     455.7658     562.5840   1426.50024     455.7658     562.5840
   1426.48499     457.6885     565.3456   1426.48499     457.6885     565.3456
   1426.46973     460.7332     567.9580   1426.46973     460.7332     567.9580
   1426.45447     462.4048     570.1071   1426.45447     462.4048     570.1071
   1426.43921     464.7856     572.9370   1426.43921     464.7856     572.9370
   1426.42395     467.5381     574.6868   1426.42395     467.5381     574.6868
   1426.40869     470.0745     577.2611   1426.40869     470.0745     577.2611
   1426.39343     473.2940     579.4457   1426.39343     473.2940     579.4457
   1426.37817     474.6795     581.1833   1426.37817     474.6795     581.1833
   1426.36292     477.4872     582.8519   1426.36292     477.4872     582.8519
   1426.34766     479.6005     585.0991   1426.34766     479.6005     585.0991
   1426.33240     481.1514     586.7764   1426.33240     481.1514     586.7764
   1426.31714     484.2328     589.0952   1426.31714     484.2328     589.0952
   1426.30188     486.9414     591.4297   1426.30188     486.9414     591.4297
   1426.28662     489.2645     592.7890   1426.28662     489.2645     592.7890
   1426.27136     491.2611     594.6649   1426.27136     491.2611     594.6649
   1426.25610     493.4072     596.3778   1426.25610     493.4072     596.3778
   1426.24084     495.6154     598.7168   1426.24084     495.6154     598.7168
   1426.22559     497.3863     599.8195   1426.22559     497.3863     599.8195
   1426.21033     499.2774     602.9141   1426.21033     499.2774     602.9141
   1426.19507     503.3423     604.4687   1426.19507     503.3423     604.4687
   1426.17981     504.3234     605.2553   1426.17981     504.3234     605.2553
   1426.16455     506.6111     607.4203   1426.16455     506.6111     607.4203
   1426.14929     508.9656     608.8018   1426.14929     508.9656     608.8018
   1426.13403     511.9951     611.1017   1426.13403     511.9951     611.1017
   1426.11877     513.2344     612.8376   1426.11877     513.2344     612.8376
   1426.10352     515.8810     613.0461   1426.10352     515.8810     613.0461
   1426.08826     517.6237     615.5253   1426.08826     517.6237     615.5253
   1426.07300     519.0275     617.3854   1426.07300     519.0275     617.3854
   1426.05774     520.9137     618.8591   1426.05774     520.9137     618.8591
   1426.04248     524.3453     620.3652   1426.04248     524.3453     620.3652
   1426.02722     525.6498     621.4807   1426.02722     525.6498     621.4807
   1426.01196     527.8150     621.4907   1426.01196     527.8150     621.4907
   1425.99670     529.4336     625.5003   1425.99670     529.4336     625.5003
   1425.98145     531.9749     624.2001   1425.98145     531.9749     624.2001
   1425.96619     533.4457     626.0883   1425.96619     533.4457     626.0883
   1425.95093     534.3306     627.4763   1425.95093     534.3306     627.4763
   1425.93567     537.3204     627.6682   1425.93567     537.3204     627.6682
   1425.92041     538.8502     629.1356   1425.92041     538.8502     629.1356
   1425.90515     540.1901     630.5657   1425.90515     540.1901     630.5657
   1425.88989     542.9728     631.2415   1425.88989     542.9728     631.2415
   1425.87463     543.6652     633.3972   1425.87463     543.6652     633.3972
   1425.85938     546.5478     634.2580   1425.85938     546.5478     634.2580
   1425.84412     548.0008     635.4564   1425.84412     548.0008     635.4564
   1425.82886     549.4824     635.1784   1425.82886     549.4824     635.1784
   1425.81360     550.9447     637.0923   1425.81360     550.9447     637.0923
   1425.79834     553.2167     637.9008   1425.79834     553.2167     637.9008
   1425.78308     556.0460     638.6712   1425.78308     556.0460     638.6712
   1425.76782     556.0981     638.7772   1425.76782     556.0981     638.7772
   1425.75256     557.4428     641.1039   1425.75256     557.4428     641.1039
   1425.73730     559.8030     641.9290   1425.73730     559.8030     641.9290
   1425.72205     561.1375     641.7780   1425.72205     561.1375     641.7780
   1425.70679     561.7587     642.2981   1425.70679     561.7587     642.2981
   1425.69153     564.0707     644.0303   1425.69153     564.0707     644.0303
   1425.67627     565.0656     644.6437   1425.67627     565.0656     644.6437
   1425.66101     566.8578     644.7139   1425.66101     566.8578     644.7139
   1425.64575     567.4091     645.4844   1425.64575     567.4091     645.4844
   1425.63049     569.5164     645.7941   1425.63049     569.5164     645.7941
   1425.61523     570.7868     647.5325   1425.61523     570.7868     647.5325
   1425.59998     572.0630     648.2662   1425.59998     572.0630     648.2662
   1425.58472     573.2405     646.9370   1425.58472     573.2405     646.9370
   1425.56946     574.8645     648.4289   1425.56946     574.8645     648.4289
   1425.55420     576.5786     647.5836   1425.55420     576.5786     647.5836
   1425.53894     576.9462     649.2352   1425.53894     576.9462     649.2352
   1425.52368     578.1722     650.0552   1425.52368     578.1722     650.0552
   1425.50842     579.6007     650.0745   1425.50842     579.6007     650.0745
   1425.49316     580.7548     650.6767   1425.49316     580.7548     650.6767
   1425.47791     581.8853     649.9645   1425.47791     581.8853     649.9645
   1425.46265     582.8684     651.0209   1425.46265     582.8684     651.0209
   1425.44739     583.9868     652.1965   1425.44739     583.9868     652.1965
   1425.43213     584.7998     652.1104   1425.43213     584.7998     652.1104
   1425.41687     586.0370     653.7752   1425.41687     586.0370     653.7752
   1425.40161     586.4886     652.4102   1425.40161     586.4886     652.4102
   1425.38635     588.3272     652.7742   1425.38635     588.3272     652.7742
   1425.37109     588.9429     652.2542   1425.37109     588.9429     652.2542
   1425.35583     589.6004     654.3246   1425.35583     589.6004     654.3246
   1425.34058     589.9999     654.2080   1425.34058     589.9999     654.2080
   1425.32532     592.0377     653.0367   1425.32532     592.0377     653.0367
   1425.31006     592.5565     653.7664   1425.31006     592.5565     653.7664
   1425.29480     593.5177     654.1487   1425.29480     593.5177     654.1487
   1425.27954     595.2923     653.8384   1425.27954     595.2923     653.8384
   1425.26428     594.6217     654.8236   1425.26428     594.6217     654.8236
   1425.24902     596.0754     654.5466   1425.24902     596.0754     654.5466
   1425.23376     596.9653     654.6763   1425.23376     596.9653     654.6763
   1425.21851     596.8524     654.6798   1425.21851     596.8524     654.6798
   1425.20325     597.4045     653.7884   1425.20325     597.4045     653.7884
   1425.18799     598.3705     654.4333   1425.18799     598.3705     654.4333
   1425.17273     598.3915     654.4382   1425.17273     598.3915     654.4382
   1425.15747     599.6129     653.3551   1425.15747     599.6129     653.3551
   1425.14221     600.0726     654.5064   1425.14221     600.0726     654.5064
   1425.12695     601.0446     653.9025   1425.12695     601.0446     653.9025
   1425.11169     601.0976     654.2499   1425.11169     601.0976     654.2499
   1425.09644     601.3726     653.0382   1425.09644     601.3726     653.0382
   1425.08118     601.8033     653.6149   1425.08118     601.8033     653.6149
   1425.06592     602.2599     653.6003   1425.06592     602.2599     653.6003
   1425.05066     603.7930     653.4664   1425.05066     603.7930     653.4664
   1425.03540     603.7670     652.1852   1425.03540     603.7670     652.1852
   1425.02014     604.6908     653.8911   1425.02014     604.6908     653.8911
   1425.00488     605.5058     652.9442   1425.00488     605.5058     652.9442
   1424.98962     605.5661     653.3539   1424.98962     605.5661     653.3539
   1424.97437     605.1047     651.8042   1424.97437     605.1047     651.8042
   1424.95911     605.6786     654.1093   1424.95911     605.6786     654.1093
   1424.94385     606.0906     651.6320   1424.94385     606.0906     651.6320
   1424.92859     606.8119     652.1782   1424.92859     606.8119     652.1782
   1424.91333     606.0037     653.1818   1424.91333     606.0037     653.1818
   1424.89807     606.5822     651.8646   1424.89807     606.5822     651.8646
   1424.88281     607.3279     650.9394   1424.88281     607.3279     650.9394
   1424.86755     606.8786     650.2856   1424.86755     606.8786     650.2856
   1424.85229     607.2790     651.2535   1424.85229     607.2790     651.2535
   1424.83704     607.4265     650.9265   1424.83704     607.4265     650.9265
   1424.82178     606.6503     649.4171   1424.82178     606.6503     649.4171
   1424.80652     607.6005     649.7770   1424.80652     607.6005     649.7770
   1424.79126     608.0484     649.3482   1424.79126     608.0484     649.3482
   1424.77600     608.6909     648.8094   1424.77600     608.6909     648.8094
   1424.76074     607.8337     649.1013   1424.76074     607.8337     649.1013
   1424.74548     608.1078     649.1870   1424.74548     608.1078     649.1870
   1424.73022     608.4937     647.2612   1424.73022     608.4937     647.2612
   1424.71497     608.5477     647.5098   1424.71497     608.5477     647.5098
   1424.69971     608.3159     646.9263   1424.69971     608.3159     646.9263
   1424.68445     607.3383     647.3702   1424.68445     607.3383     647.3702
   1424.66919     608.4149     645.9690   1424.66919     608.4149     645.9690
   1424.65393     609.0860     646.9694   1424.65393     609.0860     646.9694
   1424.63867     608.8583     645.0781   1424.63867     608.8583     645.0781
   1424.62341     608.3822     645.0709   1424.62341     608.3822     645.0709
   1424.60815     608.4056     644.4603   1424.60815     608.4056     644.4603
   1424.59290     608.5554     644.9730   1424.59290     608.5554     644.9730
   1424.57764     608.6220     643.9081   1424.57764     608.6220     643.9081
   1424.56238     608.6270     643.6072   1424.56238     608.6270     643.6072
   1424.54712     607.7685     643.3622   1424.54712     607.7685     643.3622
   1424.53186     608.5558     642.3367   1424.53186     608.5558     642.3367
   1424.51660     607.6722     642.2929   1424.51660     607.6722     642.2929
   1424.50134     607.5648     641.4380   1424.50134     607.5648     641.4380
   1424.48608     608.0977     640.3102   1424.48608     608.0977     640.3102
   1424.47083     607.3961     640.0484   1424.47083     607.3961     640.0484
   1424.45557     607.8842     639.4608   1424.45557     607.8842     639.4608
   1424.44031     607.9246     639.9499   1424.44031     607.9246     639.9499
   1424.42505     607.0515     637.9687   1424.42505     607.0515     637.9687
   1424.40979     607.0845     639.0107   1424.40979     607.0845     639.0107
   1424.39453     605.8191     638.2704   1424.39453     605.8191     638.2704
   1424.37927     606.9965     637.4792   1424.37927     606.9965     637.4792
   1424.36401     606.5239     636.6754   1424.36401     606.5239     636.6754
   1424.34875     607.1602     636.1730   1424.34875     607.1602     636.1730
   1424.33350     606.8364     634.6165   1424.33350     606.8364     634.6165
   1424.31824     605.9603     635.0629   1424.31824     605.9603     635.0629
   1424.30298     605.5045     633.6381   1424.30298     605.5045     633.6381
   1424.28772     605.7758     634.2448   1424.28772     605.7758     634.2448
   1424.27246     605.0223     632.3873   1424.27246     605.0223     632.3873
   1424.25720     604.8331     632.6760   1424.25720     604.8331     632.6760
   1424.24194     605.1814     631.6262   1424.24194     605.1814     631.6262
   1424.22668     604.3800     631.8069   1424.22668     604.3800     631.8069
   1424.21143     604.3893     630.8384   1424.21143     604.3893     630.8384
   1424.19617     604.2252     631.0584   1424.19617     604.2252     631.0584
   1424.18091     603.5745     629.8376   1424.18091     603.5745     629.8376
   1424.16565     603.0237     628.9058   1424.16565     603.0237     628.9058
   1424.15039     603.4111     628.2133   1424.15039     603.4111     628.2133
   1424.13513     603.0239     627.9802   1424.13513     603.0239     627.9802
   1424.11987     602.9083     626.3578   1424.11987     602.9083     626.3578
   1424.10461     602.4697     626.7820   1424.10461     602.4697     626.7820
   1424.08936     601.7913     625.8752   1424.08936     601.7913     625.8752
   1424.07410     601.1870     625.0293   1424.07410     601.1870     625.0293
   1424.05884     600.9610     623.1108   1424.05884     600.9610     623.1108
   1424.04358     600.4253     622.7498   1424.04358     600.4253     622.7498
   1424.02832     600.9376     623.3560   1424.02832     600.9376     623.3560
   1424.01306     599.5972     622.8310   1424.01306     599.5972     622.8310
   1423.99780     599.7744     622.1947   1423.99780     599.7744     622.1947
   1423.98254     600.0389     620.8116   1423.98254     600.0389     620.8116
   1423.96729     600.1799     620.5560   1423.96729     600.1799     620.5560
   1423.95203     599.5336     620.2452   1423.95203     599.5336     620.2452
   1423.93677     598.9219     618.7324   1423.93677     598.9219     618.7324
   1423.92151     599.3574     617.9224   1423.92151     599.3574     617.9224
   1423.90625     598.0031     617.4109   1423.90625     598.0031     617.4109
   1423.89099     596.7322     617.4012   1423.89099     596.7322     617.4012
   1423.87573     597.9037     615.6218   1423.87573     597.9037     615.6218
   1423.86047     596.3142     616.1696   1423.86047     596.3142     616.1696
   1423.84521     595.9846     615.0161   1423.84521     595.9846     615.0161
   1423.82996     596.4432     613.5513   1423.82996     596.4432     613.5513
   1423.81470     595.6179     613.5311   1423.81470     595.6179     613.5311
   1423.79944     596.1414     612.9024   1423.79944     596.1414     612.9024
   1423.78418     595.3640     612.1203   1423.78418     595.3640     612.1203
   1423.76892     595.3355     611.0805   1423.76892     595.3355     611.0805
   1423.75366     595.0749     611.1965   1423.75366     595.0749     611.1965
   1423.73840     594.0837     609.5468   1423.73840     594.0837     609.5468
   1423.72314     594.5294     609.0450   1423.72314     594.5294     609.0450
   1423.70789     593.2718     608.3281   1423.70789     593.2718     608.3281
   1423.69263     592.5876     607.1434   1423.69263     592.5876     607.1434
   1423.67737     593.5289     606.6061   1423.67737     593.5289     606.6061
   1423.66211     592.4243     605.8423   1423.66211     592.4243     605.8423
   1423.64685     592.1361     605.2922   1423.64685     592.1361     605.2922
   1423.63159     592.2557     604.2010   1423.63159     592.2557     604.2010
   1423.61633     591.1616     604.7875   1423.61633     591.1616     604.7875
   1423.60107     591.6493     602.8224   1423.60107     591.6493     602.8224
   1423.58582     590.9152     601.6226   1423.58582     590.9152     601.6226
   1423.57056     591.1292     601.7845   1423.57056     591.1292     601.7845
   1423.55530     591.7847     600.4092   1423.55530     591.7847     600.4092
   1423.54004     589.3707     599.2336   1423.54004     589.3707     599.2336
   1423.52478     589.2858     598.5798   1423.52478     589.2858     598.5798
   1423.50952     589.2648     598.7462   1423.50952     589.2648     598.7462
   1423.49426     589.5151     598.2043   1423.49426     589.5151     598.2043
   1423.47900     589.0404     596.4065   1423.47900     589.0404     596.4065
   1423.46375     588.8328     595.3674   1423.46375     588.8328     595.3674
   1423.44849     589.0985     594.4246   1423.44849     589.0985     594.4246
   1423.43323     586.8110     594.4012   1423.43323     586.8110     594.4012
   1423.41797     587.0141     593.9363   1423.41797     587.0141     593.9363
   1423.40271     586.8191     592.8626   1423.40271     586.8191     592.8626
   1423.38745     586.8288     591.9703   1423.38745     586.8288     591.9703
   1423.37219     587.0269     591.6399   1423.37219     587.0269     591.6399
   1423.35693     585.4155     590.1240   1423.35693     585.4155     590.1240
   1423.34167     584.8026     590.2005   1423.34167     584.8026     590.2005
   1423.32642     584.8361     588.1367   1423.32642     584.8361     588.1367
   1423.31116     585.3914     588.5630   1423.31116     585.3914     588.5630
   1423.29590     585.4172     586.7764   1423.29590     585.4172     586.7764
   1423.28064     584.6406     586.3176   1423.28064     584.6406     586.3176
   1423.26538     584.8804     586.3613   1423.26538     584.8804     586.3613
   1423.25012     582.8940     585.0856   1423.25012     582.8940     585.0856
   1423.23486     583.4037     583.4769   1423.23486     583.4037     583.4769
   1423.21960     584.3265     583.2675   1423.21960     584.3265     583.2675
   1423.20435     583.2094     581.7691   1423.20435     583.2094     581.7691
   1423.18909     583.1591     580.7648   1423.18909     583.1591     580.7648
   1423.17383     583.1804     580.8267   1423.17383     583.1804     580.8267
   1423.15857     582.8500     580.1412   1423.15857     582.8500     580.1412
   1423.14331     582.0004     578.0824   1423.14331     582.0004     578.0824
   1423.12805     583.3499     577.3735   1423.12805     583.3499     577.3735
   1423.11279     581.3524     577.1893   1423.11279     581.3524     577.1893
   1423.09753     582.1196     576.2546   1423.09753     582.1196     576.2546
   1423.08228     581.0639     575.2585   1423.08228     581.0639     575.2585
   1423.06702     582.4778     574.4728   1423.06702     582.4778     574.4728
   1423.05176     580.9016     573.7421   1423.05176     580.9016     573.7421
   1423.03650     580.5040     573.5862   1423.03650     580.5040     573.5862
   1423.02124     581.0710     572.8068   1423.02124     581.0710     572.8068
   1423.00598     579.3391     571.0381   1423.00598     579.3391     571.0381
   1422.99072     580.8705     570.0739   1422.99072     580.8705     570.0739
   1422.97546     580.4723     569.4437   1422.97546     580.4723     569.4437
   1422.96021     579.3605     567.7167   1422.96021     579.3605     567.7167
   1422.94495     579.9829     567.8888   1422.94495     579.9829     567.8888
   1422.92969     578.0114     566.5400   1422.92969     578.0114     566.5400
   1422.91443     578.8440     566.5984   1422.91443     578.8440     566.5984
   1422.89917     578.9988     565.1965   1422.89917     578.9988     565.1965
   1422.88391     577.4930     564.3890   1422.88391     577.4930     564.3890
   1422.86865     577.3630     562.7331   1422.86865     577.3630     562.7331
   1422.85339     577.7563     563.2106   1422.85339     577.7563     563.2106
   1422.83813     577.1999     561.3983   1422.83813     577.1999     561.3983
   1422.82288     577.0162     560.5633   1422.82288     577.0162     560.5633
   1422.80762     577.1570     559.6895   1422.80762     577.1570     559.6895
   1422.79236     576.8949     559.1113   1422.79236     576.8949     559.1113
   1422.77710     576.8292     557.4984   1422.77710     576.8292     557.4984
   1422.76184     576.6225     556.7422   1422.76184     576.6225     556.7422
   1422.74658     577.3997     557.1230   1422.74658     577.3997     557.1230
   1422.73132     576.9310     555.1041   1422.73132     576.9310     555.1041
   1422.71606     576.7827     554.2443   1422.71606     576.7827     554.2443
   1422.70081     576.3739     553.5681   1422.70081     576.3739     553.5681
   1422.68555     577.0005     552.4047   1422.68555     577.0005     552.4047
   1422.67029     575.1455     552.3320   1422.67029     575.1455     552.3320
   1422.65503     575.7910     550.8596   1422.65503     575.7910     550.8596
   1422.63977     575.2042     550.1940   1422.63977     575.2042     550.1940
   1422.62451     576.3140     549.0554   1422.62451     576.3140     549.0554
   1422.60925     575.6731     546.9545   1422.60925     575.6731     546.9545
   1422.59399     575.2078     546.9036   1422.59399     575.2078     546.9036
   1422.57874     574.2313     545.5282   1422.57874     574.2313     545.5282
   1422.56348     575.9484     545.3399   1422.56348     575.9484     545.3399
   1422.54822     575.4093     544.1384   1422.54822     575.4093     544.1384
   1422.53296     575.2454     544.3217   1422.53296     575.2454     544.3217
   1422.51770     574.7456     542.8445   1422.51770     574.7456     542.8445
   1422.50244     573.8162     541.5384   1422.50244     573.8162     541.5384
   1422.48718     573.9908     540.9341   1422.48718     573.9908     540.9341
   1422.47192     574.5540     540.0472   1422.47192     574.5540     540.0472
   1422.45667     573.8431     537.5494   1422.45667     573.8431     537.5494
   1422.44141     573.6309     538.3247   1422.44141     573.6309     538.3247
   1422.42615     573.1833     536.8942   1422.42615     573.1833     536.8942
   1422.41089     573.0333     536.5421   1422.41089     573.0333     536.5421
   1422.39563     573.4461     534.8723   1422.39563     573.4461     534.8723
   1422.38037     573.3738     534.1057   1422.38037     573.3738     534.1057
   1422.36511     573.0422     533.9698   1422.36511     573.0422     533.9698
   1422.34985     573.1132     532.7005   1422.34985     573.1132     532.7005
   1422.33459     573.5225     531.0437   1422.33459     573.5225     531.0437
   1422.31934     572.5488     530.2374   1422.31934     572.5488     530.2374
   1422.30408     572.6840     529.8033   1422.30408     572.6840     529.8033
   1422.28882     573.5178     528.0361   1422.28882     573.5178     528.0361
   1422.27356     572.9373     528.1099   1422.27356     572.9373     528.1099
   1422.25830     572.0161     527.2857   1422.25830     572.0161     527.2857
   1422.24304     573.3149     525.7793   1422.24304     573.3149     525.7793
   1422.22778     572.9634     525.4291   1422.22778     572.9634     525.4291
   1422.21252     571.9556     524.9273   1422.21252     571.9556     524.9273
   1422.19727     572.0326     523.5994   1422.19727     572.0326     523.5994
   1422.18201     571.4542     523.5998   1422.18201     571.4542     523.5998
   1422.16675     572.3066     522.1342   1422.16675     572.3066     522.1342
   1422.15149     572.4999     520.8267   1422.15149     572.4999     520.8267
   1422.13623     572.8484     520.7206   1422.13623     572.8484     520.7206
   1422.12097     571.6418     519.0985   1422.12097     571.6418     519.0985
   1422.10571     570.7332     518.0433   1422.10571     570.7332     518.0433
   1422.09045     570.9182     517.4464   1422.09045     570.9182     517.4464
   1422.07520     571.6266     515.8754   1422.07520     571.6266     515.8754
   1422.05994     571.5973     515.6469   1422.05994     571.5973     515.6469
   1422.04468     571.0128     514.4765   1422.04468     571.0128     514.4765
   1422.02942     572.1097     512.3812   1422.02942     572.1097     512.3812
   1422.01416     571.1550     512.6595   1422.01416     571.1550     512.6595
   1421.99890     572.1617     511.2676   1421.99890     572.1617     511.2676
   1421.98364     571.1957     510.5361   1421.98364     571.1957     510.5361
   1421.96838     570.6684     509.5900   1421.96838     570.6684     509.5900
   1421.95312     570.9098     508.9664   1421.95312     570.9098     508.9664
   1421.93787     570.7805     507.4117   1421.93787     570.7805     507.4117
   1421.92261     570.8812     506.7617   1421.92261     570.8812     506.7617
   1421.90735     570.4415     505.3689   1421.90735     570.4415     505.3689
   1421.89209     571.0004     505.5664   1421.89209     571.0004     505.5664
   1421.87683     571.1036     504.0352   1421.87683     571.1036     504.0352
   1421.86157     570.5032     503.1499   1421.86157     570.5032     503.1499
   1421.84631     570.1932     502.0224   1421.84631     570.1932     502.0224
   1421.83105     570.6008     500.7531   1421.83105     570.6008     500.7531
   1421.81580     569.9680     500.5402   1421.81580     569.9680     500.5402
   1421.80054     570.5264     499.5811   1421.80054     570.5264     499.5811
   1421.78528     570.6158     498.5310   1421.78528     570.6158     498.5310
   1421.77002     570.4467     497.7509   1421.77002     570.4467     497.7509
   1421.75476     570.6090     496.3356   1421.75476     570.6090     496.3356
   1421.73950     569.6092     495.6085   1421.73950     569.6092     495.6085
   1421.72424     570.1425     494.5245   1421.72424     570.1425     494.5245
   1421.70898     569.4535     493.4606   1421.70898     569.4535     493.4606
   1421.69373     569.1680     492.8031   1421.69373     569.1680     492.8031
   1421.67847     569.7145     492.0011   1421.67847     569.7145     492.0011
   1421.66321     570.4363     491.4261   1421.66321     570.4363     491.4261
   1421.64795     570.0679     490.7221   1421.64795     570.0679     490.7221
   1421.63269     569.4493     489.8560   1421.63269     569.4493     489.8560
   1421.61743     569.7471     488.4492   1421.61743     569.7471     488.4492
   1421.60217     569.2021     487.7248   1421.60217     569.2021     487.7248
   1421.58691     569.2224     487.3314   1421.58691     569.2224     487.3314
   1421.57166     570.0531     486.6430   1421.57166     570.0531     486.6430
   1421.55640     570.0206     484.6531   1421.55640     570.0206     484.6531
   1421.54114     569.1758     483.4054   1421.54114     569.1758     483.4054
   1421.52588     569.6332     483.3465   1421.52588     569.6332     483.3465
   1421.51062     568.6542     482.2273   1421.51062     568.6542     482.2273
   1421.49536     569.2598     480.9854   1421.49536     569.2598     480.9854
   1421.48010     569.0444     479.5251   1421.48010     569.0444     479.5251
   1421.46484     569.0435     479.2246   1421.46484     569.0435     479.2246
   1421.44958     568.7230     478.3733   1421.44958     568.7230     478.3733
   1421.43433     569.2966     477.4113   1421.43433     569.2966     477.4113
   1421.41907     568.0930     476.1215   1421.41907     568.0930     476.1215
   1421.40381     568.6320     476.0299   1421.40381     568.6320     476.0299
   1421.38855     568.9093     474.8721   1421.38855     568.9093     474.8721
   1421.37329     568.5524     473.7787   1421.37329     568.5524     473.7787
   1421.35803     568.2450     472.6833   1421.35803     568.2450     472.6833
   1421.34277     568.0822     472.6628   1421.34277     568.0822     472.6628
   1421.32751     567.8779     471.7274   1421.32751     567.8779     471.7274
   1421.31226     568.5417     470.4731   1421.31226     568.5417     470.4731
   1421.29700     567.9576     469.3914   1421.29700     567.9576     469.3914
   1421.28174     566.8852     468.4889   1421.28174     566.8852     468.4889
   1421.26648     567.5208     467.3459   1421.26648     567.5208     467.3459
   1421.25122     568.8638     467.1605   1421.25122     568.8638     467.1605
   1421.23596     568.6567     465.3918   1421.23596     568.6567     465.3918
   1421.22070     567.3857     464.2175   1421.22070     567.3857     464.2175
   1421.20544     567.7159     463.9908   1421.20544     567.7159     463.9908
   1421.19019     566.7542     463.0221   1421.19019     566.7542     463.0221
   1421.17493     566.4966     462.1580   1421.17493     566.4966     462.1580
   1421.15967     567.1058     462.2096   1421.15967     567.1058     462.2096
   1421.14441     566.0621     460.7582   1421.14441     566.0621     460.7582
   1421.12915     566.5909     459.6443   1421.12915     566.5909     459.6443
   1421.11389     567.2909     459.0494   1421.11389     567.2909     459.0494
   1421.09863     566.8505     458.5962   1421.09863     566.8505     458.5962
   1421.08337     566.9734     457.3162   1421.08337     566.9734     457.3162
   1421.06812     566.7629     456.8607   1421.06812     566.7629     456.8607
   1421.05286     566.4336     456.1750   1421.05286     566.4336     456.1750
   1421.03760     567.2431     455.1877   1421.03760     567.2431     455.1877
   1421.02234     566.5756     454.0295   1421.02234     566.5756     454.0295
   1421.00708     567.0775     453.8191   1421.00708     567.0775     453.8191
   1420.99182     566.8748     452.5697   1420.99182     566.8748     452.5697
   1420.97656     567.0427     452.7048   1420.97656     567.0427     452.7048
   1420.96130     567.5387     451.9823   1420.96130     567.5387     451.9823
   1420.94604     567.3275     451.3750   1420.94604     567.3275     451.3750
   1420.93079     566.8778     450.2390   1420.93079     566.8778     450.2390
   1420.91553     567.8831     450.2960   1420.91553     567.8831     450.2960
   1420.90027     567.6145     448.4646   1420.90027     567.6145     448.4646
   1420.88501     567.8301     447.4044   1420.88501     567.8301     447.4044
   1420.86975     567.5689     448.1219   1420.86975     567.5689     448.1219
   1420.85449     566.3605     446.3386   1420.85449     566.3605     446.3386
   1420.83923     567.0508     445.4628   1420.83923     567.0508     445.4628
   1420.82397     566.3209     444.3820   1420.82397     566.3209     444.3820
   1420.80872     566.9623     443.5635   1420.80872     566.9623     443.5635
   1420.79346     566.8938     443.8520   1420.79346     566.8938     443.8520
   1420.77820     568.6005     443.2888   1420.77820     568.6005     443.2888
   1420.76294     568.0160     442.6299   1420.76294     568.0160     442.6299
   1420.74768     568.3636     441.5652   1420.74768     568.3636     441.5652
   1420.73242     568.7939     441.5145   1420.73242     568.7939     441.5145
   1420.71716     570.0128     441.6501   1420.71716     570.0128     441.6501
   1420.70190     570.9782     441.8934   1420.70190     570.9782     441.8934
   1420.68665     571.6844     442.7278   1420.68665     571.6844     442.7278
   1420.67139     574.2516     442.6377   1420.67139     574.2516     442.6377
   1420.65613     579.0840     446.3909   1420.65613     579.0840     446.3909
   1420.64087     586.3383     450.7222   1420.64087     586.3383     450.7222
   1420.62561     597.1018     457.7999   1420.62561     597.1018     457.7999
   1420.61035     613.0569     468.3582   1420.61035     613.0569     468.3582
   1420.59509     629.6730     481.3299   1420.59509     629.6730     481.3299
   1420.57983     646.4604     491.7942   1420.57983     646.4604     491.7942
   1420.56458     672.1406     511.4529   1420.56458     672.1406     511.4529
   1420.54932     697.7479     530.0824   1420.54932     697.7479     530.0824
   1420.53406     724.1561     548.2393   1420.53406     724.1561     548.2393
   1420.51880     806.9206     609.0048   1420.51880     806.9206     609.0048
   1420.50354     973.3767     731.4172   1420.50354     973.3767     731.4172
   1420.48828    1226.0322     915.2574   1420.48828    1226.0322     915.2574
   1420.47302    1363.1234    1013.1064   1420.47302    1363.1234    1013.1064
   1420.45776    1470.7881    1090.9041   1420.45776    1470.7881    1090.9041
   1420.44250    1583.4735    1174.1248   1420.44250    1583.4735    1174.1248
   1420.42725    1527.8167    1130.2538   1420.42725    1527.8167    1130.2538
   1420.41199    1383.4384    1023.9836   1420.41199    1383.4384    1023.9836
   1420.39673    1310.9326     969.5872   1420.39673    1310.9326     969.5872
   1420.38147    1391.0160    1028.8757   1420.38147    1391.0160    1028.8757
   1420.36621    1538.3341    1132.5071   1420.36621    1538.3341    1132.5071
   1420.35095    1560.1981    1146.8168   1420.35095    1560.1981    1146.8168
   1420.33569    1436.1038    1054.4740   1420.33569    1436.1038    1054.4740
   1420.32043    1399.2843    1024.3033   1420.32043    1399.2843    1024.3033
   1420.30518    1165.6749     856.9808   1420.30518    1165.6749     856.9808
   1420.28992     968.8456     712.1640   1420.28992     968.8456     712.1640
   1420.27466     758.8933     559.9929   1420.27466     758.8933     559.9929
   1420.25940     659.1902     487.1465   1420.25940     659.1902     487.1465
   1420.24414     614.8575     454.7461   1420.24414     614.8575     454.7461
   1420.22888     593.4520     438.3373   1420.22888     593.4520     438.3373
   1420.21362     581.0244     428.2938   1420.21362     581.0244     428.2938
   1420.19836     573.5073     422.6814   1420.19836     573.5073     422.6814
   1420.18311     569.5607     418.5098   1420.18311     569.5607     418.5098
   1420.16785     566.5547     416.7587   1420.16785     566.5547     416.7587
   1420.15259     564.0723     414.1828   1420.15259     564.0723     414.1828
   1420.13733     562.3527     412.8189   1420.13733     562.3527     412.8189
   1420.12207     561.7319     410.1131   1420.12207     561.7319     410.1131
   1420.10681     559.9593     408.8731   1420.10681     559.9593     408.8731
   1420.09155     559.6304     407.9665   1420.09155     559.6304     407.9665
   1420.07629     558.2953     406.4237   1420.07629     558.2953     406.4237
   1420.06104     557.5760     405.5396   1420.06104     557.5760     405.5396
   1420.04578     557.3495     403.8838   1420.04578     557.3495     403.8838
   1420.03052     556.6602     403.9050   1420.03052     556.6602     403.9050
   1420.01526     557.7496     404.2285   1420.01526     557.7496     404.2285
   1420.00000     558.1565     404.1896   1420.00000     558.1565     404.1896
   1419.98474     558.5634     404.1508   1419.98474     558.5634     404.1508
   1419.96948     558.8321     403.0511   1419.96948     558.8321     403.0511
   1419.95422     556.0751     400.7780   1419.95422     556.0751     400.7780
   1419.93896     556.4062     400.6381   1419.93896     556.4062     400.6381
   1419.92371     555.2894     399.6201   1419.92371     555.2894     399.6201
   1419.90845     555.6697     398.4590   1419.90845     555.6697     398.4590
   1419.89319     555.8114     398.7552   1419.89319     555.8114     398.7552
   1419.87793     555.6134     398.0000   1419.87793     555.6134     398.0000
   1419.86267     556.0042     397.0919   1419.86267     556.0042     397.0919
   1419.84741     556.1880     396.8748   1419.84741     556.1880     396.8748
   1419.83215     555.3986     396.0962   1419.83215     555.3986     396.0962
   1419.81689     555.6656     395.6251   1419.81689     555.6656     395.6251
   1419.80164     555.7087     394.0688   1419.80164     555.7087     394.0688
   1419.78638     555.7012     394.5945   1419.78638     555.7012     394.5945
   1419.77112     554.7806     393.5770   1419.77112     554.7806     393.5770
   1419.75586     555.9882     392.9105   1419.75586     555.9882     392.9105
   1419.74060     555.1617     393.0763   1419.74060     555.1617     393.0763
   1419.72534     555.1941     392.4878   1419.72534     555.1941     392.4878
   1419.71008     556.0257     391.8029   1419.71008     556.0257     391.8029
   1419.69482     556.0486     391.9195   1419.69482     556.0486     391.9195
   1419.67957     556.5973     391.6188   1419.67957     556.5973     391.6188
   1419.66431     555.5811     390.6994   1419.66431     555.5811     390.6994
   1419.64905     555.5656     391.3022   1419.64905     555.5656     391.3022
   1419.63379     556.7969     389.9134   1419.63379     556.7969     389.9134
   1419.61853     556.4371     390.0466   1419.61853     556.4371     390.0466
   1419.60327     556.3273     389.6967   1419.60327     556.3273     389.6967
   1419.58801     556.1899     389.1047   1419.58801     556.1899     389.1047
   1419.57275     556.2456     389.0401   1419.57275     556.2456     389.0401
   1419.55750     556.3267     388.6221   1419.55750     556.3267     388.6221
   1419.54224     556.5912     387.4710   1419.54224     556.5912     387.4710
   1419.52698     556.8718     387.9808   1419.52698     556.8718     387.9808
   1419.51172     556.9085     387.7964   1419.51172     556.9085     387.7964
   1419.49646     557.0685     386.5997   1419.49646     557.0685     386.5997
   1419.48120     558.2079     386.8210   1419.48120     558.2079     386.8210
   1419.46594     557.0843     386.9630   1419.46594     557.0843     386.9630
   1419.45068     557.6767     386.6606   1419.45068     557.6767     386.6606
   1419.43542     558.4005     385.5534   1419.43542     558.4005     385.5534
   1419.42017     557.9199     385.5592   1419.42017     557.9199     385.5592
   1419.40491     557.5164     385.6959   1419.40491     557.5164     385.6959
   1419.38965     559.1163     385.4048   1419.38965     559.1163     385.4048
   1419.37439     558.3974     384.5734   1419.37439     558.3974     384.5734
   1419.35913     558.9296     385.0014   1419.35913     558.9296     385.0014
   1419.34387     558.3931     384.8385   1419.34387     558.3931     384.8385
   1419.32861     558.7863     383.5238   1419.32861     558.7863     383.5238
   1419.31335     559.2209     383.7982   1419.31335     559.2209     383.7982
   1419.29810     558.9600     383.8914   1419.29810     558.9600     383.8914
   1419.28284     559.8214     383.7104   1419.28284     559.8214     383.7104
   1419.26758     559.2129     383.7644   1419.26758     559.2129     383.7644
   1419.25232     558.7453     383.4149   1419.25232     558.7453     383.4149
   1419.23706     559.4410     383.0361   1419.23706     559.4410     383.0361
   1419.22180     559.8063     383.3101   1419.22180     559.8063     383.3101
   1419.20654     561.1140     383.2203   1419.20654     561.1140     383.2203
   1419.19128     560.1374     382.4942   1419.19128     560.1374     382.4942
   1419.17603     560.9555     382.0223   1419.17603     560.9555     382.0223
   1419.16077     560.6828     383.1427   1419.16077     560.6828     383.1427
   1419.14551     562.1976     382.9973   1419.14551     562.1976     382.9973
   1419.13025     561.8339     382.3872   1419.13025     561.8339     382.3872
   1419.11499     561.3046     382.4975   1419.11499     561.3046     382.4975
   1419.09973     562.5342     382.6075   1419.09973     562.5342     382.6075
   1419.08447     562.4458     382.1217   1419.08447     562.4458     382.1217
   1419.06921     561.4826     382.1044   1419.06921     561.4826     382.1044
   1419.05396     562.4037     382.6637   1419.05396     562.4037     382.6637
   1419.03870     563.0557     381.7215   1419.03870     563.0557     381.7215
   1419.02344     563.7818     382.0874   1419.02344     563.7818     382.0874
   1419.00818     563.7983     381.9592   1419.00818     563.7983     381.9592
   1418.99292     563.5175     382.2442   1418.99292     563.5175     382.2442
   1418.97766     564.3417     381.9089   1418.97766     564.3417     381.9089
   1418.96240     565.1125     382.2980   1418.96240     565.1125     382.2980
   1418.94714     563.5161     382.0460   1418.94714     563.5161     382.0460
   1418.93188     564.5001     382.1093   1418.93188     564.5001     382.1093
   1418.91663     565.8704     383.0267   1418.91663     565.8704     383.0267
   1418.90137     565.5153     382.2354   1418.90137     565.5153     382.2354
   1418.88611     567.2256     382.9594   1418.88611     567.2256     382.9594
   1418.87085     565.9536     382.6796   1418.87085     565.9536     382.6796
   1418.85559     566.0503     382.9379   1418.85559     566.0503     382.9379
   1418.84033     566.8218     382.8594   1418.84033     566.8218     382.8594
   1418.82507     567.3740     382.5921   1418.82507     567.3740     382.5921
   1418.80981     567.9064     383.0993   1418.80981     567.9064     383.0993
   1418.79456     568.5002     382.7293   1418.79456     568.5002     382.7293
   1418.77930     567.8654     383.0873   1418.77930     567.8654     383.0873
   1418.76404     568.6536     383.7956   1418.76404     568.6536     383.7956
   1418.74878     569.8438     384.0280   1418.74878     569.8438     384.0280
   1418.73352     569.7165     384.2421   1418.73352     569.7165     384.2421
   1418.71826     570.0717     384.2975   1418.71826     570.0717     384.2975
   1418.70300     570.4240     384.2939   1418.70300     570.4240     384.2939
   1418.68774     569.7704     384.5281   1418.68774     569.7704     384.5281
   1418.67249     570.0896     384.1155   1418.67249     570.0896     384.1155
   1418.65723     571.9819     384.9873   1418.65723     571.9819     384.9873
   1418.64197     571.3419     385.0987   1418.64197     571.3419     385.0987
   1418.62671     572.1924     384.9906   1418.62671     572.1924     384.9906
   1418.61145     571.5250     385.1180   1418.61145     571.5250     385.1180
   1418.59619     572.2945     385.8459   1418.59619     572.2945     385.8459
   1418.58093     572.9144     385.9193   1418.58093     572.9144     385.9193
   1418.56567     573.1412     386.2798   1418.56567     573.1412     386.2798
   1418.55042     573.8018     386.2737   1418.55042     573.8018     386.2737
   1418.53516     574.9321     386.4532   1418.53516     574.9321     386.4532
   1418.51990     574.2817     387.4371   1418.51990     574.2817     387.4371
   1418.50464     574.7888     387.7304   1418.50464     574.7888     387.7304
   1418.48938     576.0221     388.3220   1418.48938     576.0221     388.3220
   1418.47412     576.8810     388.4352   1418.47412     576.8810     388.4352
   1418.45886     576.6021     388.3946   1418.45886     576.6021     388.3946
   1418.44360     577.5100     388.7986   1418.44360     577.5100     388.7986
   1418.42834     577.6263     389.5600   1418.42834     577.6263     389.5600
   1418.41309     577.8700     389.6760   1418.41309     577.8700     389.6760
   1418.39783     579.1269     390.0833   1418.39783     579.1269     390.0833
   1418.38257     578.0436     390.3964   1418.38257     578.0436     390.3964
   1418.36731     577.8020     390.7661   1418.36731     577.8020     390.7661
   1418.35205     579.9481     391.4642   1418.35205     579.9481     391.4642
   1418.33679     580.2346     391.8177   1418.33679     580.2346     391.8177
   1418.32153     580.7292     392.0593   1418.32153     580.7292     392.0593
   1418.30627     581.7110     393.3291   1418.30627     581.7110     393.3291
   1418.29102     581.8433     393.2088   1418.29102     581.8433     393.2088
   1418.27576     582.0306     394.1336   1418.27576     582.0306     394.1336
   1418.26050     582.9975     394.5782   1418.26050     582.9975     394.5782
   1418.24524     583.8362     394.2128   1418.24524     583.8362     394.2128
   1418.22998     583.6137     395.2402   1418.22998     583.6137     395.2402
   1418.21472     583.9739     396.2096   1418.21472     583.9739     396.2096
   1418.19946     585.6536     396.7338   1418.19946     585.6536     396.7338
   1418.18420     585.8742     396.7173   1418.18420     585.8742     396.7173
   1418.16895     585.3176     397.7164   1418.16895     585.3176     397.7164
   1418.15369     586.1546     397.2608   1418.15369     586.1546     397.2608
   1418.13843     586.6510     397.6588   1418.13843     586.6510     397.6588
   1418.12317     587.0629     398.8686   1418.12317     587.0629     398.8686
   1418.10791     588.5966     398.9264   1418.10791     588.5966     398.9264
   1418.09265     588.1108     400.8468   1418.09265     588.1108     400.8468
   1418.07739     589.1595     399.9764   1418.07739     589.1595     399.9764
   1418.06213     588.7950     401.3676   1418.06213     588.7950     401.3676
   1418.04688     590.5850     401.9878   1418.04688     590.5850     401.9878
   1418.03162     590.8019     402.6645   1418.03162     590.8019     402.6645
   1418.01636     591.0883     403.2371   1418.01636     591.0883     403.2371
   1418.00110     591.8094     404.2237   1418.00110     591.8094     404.2237
   1417.98584     591.3683     404.5202   1417.98584     591.3683     404.5202
   1417.97058     593.5284     404.9584   1417.97058     593.5284     404.9584
   1417.95532     592.6293     405.9150   1417.95532     592.6293     405.9150
   1417.94006     593.1985     406.6524   1417.94006     593.1985     406.6524
   1417.92480     594.1348     407.1187   1417.92480     594.1348     407.1187
   1417.90955     595.1025     407.9247   1417.90955     595.1025     407.9247
   1417.89429     596.0394     409.3079   1417.89429     596.0394     409.3079
   1417.87903     595.5394     409.4417   1417.87903     595.5394     409.4417
   1417.86377     596.9791     410.4287   1417.86377     596.9791     410.4287
   1417.84851     596.6131     410.9645   1417.84851     596.6131     410.9645
   1417.83325     597.9687     411.5101   1417.83325     597.9687     411.5101
   1417.81799     598.3226     412.0853   1417.81799     598.3226     412.0853
   1417.80273     599.1839     413.0409   1417.80273     599.1839     413.0409
   1417.78748     598.9583     413.9690   1417.78748     598.9583     413.9690
   1417.77222     600.7079     415.0746   1417.77222     600.7079     415.0746
   1417.75696     600.9415     415.9953   1417.75696     600.9415     415.9953
   1417.74170     600.9992     417.1258   1417.74170     600.9992     417.1258
   1417.72644     601.2501     417.0360   1417.72644     601.2501     417.0360
   1417.71118     602.5876     418.2781   1417.71118     602.5876     418.2781
   1417.69592     602.6710     418.9421   1417.69592     602.6710     418.9421
   1417.68066     602.7433     419.3247   1417.68066     602.7433     419.3247
   1417.66541     604.3488     420.8843   1417.66541     604.3488     420.8843
   1417.65015     604.4742     421.2560   1417.65015     604.4742     421.2560
   1417.63489     605.2375     422.8788   1417.63489     605.2375     422.8788
   1417.61963     605.1441     423.1017   1417.61963     605.1441     423.1017
   1417.60437     606.2259     424.3104   1417.60437     606.2259     424.3104
   1417.58911     605.7327     425.3561   1417.58911     605.7327     425.3561
   1417.57385     607.0413     426.1030   1417.57385     607.0413     426.1030
   1417.55859     607.6290     426.7821   1417.55859     607.6290     426.7821
   1417.54333     607.5850     428.2206   1417.54333     607.5850     428.2206
   1417.52808     608.3951     429.8165   1417.52808     608.3951     429.8165
   1417.51282     609.7219     429.6737   1417.51282     609.7219     429.6737
   1417.49756     609.1880     430.8366   1417.49756     609.1880     430.8366
   1417.48230     610.3497     432.6243   1417.48230     610.3497     432.6243
   1417.46704     609.6995     433.3771   1417.46704     609.6995     433.3771
   1417.45178     610.7033     433.1799   1417.45178     610.7033     433.1799
   1417.43652     611.9549     434.3106   1417.43652     611.9549     434.3106
   1417.42126     612.5287     435.4294   1417.42126     612.5287     435.4294
   1417.40601     613.3215     437.1554   1417.40601     613.3215     437.1554
   1417.39075     613.9161     437.7464   1417.39075     613.9161     437.7464
   1417.37549     613.6710     438.7635   1417.37549     613.6710     438.7635
   1417.36023     614.4813     439.1050   1417.36023     614.4813     439.1050
   1417.34497     615.2426     440.3911   1417.34497     615.2426     440.3911
   1417.32971     614.8217     441.3640   1417.32971     614.8217     441.3640
   1417.31445     615.5990     441.1277   1417.31445     615.5990     441.1277
   1417.29919     616.3265     442.7087   1417.29919     616.3265     442.7087
   1417.28394     617.3336     443.6718   1417.28394     617.3336     443.6718
   1417.26868     617.4848     444.7445   1417.26868     617.4848     444.7445
   1417.25342     617.5523     445.6911   1417.25342     617.5523     445.6911
   1417.23816     617.7388     446.9560   1417.23816     617.7388     446.9560
   1417.22290     618.7716     448.0575   1417.22290     618.7716     448.0575
   1417.20764     620.0217     448.7378   1417.20764     620.0217     448.7378
   1417.19238     619.2056     449.9512   1417.19238     619.2056     449.9512
   1417.17712     619.8169     451.2519   1417.17712     619.8169     451.2519
   1417.16187     619.1661     451.5907   1417.16187     619.1661     451.5907
   1417.14661     620.1740     452.8362   1417.14661     620.1740     452.8362
   1417.13135     620.8990     454.5330   1417.13135     620.8990     454.5330
   1417.11609     621.2220     454.2310   1417.11609     621.2220     454.2310
   1417.10083     620.8288     456.2060   1417.10083     620.8288     456.2060
   1417.08557     622.9410     457.1743   1417.08557     622.9410     457.1743
   1417.07031     621.8385     457.9529   1417.07031     621.8385     457.9529
   1417.05505     622.8806     458.9993   1417.05505     622.8806     458.9993
   1417.03979     623.1783     460.0831   1417.03979     623.1783     460.0831
   1417.02454     623.6365     460.8686   1417.02454     623.6365     460.8686
   1417.00928     624.1462     462.1121   1417.00928     624.1462     462.1121
   1416.99402     624.1934     463.1182   1416.99402     624.1934     463.1182
   1416.97876     624.0116     464.4324   1416.97876     624.0116     464.4324
   1416.96350     624.0092     464.0163   1416.96350     624.0092     464.0163
   1416.94824     624.6025     465.5800   1416.94824     624.6025     465.5800
   1416.93298     625.1737     466.1516   1416.93298     625.1737     466.1516
   1416.91772     625.5072     467.1253   1416.91772     625.5072     467.1253
   1416.90247     625.9858     468.7407   1416.90247     625.9858     468.7407
   1416.88721     626.5822     469.6500   1416.88721     626.5822     469.6500
   1416.87195     626.7055     470.2389   1416.87195     626.7055     470.2389
   1416.85669     626.4395     470.4489   1416.85669     626.4395     470.4489
   1416.84143     627.0653     471.9906   1416.84143     627.0653     471.9906
   1416.82617     626.9584     473.4060   1416.82617     626.9584     473.4060
   1416.81091     627.8613     474.4501   1416.81091     627.8613     474.4501
   1416.79565     627.1533     475.5955   1416.79565     627.1533     475.5955
   1416.78040     628.2466     475.0791   1416.78040     628.2466     475.0791
   1416.76514     628.2249     476.2388   1416.76514     628.2249     476.2388
   1416.74988     628.6297     477.6881   1416.74988     628.6297     477.6881
   1416.73462     627.5664     478.1636   1416.73462     627.5664     478.1636
   1416.71936     628.4233     478.4495   1416.71936     628.4233     478.4495
   1416.70410     628.5734     479.2816   1416.70410     628.5734     479.2816
   1416.68884     628.6458     480.5561   1416.68884     628.6458     480.5561
   1416.67358     628.8141     480.9545   1416.67358     628.8141     480.9545
   1416.65833     629.3955     481.7962   1416.65833     629.3955     481.7962
   1416.64307     630.0482     483.8150   1416.64307     630.0482     483.8150
   1416.62781     630.2562     483.2447   1416.62781     630.2562     483.2447
   1416.61255     629.9432     484.8097   1416.61255     629.9432     484.8097
   1416.59729     629.6003     485.3579   1416.59729     629.6003     485.3579
   1416.58203     630.4448     486.1003   1416.58203     630.4448     486.1003
   1416.56677     629.3181     487.3029   1416.56677     629.3181     487.3029
   1416.55151     629.2793     487.1018   1416.55151     629.2793     487.1018
   1416.53625     630.5826     488.7520   1416.53625     630.5826     488.7520
   1416.52100     629.5002     488.7139   1416.52100     629.5002     488.7139
   1416.50574     628.8802     489.4791   1416.50574     628.8802     489.4791
   1416.49048     630.5162     489.9164   1416.49048     630.5162     489.9164
   1416.47522     630.1609     491.3847   1416.47522     630.1609     491.3847
   1416.45996     629.6949     491.2361   1416.45996     629.6949     491.2361
   1416.44470     630.4877     492.0437   1416.44470     630.4877     492.0437
   1416.42944     630.2737     492.1577   1416.42944     630.2737     492.1577
   1416.41418     630.9428     492.8598   1416.41418     630.9428     492.8598
   1416.39893     629.7147     493.2021   1416.39893     629.7147     493.2021
   1416.38367     629.5895     494.2261   1416.38367     629.5895     494.2261
   1416.36841     628.4426     495.0649   1416.36841     628.4426     495.0649
   1416.35315     629.8102     494.1010   1416.35315     629.8102     494.1010
   1416.33789     629.7823     495.6215   1416.33789     629.7823     495.6215
   1416.32263     629.9193     496.0399   1416.32263     629.9193     496.0399
   1416.30737     628.7677     496.7229   1416.30737     628.7677     496.7229
   1416.29211     628.2850     496.6313   1416.29211     628.2850     496.6313
   1416.27686     628.2517     497.1908   1416.27686     628.2517     497.1908
   1416.26160     629.5459     497.9020   1416.26160     629.5459     497.9020
   1416.24634     629.0809     497.3755   1416.24634     629.0809     497.3755
   1416.23108     627.3181     498.6812   1416.23108     627.3181     498.6812
   1416.21582     627.3915     498.9355   1416.21582     627.3915     498.9355
   1416.20056     628.8914     498.8517   1416.20056     628.8914     498.8517
   1416.18530     627.6667     499.3428   1416.18530     627.6667     499.3428
   1416.17004     627.4704     499.5601   1416.17004     627.4704     499.5601
   1416.15479     626.5770     499.8464   1416.15479     626.5770     499.8464
   1416.13953     626.5009     499.9246   1416.13953     626.5009     499.9246
   1416.12427     626.0723     500.3234   1416.12427     626.0723     500.3234
   1416.10901     626.5685     500.5003   1416.10901     626.5685     500.5003
   1416.09375     626.6154     500.8082   1416.09375     626.6154     500.8082
   1416.07849     625.6070     500.8989   1416.07849     625.6070     500.8989
   1416.06323     624.7869     502.0669   1416.06323     624.7869     502.0669
   1416.04797     624.1636     501.5367   1416.04797     624.1636     501.5367
   1416.03271     625.3390     502.1147   1416.03271     625.3390     502.1147
   1416.01746     624.2325     501.7278   1416.01746     624.2325     501.7278
   1416.00220     623.1857     502.3052   1416.00220     623.1857     502.3052
   1415.98694     624.2361     502.0038   1415.98694     624.2361     502.0038
   1415.97168     623.8116     503.1141   1415.97168     623.8116     503.1141
   1415.95642     623.9000     503.0817   1415.95642     623.9000     503.0817
   1415.94116     623.3692     503.1086   1415.94116     623.3692     503.1086
   1415.92590     622.4012     503.2172   1415.92590     622.4012     503.2172
   1415.91064     621.3436     502.5018   1415.91064     621.3436     502.5018
   1415.89539     621.7141     503.8867   1415.89539     621.7141     503.8867
   1415.88013     621.5930     503.7456   1415.88013     621.5930     503.7456
   1415.86487     619.6692     502.8658   1415.86487     619.6692     502.8658
   1415.84961     619.5711     503.8682   1415.84961     619.5711     503.8682
   1415.83435     619.3145     503.5610   1415.83435     619.3145     503.5610
   1415.81909     619.3749     503.7195   1415.81909     619.3749     503.7195
   1415.80383     618.6611     503.8804   1415.80383     618.6611     503.8804
   1415.78857     617.5131     503.9558   1415.78857     617.5131     503.9558
   1415.77332     617.5726     504.3277   1415.77332     617.5726     504.3277
   1415.75806     617.5200     504.1533   1415.75806     617.5200     504.1533
   1415.74280     616.4104     503.1945   1415.74280     616.4104     503.1945
   1415.72754     616.0523     503.8751   1415.72754     616.0523     503.8751
   1415.71228     615.0400     503.6271   1415.71228     615.0400     503.6271
   1415.69702     615.2148     503.2216   1415.69702     615.2148     503.2216
   1415.68176     614.2129     503.5147   1415.68176     614.2129     503.5147
   1415.66650     614.3860     503.3274   1415.66650     614.3860     503.3274
   1415.65125     613.5948     504.0180   1415.65125     613.5948     504.0180
   1415.63599     612.9506     503.1383   1415.63599     612.9506     503.1383
   1415.62073     611.8453     502.9641   1415.62073     611.8453     502.9641
   1415.60547     611.7587     503.5721   1415.60547     611.7587     503.5721
   1415.59021     610.7720     503.4512   1415.59021     610.7720     503.4512
   1415.57495     610.9125     503.5760   1415.57495     610.9125     503.5760
   1415.55969     611.0278     503.4366   1415.55969     611.0278     503.4366
   1415.54443     609.5790     502.3831   1415.54443     609.5790     502.3831
   1415.52917     609.9614     502.8325   1415.52917     609.9614     502.8325
   1415.51392     608.7829     502.9250   1415.51392     608.7829     502.9250
   1415.49866     607.0806     502.8452   1415.49866     607.0806     502.8452
   1415.48340     607.2803     502.9946   1415.48340     607.2803     502.9946
   1415.46814     606.9002     502.1658   1415.46814     606.9002     502.1658
   1415.45288     605.3548     501.8680   1415.45288     605.3548     501.8680
   1415.43762     604.2431     501.6041   1415.43762     604.2431     501.6041
   1415.42236     603.9557     501.7658   1415.42236     603.9557     501.7658
   1415.40710     602.5367     501.3093   1415.40710     602.5367     501.3093
   1415.39185     602.3341     500.9631   1415.39185     602.3341     500.9631
   1415.37659     602.6314     500.5654   1415.37659     602.6314     500.5654
   1415.36133     601.2592     500.7705   1415.36133     601.2592     500.7705
   1415.34607     600.0775     500.0205   1415.34607     600.0775     500.0205
   1415.33081     598.8775     500.4049   1415.33081     598.8775     500.4049
   1415.31555     598.3946     500.0812   1415.31555     598.3946     500.0812
   1415.30029     597.8694     499.6466   1415.30029     597.8694     499.6466
   1415.28503     596.8236     499.2014   1415.28503     596.8236     499.2014
   1415.26978     595.9470     498.8492   1415.26978     595.9470     498.8492
   1415.25452     595.6253     499.4688   1415.25452     595.6253     499.4688
   1415.23926     594.6328     498.1833   1415.23926     594.6328     498.1833
   1415.22400     594.2233     497.5410   1415.22400     594.2233     497.5410
   1415.20874     592.7349     497.2388   1415.20874     592.7349     497.2388
   1415.19348     592.3154     497.6069   1415.19348     592.3154     497.6069
   1415.17822     590.1224     496.6137   1415.17822     590.1224     496.6137
   1415.16296     590.5633     496.5211   1415.16296     590.5633     496.5211
   1415.14771     588.7164     495.7873   1415.14771     588.7164     495.7873
   1415.13245     587.9727     496.4491   1415.13245     587.9727     496.4491
   1415.11719     587.0275     495.4296   1415.11719     587.0275     495.4296
   1415.10193     586.0280     494.4984   1415.10193     586.0280     494.4984
   1415.08667     585.2368     494.1366   1415.08667     585.2368     494.1366
   1415.07141     584.2259     494.0418   1415.07141     584.2259     494.0418
   1415.05615     583.5098     493.5382   1415.05615     583.5098     493.5382
   1415.04089     582.8209     492.8389   1415.04089     582.8209     492.8389
   1415.02563     580.2996     492.8646   1415.02563     580.2996     492.8646
   1415.01038     580.1677     491.7210   1415.01038     580.1677     491.7210
   1414.99512     579.2542     490.7174   1414.99512     579.2542     490.7174
   1414.97986     577.7867     490.5401   1414.97986     577.7867     490.5401
   1414.96460     575.8688     490.2907   1414.96460     575.8688     490.2907
   1414.94934     576.0585     489.1465   1414.94934     576.0585     489.1465
   1414.93408     574.6884     489.0105   1414.93408     574.6884     489.0105
   1414.91882     573.3459     488.4303   1414.91882     573.3459     488.4303
   1414.90356     572.4233     487.7800   1414.90356     572.4233     487.7800
   1414.88831     569.9855     487.0535   1414.88831     569.9855     487.0535
   1414.87305     569.9542     486.8943   1414.87305     569.9542     486.8943
   1414.85779     569.2497     485.1587   1414.85779     569.2497     485.1587
   1414.84253     567.5545     484.6950   1414.84253     567.5545     484.6950
   1414.82727     566.2221     484.8514   1414.82727     566.2221     484.8514
   1414.81201     564.9127     484.1913   1414.81201     564.9127     484.1913
   1414.79675     563.4368     483.3109   1414.79675     563.4368     483.3109
   1414.78149     562.9833     481.5666   1414.78149     562.9833     481.5666
   1414.76624     561.1353     481.1626   1414.76624     561.1353     481.1626
   1414.75098     559.3574     480.8866   1414.75098     559.3574     480.8866
   1414.73572     558.8887     480.1052   1414.73572     558.8887     480.1052
   1414.72046     557.6505     479.4767   1414.72046     557.6505     479.4767
   1414.70520     555.2507     478.2423   1414.70520     555.2507     478.2423
   1414.68994     554.2513     477.7787   1414.68994     554.2513     477.7787
   1414.67468     552.4766     477.2162   1414.67468     552.4766     477.2162
   1414.65942     550.7793     476.3347   1414.65942     550.7793     476.3347
   1414.64417     549.4531     475.4762   1414.64417     549.4531     475.4762
   1414.62891     547.8243     473.7861   1414.62891     547.8243     473.7861
   1414.61365     546.9620     473.0486   1414.61365     546.9620     473.0486
   1414.59839     544.8164     472.9643   1414.59839     544.8164     472.9643
   1414.58313     543.6817     471.6389   1414.58313     543.6817     471.6389
   1414.56787     541.5025     470.5634   1414.56787     541.5025     470.5634
   1414.55261     540.2812     469.1130   1414.55261     540.2812     469.1130
   1414.53735     539.6521     468.4594   1414.53735     539.6521     468.4594
   1414.52209     536.7273     467.0851   1414.52209     536.7273     467.0851
   1414.50684     536.2195     466.6786   1414.50684     536.2195     466.6786
   1414.49158     534.7897     465.4804   1414.49158     534.7897     465.4804
   1414.47632     533.4134     464.3557   1414.47632     533.4134     464.3557
   1414.46106     530.9184     463.4048   1414.46106     530.9184     463.4048
   1414.44580     529.3585     462.4188   1414.44580     529.3585     462.4188
   1414.43054     527.7350     461.2317   1414.43054     527.7350     461.2317
   1414.41528     526.2881     459.9746   1414.41528     526.2881     459.9746
   1414.40002     524.1713     458.0362   1414.40002     524.1713     458.0362
   1414.38477     522.6947     458.6144   1414.38477     522.6947     458.6144
   1414.36951     519.9655     456.9471   1414.36951     519.9655     456.9471
   1414.35425     519.0182     455.7532   1414.35425     519.0182     455.7532
   1414.33899     517.7999     454.5856   1414.33899     517.7999     454.5856
   1414.32373     516.3421     453.0187   1414.32373     516.3421     453.0187
   1414.30847     512.7479     452.1738   1414.30847     512.7479     452.1738
   1414.29321     511.7624     451.2783   1414.29321     511.7624     451.2783
   1414.27795     509.2226     449.1819   1414.27795     509.2226     449.1819
   1414.26270     508.2862     447.0641   1414.26270     508.2862     447.0641
   1414.24744     506.8185     447.2191   1414.24744     506.8185     447.2191
   1414.23218     504.6938     445.7898   1414.23218     504.6938     445.7898
   1414.21692     503.0022     444.0597   1414.21692     503.0022     444.0597
   1414.20166     501.1648     442.6273   1414.20166     501.1648     442.6273
   1414.18640     498.7613     441.1026   1414.18640     498.7613     441.1026
   1414.17114     497.0952     440.3917   1414.17114     497.0952     440.3917
   1414.15588     494.5149     439.2368   1414.15588     494.5149     439.2368
   1414.14062     493.2261     437.3602   1414.14062     493.2261     437.3602
   1414.12537     490.6007     436.4292   1414.12537     490.6007     436.4292
   1414.11011     488.7151     435.3843   1414.11011     488.7151     435.3843
   1414.09485     487.2045     433.4253   1414.09485     487.2045     433.4253
   1414.07959     485.1067     431.7149   1414.07959     485.1067     431.7149
   1414.06433     482.9509     431.1441   1414.06433     482.9509     431.1441
   1414.04907     480.8418     430.0185   1414.04907     480.8418     430.0185
   1414.03381     479.0473     427.7077   1414.03381     479.0473     427.7077
   1414.01855     477.5916     425.9958   1414.01855     477.5916     425.9958
   1414.00330     493.4258     434.4120   1414.00330     493.4258     434.4120
   1413.98804     474.1276     424.1344   1413.98804     474.1276     424.1344
   1413.97278     470.5583     421.8839   1413.97278     470.5583     421.8839
   1413.95752     467.8647     420.6980   1413.95752     467.8647     420.6980
   1413.94226     465.9506     419.6039   1413.94226     465.9506     419.6039
   1413.92700     463.3279     417.2560   1413.92700     463.3279     417.2560
   1413.91174     462.1906     416.3942   1413.91174     462.1906     416.3942
   1413.89648     459.8632     413.8643   1413.89648     459.8632     413.8643
   1413.88123     456.9676     412.5247   1413.88123     456.9676     412.5247
   1413.86597     455.0895     411.8279   1413.86597     455.0895     411.8279
   1413.85071     452.4151     409.8340   1413.85071     452.4151     409.8340
   1413.83545     451.6312     408.3171   1413.83545     451.6312     408.3171
   1413.82019     449.1073     407.2050   1413.82019     449.1073     407.2050
   1413.80493     446.1283     404.7122   1413.80493     446.1283     404.7122
   1413.78967     444.4337     403.9428   1413.78967     444.4337     403.9428
   1413.77441     442.4719     401.6532   1413.77441     442.4719     401.6532
   1413.75916     440.5390     400.1029   1413.75916     440.5390     400.1029
   1413.74390     437.4192     399.2486   1413.74390     437.4192     399.2486
   1413.72864     435.0689     396.8969   1413.72864     435.0689     396.8969
   1413.71338     432.5473     395.5340   1413.71338     432.5473     395.5340
   1413.69812     430.8774     394.2437   1413.69812     430.8774     394.2437
   1413.68286     428.6223     392.4182   1413.68286     428.6223     392.4182
   1413.66760     426.1934     390.7921   1413.66760     426.1934     390.7921
   1413.65234     424.2548     388.6779   1413.65234     424.2548     388.6779
   1413.63708     421.9353     387.4971   1413.63708     421.9353     387.4971
   1413.62183     419.9802     386.0769   1413.62183     419.9802     386.0769
   1413.60657     417.3231     384.2196   1413.60657     417.3231     384.2196
   1413.59131     415.1028     382.9488   1413.59131     415.1028     382.9488
   1413.57605     412.9120     381.0352   1413.57605     412.9120     381.0352
   1413.56079     410.7348     379.8932   1413.56079     410.7348     379.8932
   1413.54553     408.6287     377.4529   1413.54553     408.6287     377.4529
   1413.53027     407.0462     376.4317   1413.53027     407.0462     376.4317
   1413.51501     404.3027     374.7453   1413.51501     404.3027     374.7453
   1413.49976     401.8600     373.8121   1413.49976     401.8600     373.8121
   1413.48450     399.8324     371.1859   1413.48450     399.8324     371.1859
   1413.46924     397.8264     370.3782   1413.46924     397.8264     370.3782
   1413.45398     394.4982     368.6673   1413.45398     394.4982     368.6673
   1413.43872     393.2166     366.8708   1413.43872     393.2166     366.8708
   1413.42346     391.0949     365.3617   1413.42346     391.0949     365.3617
   1413.40820     389.0089     364.1328   1413.40820     389.0089     364.1328
   1413.39294     387.0433     362.7640   1413.39294     387.0433     362.7640
   1413.37769     384.2190     361.1352   1413.37769     384.2190     361.1352
   1413.36243     382.3365     359.5026   1413.36243     382.3365     359.5026
   1413.34717     379.9697     357.2881   1413.34717     379.9697     357.2881
   1413.33191     377.4969     357.1509   1413.33191     377.4969     357.1509
   1413.31665     375.8909     354.4855   1413.31665     375.8909     354.4855
   1413.30139     374.4160     353.5840   1413.30139     374.4160     353.5840
   1413.28613     371.8176     352.1424   1413.28613     371.8176     352.1424
   1413.27087     369.2849     350.8333   1413.27087     369.2849     350.8333
   1413.25562     367.6329     349.3616   1413.25562     367.6329     349.3616
   1413.24036     365.4181     347.6660   1413.24036     365.4181     347.6660
   1413.22510     363.5994     346.6922   1413.22510     363.5994     346.6922
   1413.20984     361.6090     345.2102   1413.20984     361.6090     345.2102
   1413.19458     359.5070     343.8571   1413.19458     359.5070     343.8571
   1413.17932     357.7576     342.7450   1413.17932     357.7576     342.7450
   1413.16406     355.7845     341.0323   1413.16406     355.7845     341.0323
   1413.14880     353.3167     339.8191   1413.14880     353.3167     339.8191
   1413.13354     351.8232     339.4949   1413.13354     351.8232     339.4949
   1413.11829     350.1474     337.1861   1413.11829     350.1474     337.1861
   1413.10303     348.4544     336.5191   1413.10303     348.4544     336.5191
   1413.08777     346.1060     335.0319   1413.08777     346.1060     335.0319
   1413.07251     344.6339     334.3795   1413.07251     344.6339     334.3795
   1413.05725     342.7785     333.5418   1413.05725     342.7785     333.5418
   1413.04199     340.6448     331.2565   1413.04199     340.6448     331.2565
   1413.02673     339.3217     330.8947   1413.02673     339.3217     330.8947
   1413.01147     337.5100     329.7057   1413.01147     337.5100     329.7057
   1412.99622     335.2610     328.7105   1412.99622     335.2610     328.7105
   1412.98096     334.2068     328.2576   1412.98096     334.2068     328.2576
   1412.96570     332.2761     327.3167   1412.96570     332.2761     327.3167
   1412.95044     330.9405     326.3553   1412.95044     330.9405     326.3553
   1412.93518     329.6362     325.6263   1412.93518     329.6362     325.6263
   1412.91992     327.9472     324.6026   1412.91992     327.9472     324.6026
   1412.90466     326.5854     323.9885   1412.90466     326.5854     323.9885
   1412.88940     324.7411     322.8850   1412.88940     324.7411     322.8850
   1412.87415     323.5611     322.6177   1412.87415     323.5611     322.6177
   1412.85889     322.1051     321.6433   1412.85889     322.1051     321.6433
   1412.84363     320.5350     321.0918   1412.84363     320.5350     321.0918
   1412.82837     319.5066     320.7989   1412.82837     319.5066     320.7989
   1412.81311     318.0644     319.4169   1412.81311     318.0644     319.4169
   1412.79785     317.5888     319.2276   1412.79785     317.5888     319.2276
   1412.78259     316.1201     318.8883   1412.78259     316.1201     318.8883
   1412.76733     314.5841     318.4743   1412.76733     314.5841     318.4743
   1412.75208     313.3912     317.9717   1412.75208     313.3912     317.9717
   1412.73682     311.5484     317.2863   1412.73682     311.5484     317.2863
   1412.72156     311.4284     317.5473   1412.72156     311.4284     317.5473
   1412.70630     310.1904     317.4613   1412.70630     310.1904     317.4613
   1412.69104     309.2362     317.1543   1412.69104     309.2362     317.1543
   1412.67578     307.9327     316.5182   1412.67578     307.9327     316.5182
   1412.66052     307.2617     316.9545   1412.66052     307.2617     316.9545
   1412.64526     306.2234     317.0731   1412.64526     306.2234     317.0731
   1412.63000     305.6146     316.3015   1412.63000     305.6146     316.3015
   1412.61475     304.3885     317.1290   1412.61475     304.3885     317.1290
   1412.59949     303.8311     316.9801   1412.59949     303.8311     316.9801
   1412.58423     303.2279     316.8901   1412.58423     303.2279     316.8901
   1412.56897     302.3183     316.5478   1412.56897     302.3183     316.5478
   1412.55371     302.0036     317.8525   1412.55371     302.0036     317.8525
   1412.53845     301.7136     317.0892   1412.53845     301.7136     317.0892
   1412.52319     300.9373     317.9801   1412.52319     300.9373     317.9801
   1412.50793     300.6939     318.3366   1412.50793     300.6939     318.3366
   1412.49268     299.4660     318.9031   1412.49268     299.4660     318.9031
   1412.47742     299.4439     319.3933   1412.47742     299.4439     319.3933
   1412.46216     298.8038     319.4737   1412.46216     298.8038     319.4737
   1412.44690     298.2314     320.0780   1412.44690     298.2314     320.0780
   1412.43164     298.2097     320.7854   1412.43164     298.2097     320.7854
   1412.41638     298.2203     321.6757   1412.41638     298.2203     321.6757
   1412.40112     297.4200     322.1170   1412.40112     297.4200     322.1170
   1412.38586     297.5934     323.6012   1412.38586     297.5934     323.6012
   1412.37061     297.3898     324.2928   1412.37061     297.3898     324.2928
   1412.35535     297.4505     324.9409   1412.35535     297.4505     324.9409
   1412.34009     297.1516     325.9756   1412.34009     297.1516     325.9756
   1412.32483     297.0039     327.2581   1412.32483     297.0039     327.2581
   1412.30957     297.2764     328.2494   1412.30957     297.2764     328.2494
   1412.29431     297.3212     329.6007   1412.29431     297.3212     329.6007
   1412.27905     297.5794     330.1816   1412.27905     297.5794     330.1816
   1412.26379     298.4509     332.0066   1412.26379     298.4509     332.0066
   1412.24854     298.0338     332.9332   1412.24854     298.0338     332.9332
   1412.23328     298.1451     334.8824   1412.23328     298.1451     334.8824
   1412.21802     298.0930     335.7935   1412.21802     298.0930     335.7935
   1412.20276     298.9525     337.1905   1412.20276     298.9525     337.1905