#     FILENAME=!Skynet_57528_lach-hhg-98_20341_20905.cyb.fits
#     BASENAME=Skynet_57528_lach-hhg-98_20341_20905
#     SRC_NAME=lach-hhg-98
#     OBSERVER=hhgmadison16_9500
#     DATE_OBS=2016-05-20T15:19:37.620
#        OBSID=20341
#      SCANNUM=20905
#          MJD=57528.6397
#          UTC=55267
#     SCANTYPE=track
#     DATAMODE=HIRES
#     TUNEFREQ=1420.0000
# Actual_FREQ1=1420.0000
# Actual_FREQ2=1420.0000
#    LO1Tuning=6870.000
#     RFFILTER=1355_1435
#        OBSBW=-15.6250
#        NCHAN=1024 
#        FOCUS=37.0489
#           RA=21:49:10.37
#          DEC=53:48:27.23
#      RA(hrs)=21.819500
#     DEC(deg)=53.807600
#    AZIM(deg)=310.929
#    ELEV(deg)=46.227
#     IFattens=10.00, 9.00
#      WARNING=None
#    TCAL_XL1=7.9635
#    TCAL_YR1=9.1340
#    TCAL_XL2=7.9635
#    TCAL_YR2=9.1340
#     TRX_XL1=11.7060
#     TRX_YR1=11.7060
#     TRX_XL2=11.7060
#     TRX_YR2=11.7060
#        TAVE=1.0000
#Freq1(MHz)          XL1          YR1  Freq2(MHz)          XL2          YR2 

   1427.81250     369.0581     285.6019   1427.81250     369.0581     285.6019
   1427.79724     369.6349     285.9867   1427.79724     369.6349     285.9867
   1427.78198     370.2745     286.9496   1427.78198     370.2745     286.9496
   1427.76672     371.0064     287.8825   1427.76672     371.0064     287.8825
   1427.75146     371.6206     288.7188   1427.75146     371.6206     288.7188
   1427.73621     373.5248     289.3690   1427.73621     373.5248     289.3690
   1427.72095     373.7481     290.5039   1427.72095     373.7481     290.5039
   1427.70569     375.1469     290.9436   1427.70569     375.1469     290.9436
   1427.69043     375.9747     292.2091   1427.69043     375.9747     292.2091
   1427.67517     376.5241     292.9281   1427.67517     376.5241     292.9281
   1427.65991     377.6991     293.9460   1427.65991     377.6991     293.9460
   1427.64465     379.3860     295.2465   1427.64465     379.3860     295.2465
   1427.62939     380.8473     296.3033   1427.62939     380.8473     296.3033
   1427.61414     381.8323     297.6353   1427.61414     381.8323     297.6353
   1427.59888     383.2300     298.7293   1427.59888     383.2300     298.7293
   1427.58362     384.6823     299.9830   1427.58362     384.6823     299.9830
   1427.56836     386.5261     301.6978   1427.56836     386.5261     301.6978
   1427.55310     388.1989     302.8809   1427.55310     388.1989     302.8809
   1427.53784     389.0868     303.7988   1427.53784     389.0868     303.7988
   1427.52258     391.3750     305.4033   1427.52258     391.3750     305.4033
   1427.50732     393.2674     307.0743   1427.50732     393.2674     307.0743
   1427.49207     394.6975     308.3167   1427.49207     394.6975     308.3167
   1427.47681     396.9662     309.2764   1427.47681     396.9662     309.2764
   1427.46155     397.9720     311.3555   1427.46155     397.9720     311.3555
   1427.44629     400.1368     312.4278   1427.44629     400.1368     312.4278
   1427.43103     401.9072     314.2635   1427.43103     401.9072     314.2635
   1427.41577     403.5627     316.1338   1427.41577     403.5627     316.1338
   1427.40051     406.2216     317.2546   1427.40051     406.2216     317.2546
   1427.38525     407.6716     319.1816   1427.38525     407.6716     319.1816
   1427.37000     409.7827     321.0629   1427.37000     409.7827     321.0629
   1427.35474     412.1929     322.3987   1427.35474     412.1929     322.3987
   1427.33948     413.9841     324.1761   1427.33948     413.9841     324.1761
   1427.32422     415.9102     325.3231   1427.32422     415.9102     325.3231
   1427.30896     418.9190     327.1861   1427.30896     418.9190     327.1861
   1427.29370     420.9435     329.8977   1427.29370     420.9435     329.8977
   1427.27844     423.7300     331.2042   1427.27844     423.7300     331.2042
   1427.26318     425.9404     333.1320   1427.26318     425.9404     333.1320
   1427.24792     428.0896     334.8780   1427.24792     428.0896     334.8780
   1427.23267     430.3834     336.6041   1427.23267     430.3834     336.6041
   1427.21741     433.0345     338.3831   1427.21741     433.0345     338.3831
   1427.20215     435.3432     340.9912   1427.20215     435.3432     340.9912
   1427.18689     438.6098     342.1354   1427.18689     438.6098     342.1354
   1427.17163     440.9862     344.7359   1427.17163     440.9862     344.7359
   1427.15637     443.5900     346.0436   1427.15637     443.5900     346.0436
   1427.14111     445.9014     348.6838   1427.14111     445.9014     348.6838
   1427.12585     448.2085     350.5136   1427.12585     448.2085     350.5136
   1427.11060     451.3657     352.6744   1427.11060     451.3657     352.6744
   1427.09534     454.1860     355.0446   1427.09534     454.1860     355.0446
   1427.08008     457.1973     356.2938   1427.08008     457.1973     356.2938
   1427.06482     459.1215     358.7288   1427.06482     459.1215     358.7288
   1427.04956     462.7066     360.5186   1427.04956     462.7066     360.5186
   1427.03430     464.9325     362.9755   1427.03430     464.9325     362.9755
   1427.01904     468.1273     364.7362   1427.01904     468.1273     364.7362
   1427.00378     471.0175     367.5634   1427.00378     471.0175     367.5634
   1426.98853     473.3601     369.4285   1426.98853     473.3601     369.4285
   1426.97327     476.2773     371.8374   1426.97327     476.2773     371.8374
   1426.95801     479.6387     373.8994   1426.95801     479.6387     373.8994
   1426.94275     483.0529     376.0968   1426.94275     483.0529     376.0968
   1426.92749     485.0126     378.1326   1426.92749     485.0126     378.1326
   1426.91223     488.7465     380.4770   1426.91223     488.7465     380.4770
   1426.89697     491.3788     382.7798   1426.89697     491.3788     382.7798
   1426.88171     494.3364     384.7565   1426.88171     494.3364     384.7565
   1426.86646     497.9702     387.1533   1426.86646     497.9702     387.1533
   1426.85120     500.5591     389.5901   1426.85120     500.5591     389.5901
   1426.83594     503.8282     391.2776   1426.83594     503.8282     391.2776
   1426.82068     507.1117     393.2391   1426.82068     507.1117     393.2391
   1426.80542     509.6454     396.2520   1426.80542     509.6454     396.2520
   1426.79016     512.9034     398.5622   1426.79016     512.9034     398.5622
   1426.77490     515.8001     400.0995   1426.77490     515.8001     400.0995
   1426.75964     519.4482     402.8140   1426.75964     519.4482     402.8140
   1426.74438     522.5905     404.9316   1426.74438     522.5905     404.9316
   1426.72913     526.0533     407.2992   1426.72913     526.0533     407.2992
   1426.71387     528.1296     409.3821   1426.71387     528.1296     409.3821
   1426.69861     530.7933     412.0214   1426.69861     530.7933     412.0214
   1426.68335     534.5576     414.2108   1426.68335     534.5576     414.2108
   1426.66809     537.5256     416.0746   1426.66809     537.5256     416.0746
   1426.65283     540.8386     418.6717   1426.65283     540.8386     418.6717
   1426.63757     544.2950     420.8929   1426.63757     544.2950     420.8929
   1426.62231     549.6230     424.5271   1426.62231     549.6230     424.5271
   1426.60706     551.5848     425.6052   1426.60706     551.5848     425.6052
   1426.59180     551.8395     426.8206   1426.59180     551.8395     426.8206
   1426.57654     556.6028     429.2801   1426.57654     556.6028     429.2801
   1426.56128     558.3962     432.1982   1426.56128     558.3962     432.1982
   1426.54602     562.2453     433.4002   1426.54602     562.2453     433.4002
   1426.53076     565.9809     436.4126   1426.53076     565.9809     436.4126
   1426.51550     568.3558     437.9947   1426.51550     568.3558     437.9947
   1426.50024     571.5838     440.2364   1426.50024     571.5838     440.2364
   1426.48499     574.2916     442.6547   1426.48499     574.2916     442.6547
   1426.46973     577.9571     445.0685   1426.46973     577.9571     445.0685
   1426.45447     580.2035     447.5228   1426.45447     580.2035     447.5228
   1426.43921     583.2301     449.0439   1426.43921     583.2301     449.0439
   1426.42395     586.2599     451.4196   1426.42395     586.2599     451.4196
   1426.40869     589.0554     453.7926   1426.40869     589.0554     453.7926
   1426.39343     592.7542     455.1116   1426.39343     592.7542     455.1116
   1426.37817     594.5203     457.4628   1426.37817     594.5203     457.4628
   1426.36292     598.0560     459.7465   1426.36292     598.0560     459.7465
   1426.34766     600.7987     461.7899   1426.34766     600.7987     461.7899
   1426.33240     603.3281     464.9497   1426.33240     603.3281     464.9497
   1426.31714     605.9219     466.0242   1426.31714     605.9219     466.0242
   1426.30188     609.1656     468.4660   1426.30188     609.1656     468.4660
   1426.28662     612.6160     469.9869   1426.28662     612.6160     469.9869
   1426.27136     614.2927     472.3228   1426.27136     614.2927     472.3228
   1426.25610     618.0050     474.0418   1426.25610     618.0050     474.0418
   1426.24084     620.5120     475.5929   1426.24084     620.5120     475.5929
   1426.22559     623.2856     477.8171   1426.22559     623.2856     477.8171
   1426.21033     626.2618     479.7177   1426.21033     626.2618     479.7177
   1426.19507     628.5789     482.6412   1426.19507     628.5789     482.6412
   1426.17981     630.6939     483.9392   1426.17981     630.6939     483.9392
   1426.16455     633.9716     486.4762   1426.16455     633.9716     486.4762
   1426.14929     636.3273     488.2693   1426.14929     636.3273     488.2693
   1426.13403     638.4354     490.2791   1426.13403     638.4354     490.2791
   1426.11877     641.2962     492.2563   1426.11877     641.2962     492.2563
   1426.10352     644.2133     494.1957   1426.10352     644.2133     494.1957
   1426.08826     645.9730     495.4760   1426.08826     645.9730     495.4760
   1426.07300     648.6592     497.2343   1426.07300     648.6592     497.2343
   1426.05774     650.2902     499.6014   1426.05774     650.2902     499.6014
   1426.04248     655.0522     500.8230   1426.04248     655.0522     500.8230
   1426.02722     656.6107     502.9099   1426.02722     656.6107     502.9099
   1426.01196     658.5260     505.1020   1426.01196     658.5260     505.1020
   1425.99670     660.9785     506.9836   1425.99670     660.9785     506.9836
   1425.98145     662.1817     508.7139   1425.98145     662.1817     508.7139
   1425.96619     665.5676     509.0221   1425.96619     665.5676     509.0221
   1425.95093     666.3345     511.7502   1425.95093     666.3345     511.7502
   1425.93567     669.2675     513.3641   1425.93567     669.2675     513.3641
   1425.92041     672.4976     515.7191   1425.92041     672.4976     515.7191
   1425.90515     674.8631     516.9575   1425.90515     674.8631     516.9575
   1425.88989     677.1042     518.4530   1425.88989     677.1042     518.4530
   1425.87463     679.0441     519.9833   1425.87463     679.0441     519.9833
   1425.85938     681.6011     521.7154   1425.85938     681.6011     521.7154
   1425.84412     682.1511     522.6862   1425.84412     682.1511     522.6862
   1425.82886     685.6804     525.8192   1425.82886     685.6804     525.8192
   1425.81360     685.7052     527.0898   1425.81360     685.7052     527.0898
   1425.79834     687.5312     528.3709   1425.79834     687.5312     528.3709
   1425.78308     690.6937     529.7466   1425.78308     690.6937     529.7466
   1425.76782     691.4540     531.5085   1425.76782     691.4540     531.5085
   1425.75256     694.0049     533.1317   1425.75256     694.0049     533.1317
   1425.73730     695.5897     533.8173   1425.73730     695.5897     533.8173
   1425.72205     696.6581     536.1202   1425.72205     696.6581     536.1202
   1425.70679     698.2829     536.6329   1425.70679     698.2829     536.6329
   1425.69153     700.1021     539.2238   1425.69153     700.1021     539.2238
   1425.67627     702.2095     540.6346   1425.67627     702.2095     540.6346
   1425.66101     704.2971     541.4004   1425.66101     704.2971     541.4004
   1425.64575     705.9086     543.7215   1425.64575     705.9086     543.7215
   1425.63049     707.7765     544.7208   1425.63049     707.7765     544.7208
   1425.61523     707.2557     545.8164   1425.61523     707.2557     545.8164
   1425.59998     710.5051     547.5269   1425.59998     710.5051     547.5269
   1425.58472     710.6989     547.8540   1425.58472     710.6989     547.8540
   1425.56946     713.7344     549.6096   1425.56946     713.7344     549.6096
   1425.55420     714.1772     551.9175   1425.55420     714.1772     551.9175
   1425.53894     715.7170     552.3075   1425.53894     715.7170     552.3075
   1425.52368     717.1155     554.4230   1425.52368     717.1155     554.4230
   1425.50842     718.2719     554.9040   1425.50842     718.2719     554.9040
   1425.49316     720.1751     557.0631   1425.49316     720.1751     557.0631
   1425.47791     720.0042     557.5372   1425.47791     720.0042     557.5372
   1425.46265     723.0515     558.0193   1425.46265     723.0515     558.0193
   1425.44739     723.1835     559.9412   1425.44739     723.1835     559.9412
   1425.43213     724.4456     561.3507   1425.43213     724.4456     561.3507
   1425.41687     726.2831     563.7480   1425.41687     726.2831     563.7480
   1425.40161     726.7783     563.9528   1425.40161     726.7783     563.9528
   1425.38635     728.2175     565.0745   1425.38635     728.2175     565.0745
   1425.37109     729.3867     565.9819   1425.37109     729.3867     565.9819
   1425.35583     730.1026     567.1760   1425.35583     730.1026     567.1760
   1425.34058     730.3373     569.0344   1425.34058     730.3373     569.0344
   1425.32532     732.2631     568.7492   1425.32532     732.2631     568.7492
   1425.31006     732.6300     570.6666   1425.31006     732.6300     570.6666
   1425.29480     733.8450     571.7681   1425.29480     733.8450     571.7681
   1425.27954     734.1079     572.2429   1425.27954     734.1079     572.2429
   1425.26428     735.1043     573.5669   1425.26428     735.1043     573.5669
   1425.24902     735.6071     574.9752   1425.24902     735.6071     574.9752
   1425.23376     736.9778     575.8728   1425.23376     736.9778     575.8728
   1425.21851     737.4088     576.9727   1425.21851     737.4088     576.9727
   1425.20325     738.8912     578.6475   1425.20325     738.8912     578.6475
   1425.18799     738.8024     579.0547   1425.18799     738.8024     579.0547
   1425.17273     738.8839     579.9931   1425.17273     738.8839     579.9931
   1425.15747     739.7017     580.9916   1425.15747     739.7017     580.9916
   1425.14221     741.2043     582.4731   1425.14221     741.2043     582.4731
   1425.12695     741.7394     583.0597   1425.12695     741.7394     583.0597
   1425.11169     742.4955     584.5256   1425.11169     742.4955     584.5256
   1425.09644     742.5017     585.3203   1425.09644     742.5017     585.3203
   1425.08118     742.6544     585.9578   1425.08118     742.6544     585.9578
   1425.06592     742.5269     587.6913   1425.06592     742.5269     587.6913
   1425.05066     744.5144     586.4610   1425.05066     744.5144     586.4610
   1425.03540     744.5823     588.4445   1425.03540     744.5823     588.4445
   1425.02014     745.0258     588.7791   1425.02014     745.0258     588.7791
   1425.00488     745.2331     591.9918   1425.00488     745.2331     591.9918
   1424.98962     745.3506     591.6401   1424.98962     745.3506     591.6401
   1424.97437     746.1178     592.2098   1424.97437     746.1178     592.2098
   1424.95911     746.8199     593.6906   1424.95911     746.8199     593.6906
   1424.94385     745.7684     593.1962   1424.94385     745.7684     593.1962
   1424.92859     745.1673     595.1428   1424.92859     745.1673     595.1428
   1424.91333     746.7392     595.5197   1424.91333     746.7392     595.5197
   1424.89807     747.7938     596.8956   1424.89807     747.7938     596.8956
   1424.88281     747.6122     597.2618   1424.88281     747.6122     597.2618
   1424.86755     746.8723     597.7684   1424.86755     746.8723     597.7684
   1424.85229     748.0359     599.3649   1424.85229     748.0359     599.3649
   1424.83704     747.7426     600.2073   1424.83704     747.7426     600.2073
   1424.82178     749.5048     601.0800   1424.82178     749.5048     601.0800
   1424.80652     748.9678     601.6813   1424.80652     748.9678     601.6813
   1424.79126     748.2659     601.8094   1424.79126     748.2659     601.8094
   1424.77600     749.6962     602.5329   1424.77600     749.6962     602.5329
   1424.76074     749.9958     603.3106   1424.76074     749.9958     603.3106
   1424.74548     748.3235     604.1860   1424.74548     748.3235     604.1860
   1424.73022     748.3580     605.3784   1424.73022     748.3580     605.3784
   1424.71497     749.0048     605.1276   1424.71497     749.0048     605.1276
   1424.69971     747.9286     606.7448   1424.69971     747.9286     606.7448
   1424.68445     748.4035     607.4546   1424.68445     748.4035     607.4546
   1424.66919     749.9457     606.8311   1424.66919     749.9457     606.8311
   1424.65393     747.7436     608.2977   1424.65393     747.7436     608.2977
   1424.63867     748.7160     609.8188   1424.63867     748.7160     609.8188
   1424.62341     750.0970     610.3915   1424.62341     750.0970     610.3915
   1424.60815     748.4909     611.2151   1424.60815     748.4909     611.2151
   1424.59290     749.3399     610.6215   1424.59290     749.3399     610.6215
   1424.57764     749.0114     612.4320   1424.57764     749.0114     612.4320
   1424.56238     748.5952     612.8630   1424.56238     748.5952     612.8630
   1424.54712     748.1488     613.6348   1424.54712     748.1488     613.6348
   1424.53186     748.3716     613.4776   1424.53186     748.3716     613.4776
   1424.51660     747.6653     614.4636   1424.51660     747.6653     614.4636
   1424.50134     748.7297     616.3986   1424.50134     748.7297     616.3986
   1424.48608     747.1902     616.3860   1424.48608     747.1902     616.3860
   1424.47083     748.1391     615.6962   1424.47083     748.1391     615.6962
   1424.45557     746.9124     616.8215   1424.45557     746.9124     616.8215
   1424.44031     748.6022     617.7949   1424.44031     748.6022     617.7949
   1424.42505     748.3545     617.8322   1424.42505     748.3545     617.8322
   1424.40979     747.9548     618.1977   1424.40979     747.9548     618.1977
   1424.39453     746.8293     618.3900   1424.39453     746.8293     618.3900
   1424.37927     746.7142     620.4038   1424.37927     746.7142     620.4038
   1424.36401     745.6526     620.0233   1424.36401     745.6526     620.0233
   1424.34875     745.9470     621.3056   1424.34875     745.9470     621.3056
   1424.33350     746.9276     621.4371   1424.33350     746.9276     621.4371
   1424.31824     746.3972     621.8694   1424.31824     746.3972     621.8694
   1424.30298     746.3173     623.4164   1424.30298     746.3173     623.4164
   1424.28772     745.8925     622.6699   1424.28772     745.8925     622.6699
   1424.27246     746.0182     623.6450   1424.27246     746.0182     623.6450
   1424.25720     746.1299     624.2363   1424.25720     746.1299     624.2363
   1424.24194     745.4730     624.3502   1424.24194     745.4730     624.3502
   1424.22668     746.4690     626.0002   1424.22668     746.4690     626.0002
   1424.21143     744.4263     625.7574   1424.21143     744.4263     625.7574
   1424.19617     743.9113     625.8602   1424.19617     743.9113     625.8602
   1424.18091     744.8926     627.0231   1424.18091     744.8926     627.0231
   1424.16565     743.6991     626.8664   1424.16565     743.6991     626.8664
   1424.15039     742.3686     628.4025   1424.15039     742.3686     628.4025
   1424.13513     743.0699     629.6688   1424.13513     743.0699     629.6688
   1424.11987     742.8461     629.4474   1424.11987     742.8461     629.4474
   1424.10461     742.8521     630.0014   1424.10461     742.8521     630.0014
   1424.08936     742.8643     628.0409   1424.08936     742.8643     628.0409
   1424.07410     742.0406     629.4835   1424.07410     742.0406     629.4835
   1424.05884     743.2458     630.9300   1424.05884     743.2458     630.9300
   1424.04358     743.1030     631.6798   1424.04358     743.1030     631.6798
   1424.02832     741.5306     632.7057   1424.02832     741.5306     632.7057
   1424.01306     741.2618     632.8926   1424.01306     741.2618     632.8926
   1423.99780     741.2169     634.1481   1423.99780     741.2169     634.1481
   1423.98254     741.0996     632.9603   1423.98254     741.0996     632.9603
   1423.96729     741.0417     633.6785   1423.96729     741.0417     633.6785
   1423.95203     739.7925     633.8247   1423.95203     739.7925     633.8247
   1423.93677     739.3626     634.6644   1423.93677     739.3626     634.6644
   1423.92151     739.2371     635.0270   1423.92151     739.2371     635.0270
   1423.90625     739.8276     635.8481   1423.90625     739.8276     635.8481
   1423.89099     739.3516     635.1115   1423.89099     739.3516     635.1115
   1423.87573     739.2914     636.5830   1423.87573     739.2914     636.5830
   1423.86047     739.1531     636.5102   1423.86047     739.1531     636.5102
   1423.84521     739.0078     636.7355   1423.84521     739.0078     636.7355
   1423.82996     738.0076     638.1176   1423.82996     738.0076     638.1176
   1423.81470     737.5804     636.7751   1423.81470     737.5804     636.7751
   1423.79944     736.3927     637.4532   1423.79944     736.3927     637.4532
   1423.78418     737.2093     638.5125   1423.78418     737.2093     638.5125
   1423.76892     736.6229     637.9675   1423.76892     736.6229     637.9675
   1423.75366     735.7310     639.2847   1423.75366     735.7310     639.2847
   1423.73840     735.8588     638.4050   1423.73840     735.8588     638.4050
   1423.72314     736.5214     639.6015   1423.72314     736.5214     639.6015
   1423.70789     735.4056     639.2897   1423.70789     735.4056     639.2897
   1423.69263     735.5446     641.0309   1423.69263     735.5446     641.0309
   1423.67737     735.3989     639.8992   1423.67737     735.3989     639.8992
   1423.66211     735.1918     640.9417   1423.66211     735.1918     640.9417
   1423.64685     735.6912     639.6714   1423.64685     735.6912     639.6714
   1423.63159     735.2515     640.8094   1423.63159     735.2515     640.8094
   1423.61633     734.3312     642.1660   1423.61633     734.3312     642.1660
   1423.60107     734.0789     641.4901   1423.60107     734.0789     641.4901
   1423.58582     734.4128     641.6918   1423.58582     734.4128     641.6918
   1423.57056     733.6476     641.7892   1423.57056     733.6476     641.7892
   1423.55530     734.0900     641.7166   1423.55530     734.0900     641.7166
   1423.54004     731.7492     643.1244   1423.54004     731.7492     643.1244
   1423.52478     732.6404     642.5364   1423.52478     732.6404     642.5364
   1423.50952     732.1324     643.7077   1423.50952     732.1324     643.7077
   1423.49426     731.3748     642.5348   1423.49426     731.3748     642.5348
   1423.47900     731.8654     643.2606   1423.47900     731.8654     643.2606
   1423.46375     731.6788     643.0123   1423.46375     731.6788     643.0123
   1423.44849     731.0390     643.2003   1423.44849     731.0390     643.2003
   1423.43323     729.5645     643.3333   1423.43323     729.5645     643.3333
   1423.41797     731.1621     644.0236   1423.41797     731.1621     644.0236
   1423.40271     730.1910     645.4496   1423.40271     730.1910     645.4496
   1423.38745     730.0634     644.3602   1423.38745     730.0634     644.3602
   1423.37219     730.6303     644.9131   1423.37219     730.6303     644.9131
   1423.35693     729.4498     643.6343   1423.35693     729.4498     643.6343
   1423.34167     729.7479     643.9331   1423.34167     729.7479     643.9331
   1423.32642     728.8044     643.8951   1423.32642     728.8044     643.8951
   1423.31116     729.4604     643.0264   1423.31116     729.4604     643.0264
   1423.29590     729.1641     643.7400   1423.29590     729.1641     643.7400
   1423.28064     727.4803     643.6151   1423.28064     727.4803     643.6151
   1423.26538     728.6562     643.7896   1423.26538     728.6562     643.7896
   1423.25012     728.7920     642.0938   1423.25012     728.7920     642.0938
   1423.23486     727.0766     642.6352   1423.23486     727.0766     642.6352
   1423.21960     728.2656     642.7034   1423.21960     728.2656     642.7034
   1423.20435     726.9842     642.5211   1423.20435     726.9842     642.5211
   1423.18909     727.2289     642.3164   1423.18909     727.2289     642.3164
   1423.17383     727.5479     642.5957   1423.17383     727.5479     642.5957
   1423.15857     727.5306     642.7966   1423.15857     727.5306     642.7966
   1423.14331     726.6186     642.2061   1423.14331     726.6186     642.2061
   1423.12805     726.2836     642.7947   1423.12805     726.2836     642.7947
   1423.11279     725.4299     641.0801   1423.11279     725.4299     641.0801
   1423.09753     725.2871     640.8228   1423.09753     725.2871     640.8228
   1423.08228     725.6292     640.8111   1423.08228     725.6292     640.8111
   1423.06702     725.8563     641.7866   1423.06702     725.8563     641.7866
   1423.05176     724.7455     640.4247   1423.05176     724.7455     640.4247
   1423.03650     724.6582     640.1180   1423.03650     724.6582     640.1180
   1423.02124     725.3708     639.5491   1423.02124     725.3708     639.5491
   1423.00598     725.1100     639.2999   1423.00598     725.1100     639.2999
   1422.99072     724.6086     638.2369   1422.99072     724.6086     638.2369
   1422.97546     724.9717     638.6926   1422.97546     724.9717     638.6926
   1422.96021     724.5722     639.1005   1422.96021     724.5722     639.1005
   1422.94495     723.5590     638.1593   1422.94495     723.5590     638.1593
   1422.92969     724.5590     636.9417   1422.92969     724.5590     636.9417
   1422.91443     723.4578     636.2521   1422.91443     723.4578     636.2521
   1422.89917     723.3984     635.6453   1422.89917     723.3984     635.6453
   1422.88391     722.5891     635.1462   1422.88391     722.5891     635.1462
   1422.86865     721.7013     634.7302   1422.86865     721.7013     634.7302
   1422.85339     721.4479     635.2111   1422.85339     721.4479     635.2111
   1422.83813     723.2232     634.7919   1422.83813     723.2232     634.7919
   1422.82288     723.1801     633.4481   1422.82288     723.1801     633.4481
   1422.80762     722.2720     632.9736   1422.80762     722.2720     632.9736
   1422.79236     721.8509     632.7986   1422.79236     721.8509     632.7986
   1422.77710     723.2150     632.3271   1422.77710     723.2150     632.3271
   1422.76184     721.3195     631.1683   1422.76184     721.3195     631.1683
   1422.74658     721.1974     630.7113   1422.74658     721.1974     630.7113
   1422.73132     721.8718     630.7144   1422.73132     721.8718     630.7144
   1422.71606     721.8517     629.8002   1422.71606     721.8517     629.8002
   1422.70081     721.5705     628.4357   1422.70081     721.5705     628.4357
   1422.68555     721.0488     628.5394   1422.68555     721.0488     628.5394
   1422.67029     720.4711     627.0770   1422.67029     720.4711     627.0770
   1422.65503     720.3680     626.9207   1422.65503     720.3680     626.9207
   1422.63977     720.2414     625.4356   1422.63977     720.2414     625.4356
   1422.62451     720.0309     624.7261   1422.62451     720.0309     624.7261
   1422.60925     720.2889     623.0002   1422.60925     720.2889     623.0002
   1422.59399     718.3386     623.5539   1422.59399     718.3386     623.5539
   1422.57874     720.0087     622.6741   1422.57874     720.0087     622.6741
   1422.56348     719.3864     622.0755   1422.56348     719.3864     622.0755
   1422.54822     718.9772     620.8921   1422.54822     718.9772     620.8921
   1422.53296     717.5963     619.1202   1422.53296     717.5963     619.1202
   1422.51770     719.1043     620.0433   1422.51770     719.1043     620.0433
   1422.50244     719.2023     617.9949   1422.50244     719.2023     617.9949
   1422.48718     717.8105     616.7877   1422.48718     717.8105     616.7877
   1422.47192     717.9602     616.7859   1422.47192     717.9602     616.7859
   1422.45667     718.5712     616.2439   1422.45667     718.5712     616.2439
   1422.44141     718.4977     614.5216   1422.44141     718.4977     614.5216
   1422.42615     717.1977     614.7886   1422.42615     717.1977     614.7886
   1422.41089     717.0588     613.5947   1422.41089     717.0588     613.5947
   1422.39563     717.5996     612.2544   1422.39563     717.5996     612.2544
   1422.38037     717.3035     610.3153   1422.38037     717.3035     610.3153
   1422.36511     716.9219     609.7594   1422.36511     716.9219     609.7594
   1422.34985     717.3480     608.0914   1422.34985     717.3480     608.0914
   1422.33459     718.1186     607.9322   1422.33459     718.1186     607.9322
   1422.31934     716.5997     606.3240   1422.31934     716.5997     606.3240
   1422.30408     716.1751     605.2080   1422.30408     716.1751     605.2080
   1422.28882     716.0877     605.1086   1422.28882     716.0877     605.1086
   1422.27356     716.2327     604.4382   1422.27356     716.2327     604.4382
   1422.25830     715.6716     603.1297   1422.25830     715.6716     603.1297
   1422.24304     716.3184     601.3217   1422.24304     716.3184     601.3217
   1422.22778     716.0717     600.0038   1422.22778     716.0717     600.0038
   1422.21252     716.7238     599.5358   1422.21252     716.7238     599.5358
   1422.19727     715.2615     597.9463   1422.19727     715.2615     597.9463
   1422.18201     715.5379     598.2420   1422.18201     715.5379     598.2420
   1422.16675     714.8121     596.5323   1422.16675     714.8121     596.5323
   1422.15149     715.1134     594.9374   1422.15149     715.1134     594.9374
   1422.13623     714.2353     593.8450   1422.13623     714.2353     593.8450
   1422.12097     713.1398     592.0592   1422.12097     713.1398     592.0592
   1422.10571     713.4489     592.2920   1422.10571     713.4489     592.2920
   1422.09045     713.7444     589.1306   1422.09045     713.7444     589.1306
   1422.07520     713.2838     588.1514   1422.07520     713.2838     588.1514
   1422.05994     712.8110     586.9011   1422.05994     712.8110     586.9011
   1422.04468     712.0788     586.7108   1422.04468     712.0788     586.7108
   1422.02942     713.6969     586.5066   1422.02942     713.6969     586.5066
   1422.01416     713.2689     583.7432   1422.01416     713.2689     583.7432
   1421.99890     713.1841     582.4051   1421.99890     713.1841     582.4051
   1421.98364     713.4706     581.6823   1421.98364     713.4706     581.6823
   1421.96838     712.4955     580.1177   1421.96838     712.4955     580.1177
   1421.95312     712.3383     578.2181   1421.95312     712.3383     578.2181
   1421.93787     712.0587     578.4398   1421.93787     712.0587     578.4398
   1421.92261     712.5294     576.0583   1421.92261     712.5294     576.0583
   1421.90735     712.0370     575.8814   1421.90735     712.0370     575.8814
   1421.89209     710.7327     574.0276   1421.89209     710.7327     574.0276
   1421.87683     711.4006     572.7408   1421.87683     711.4006     572.7408
   1421.86157     711.0461     571.5090   1421.86157     711.0461     571.5090
   1421.84631     711.8922     570.6434   1421.84631     711.8922     570.6434
   1421.83105     711.1213     568.7374   1421.83105     711.1213     568.7374
   1421.81580     710.8406     566.9552   1421.81580     710.8406     566.9552
   1421.80054     710.9525     565.8715   1421.80054     710.9525     565.8715
   1421.78528     710.4283     565.0344   1421.78528     710.4283     565.0344
   1421.77002     710.2716     564.0999   1421.77002     710.2716     564.0999
   1421.75476     709.7032     562.5063   1421.75476     709.7032     562.5063
   1421.73950     709.5367     560.1503   1421.73950     709.5367     560.1503
   1421.72424     707.9159     559.8663   1421.72424     707.9159     559.8663
   1421.70898     710.4091     557.6337   1421.70898     710.4091     557.6337
   1421.69373     708.8954     555.8357   1421.69373     708.8954     555.8357
   1421.67847     709.4791     554.8260   1421.67847     709.4791     554.8260
   1421.66321     709.9201     553.2560   1421.66321     709.9201     553.2560
   1421.64795     708.9149     552.8490   1421.64795     708.9149     552.8490
   1421.63269     709.0411     550.5145   1421.63269     709.0411     550.5145
   1421.61743     707.9656     550.2355   1421.61743     707.9656     550.2355
   1421.60217     707.8276     548.5342   1421.60217     707.8276     548.5342
   1421.58691     707.9855     546.7408   1421.58691     707.9855     546.7408
   1421.57166     707.5873     545.8953   1421.57166     707.5873     545.8953
   1421.55640     707.5104     544.2585   1421.55640     707.5104     544.2585
   1421.54114     706.9030     543.3003   1421.54114     706.9030     543.3003
   1421.52588     707.5804     540.9908   1421.52588     707.5804     540.9908
   1421.51062     707.3248     540.9418   1421.51062     707.3248     540.9418
   1421.49536     705.9188     538.7672   1421.49536     705.9188     538.7672
   1421.48010     707.3408     536.8729   1421.48010     707.3408     536.8729
   1421.46484     705.7661     536.8823   1421.46484     705.7661     536.8823
   1421.44958     705.8541     534.6466   1421.44958     705.8541     534.6466
   1421.43433     706.0530     532.9713   1421.43433     706.0530     532.9713
   1421.41907     706.1155     532.3054   1421.41907     706.1155     532.3054
   1421.40381     704.8226     529.6057   1421.40381     704.8226     529.6057
   1421.38855     705.5542     529.2955   1421.38855     705.5542     529.2955
   1421.37329     704.8323     528.1425   1421.37329     704.8323     528.1425
   1421.35803     704.7386     527.0125   1421.35803     704.7386     527.0125
   1421.34277     704.9270     525.5040   1421.34277     704.9270     525.5040
   1421.32751     705.6237     523.9340   1421.32751     705.6237     523.9340
   1421.31226     705.2695     522.9167   1421.31226     705.2695     522.9167
   1421.29700     704.1490     521.9437   1421.29700     704.1490     521.9437
   1421.28174     705.4202     519.8585   1421.28174     705.4202     519.8585
   1421.26648     705.8141     519.5660   1421.26648     705.8141     519.5660
   1421.25122     705.4774     518.6490   1421.25122     705.4774     518.6490
   1421.23596     706.2059     518.1603   1421.23596     706.2059     518.1603
   1421.22070     707.0707     516.8895   1421.22070     707.0707     516.8895
   1421.20544     708.1522     516.2899   1421.20544     708.1522     516.2899
   1421.19019     708.5840     516.1509   1421.19019     708.5840     516.1509
   1421.17493     709.9327     515.2544   1421.17493     709.9327     515.2544
   1421.15967     710.7581     515.5521   1421.15967     710.7581     515.5521
   1421.14441     713.8547     516.0588   1421.14441     713.8547     516.0588
   1421.12915     718.8589     517.6129   1421.12915     718.8589     517.6129
   1421.11389     725.2754     522.9227   1421.11389     725.2754     522.9227
   1421.09863     741.5726     531.2344   1421.09863     741.5726     531.2344
   1421.08337     763.4609     545.3071   1421.08337     763.4609     545.3071
   1421.06812     793.8813     565.4457   1421.06812     793.8813     565.4457
   1421.05286     823.1164     585.5378   1421.05286     823.1164     585.5378
   1421.03760     865.4254     610.7391   1421.03760     865.4254     610.7391
   1421.02234     889.9927     627.2950   1421.02234     889.9927     627.2950
   1421.00708     899.7408     633.2151   1421.00708     899.7408     633.2151
   1420.99182     886.8949     623.1908   1420.99182     886.8949     623.1908
   1420.97656     869.4343     611.3351   1420.97656     869.4343     611.3351
   1420.96130     857.4869     599.6995   1420.96130     857.4869     599.6995
   1420.94604     850.4250     594.4113   1420.94604     850.4250     594.4113
   1420.93079     848.5572     592.3686   1420.93079     848.5572     592.3686
   1420.91553     862.6847     601.6162   1420.91553     862.6847     601.6162
   1420.90027     925.5979     640.0287   1420.90027     925.5979     640.0287
   1420.88501    1051.9076     724.0960   1420.88501    1051.9076     724.0960
   1420.86975    1201.5928     823.6118   1420.86975    1201.5928     823.6118
   1420.85449    1327.9048     905.1387   1420.85449    1327.9048     905.1387
   1420.83923    1394.7057     948.6611   1420.83923    1394.7057     948.6611
   1420.82397    1499.4399    1016.9409   1420.82397    1499.4399    1016.9409
   1420.80872    1674.4371    1129.3668   1420.80872    1674.4371    1129.3668
   1420.79346    1797.2617    1208.7666   1420.79346    1797.2617    1208.7666
   1420.77820    1770.1663    1187.1807   1420.77820    1770.1663    1187.1807
   1420.76294    1666.0597    1114.2853   1420.76294    1666.0597    1114.2853
   1420.74768    1798.8228    1197.9973   1420.74768    1798.8228    1197.9973
   1420.73242    1865.4672    1242.7499   1420.73242    1865.4672    1242.7499
   1420.71716    1794.4023    1193.1687   1420.71716    1794.4023    1193.1687
   1420.70190    1826.1550    1211.2587   1420.70190    1826.1550    1211.2587
   1420.68665    1884.9319    1245.7505   1420.68665    1884.9319    1245.7505
   1420.67139    1671.8656    1103.6584   1420.67139    1671.8656    1103.6584
   1420.65613    1437.4730     949.6534   1420.65613    1437.4730     949.6534
   1420.64087    1490.2007     982.8749   1420.64087    1490.2007     982.8749
   1420.62561    1630.5081    1072.2314   1420.62561    1630.5081    1072.2314
   1420.61035    1717.0039    1128.5834   1420.61035    1717.0039    1128.5834
   1420.59509    1786.7463    1169.4332   1420.59509    1786.7463    1169.4332
   1420.57983    1878.9653    1223.2151   1420.57983    1878.9653    1223.2151
   1420.56458    1924.1075    1247.5507   1420.56458    1924.1075    1247.5507
   1420.54932    1876.9923    1215.7047   1420.54932    1876.9923    1215.7047
   1420.53406    1755.7404    1136.6702   1420.53406    1755.7404    1136.6702
   1420.51880    1889.5208    1218.1001   1420.51880    1889.5208    1218.1001
   1420.50354    1671.8290    1079.2463   1420.50354    1671.8290    1079.2463
   1420.48828    1088.5813     707.7443   1420.48828    1088.5813     707.7443
   1420.47302     856.1066     559.1454   1420.47302     856.1066     559.1454
   1420.45776     783.0978     511.9677   1420.45776     783.0978     511.9677
   1420.44250     750.4626     488.7999   1420.44250     750.4626     488.7999
   1420.42725     728.9738     476.4830   1420.42725     728.9738     476.4830
   1420.41199     717.7292     467.9503   1420.41199     717.7292     467.9503
   1420.39673     709.9810     461.9277   1420.39673     709.9810     461.9277
   1420.38147     706.5819     458.2566   1420.38147     706.5819     458.2566
   1420.36621     703.0184     456.3748   1420.36621     703.0184     456.3748
   1420.35095     702.1956     454.9317   1420.35095     702.1956     454.9317
   1420.33569     701.3613     452.9324   1420.33569     701.3613     452.9324
   1420.32043     700.0829     452.1039   1420.32043     700.0829     452.1039
   1420.30518     700.3782     451.2336   1420.30518     700.3782     451.2336
   1420.28992     698.5862     450.5520   1420.28992     698.5862     450.5520
   1420.27466     699.6835     448.0784   1420.27466     699.6835     448.0784
   1420.25940     698.4142     447.9469   1420.25940     698.4142     447.9469
   1420.24414     698.0582     446.5671   1420.24414     698.0582     446.5671
   1420.22888     697.9936     445.7270   1420.22888     697.9936     445.7270
   1420.21362     697.1470     444.4376   1420.21362     697.1470     444.4376
   1420.19836     696.4536     443.0853   1420.19836     696.4536     443.0853
   1420.18311     694.6266     441.9762   1420.18311     694.6266     441.9762
   1420.16785     693.0780     441.0804   1420.16785     693.0780     441.0804
   1420.15259     694.2749     439.0215   1420.15259     694.2749     439.0215
   1420.13733     692.2815     438.1023   1420.13733     692.2815     438.1023
   1420.12207     692.7850     437.3110   1420.12207     692.7850     437.3110
   1420.10681     692.8690     436.0653   1420.10681     692.8690     436.0653
   1420.09155     691.6993     434.4503   1420.09155     691.6993     434.4503
   1420.07629     690.4134     434.8733   1420.07629     690.4134     434.8733
   1420.06104     691.3848     433.4647   1420.06104     691.3848     433.4647
   1420.04578     690.8854     432.7531   1420.04578     690.8854     432.7531
   1420.03052     690.7271     431.9510   1420.03052     690.7271     431.9510
   1420.01526     690.7147     431.4961   1420.01526     690.7147     431.4961
   1420.00000     691.5680     431.6666   1420.00000     691.5680     431.6666
   1419.98474     692.4212     431.8370   1419.98474     692.4212     431.8370
   1419.96948     692.3560     430.8572   1419.96948     692.3560     430.8572
   1419.95422     688.4581     428.3516   1419.95422     688.4581     428.3516
   1419.93896     690.0481     427.6180   1419.93896     690.0481     427.6180
   1419.92371     689.4961     427.6677   1419.92371     689.4961     427.6677
   1419.90845     690.4489     426.5444   1419.90845     690.4489     426.5444
   1419.89319     690.1329     425.7254   1419.89319     690.1329     425.7254
   1419.87793     689.4930     425.7184   1419.87793     689.4930     425.7184
   1419.86267     691.5672     425.2123   1419.86267     691.5672     425.2123
   1419.84741     690.6245     425.4104   1419.84741     690.6245     425.4104
   1419.83215     690.8105     424.2339   1419.83215     690.8105     424.2339
   1419.81689     691.9266     424.1740   1419.81689     691.9266     424.1740
   1419.80164     693.0822     424.2223   1419.80164     693.0822     424.2223
   1419.78638     691.5728     423.1359   1419.78638     691.5728     423.1359
   1419.77112     692.3348     423.2102   1419.77112     692.3348     423.2102
   1419.75586     693.2277     422.8131   1419.75586     693.2277     422.8131
   1419.74060     692.3210     422.2401   1419.74060     692.3210     422.2401
   1419.72534     692.2427     422.2902   1419.72534     692.2427     422.2902
   1419.71008     692.7468     421.9975   1419.71008     692.7468     421.9975
   1419.69482     693.4948     421.8899   1419.69482     693.4948     421.8899
   1419.67957     694.5303     420.4391   1419.67957     694.5303     420.4391
   1419.66431     693.0516     421.2227   1419.66431     693.0516     421.2227
   1419.64905     693.5042     420.2065   1419.64905     693.5042     420.2065
   1419.63379     695.6082     420.8839   1419.63379     695.6082     420.8839
   1419.61853     694.5499     420.4362   1419.61853     694.5499     420.4362
   1419.60327     695.5684     420.2109   1419.60327     695.5684     420.2109
   1419.58801     695.2939     419.7218   1419.58801     695.2939     419.7218
   1419.57275     696.2630     419.5534   1419.57275     696.2630     419.5534
   1419.55750     695.2921     419.4260   1419.55750     695.2921     419.4260
   1419.54224     694.8694     418.3890   1419.54224     694.8694     418.3890
   1419.52698     696.1326     419.1755   1419.52698     696.1326     419.1755
   1419.51172     696.9645     418.8186   1419.51172     696.9645     418.8186
   1419.49646     696.6683     419.3574   1419.49646     696.6683     419.3574
   1419.48120     697.4131     419.2441   1419.48120     697.4131     419.2441
   1419.46594     698.2823     418.7785   1419.46594     698.2823     418.7785
   1419.45068     697.7460     418.0210   1419.45068     697.7460     418.0210
   1419.43542     699.4641     418.4703   1419.43542     699.4641     418.4703
   1419.42017     699.0231     418.0531   1419.42017     699.0231     418.0531
   1419.40491     700.3257     418.0061   1419.40491     700.3257     418.0061
   1419.38965     700.3419     418.5080   1419.38965     700.3419     418.5080
   1419.37439     701.0115     418.0022   1419.37439     701.0115     418.0022
   1419.35913     699.7083     418.1055   1419.35913     699.7083     418.1055
   1419.34387     700.9079     418.2270   1419.34387     700.9079     418.2270
   1419.32861     701.5471     418.3671   1419.32861     701.5471     418.3671
   1419.31335     702.2953     418.7344   1419.31335     702.2953     418.7344
   1419.29810     702.9791     418.1326   1419.29810     702.9791     418.1326
   1419.28284     703.3126     418.0210   1419.28284     703.3126     418.0210
   1419.26758     703.4149     418.2890   1419.26758     703.4149     418.2890
   1419.25232     703.0232     418.4328   1419.25232     703.0232     418.4328
   1419.23706     702.8392     418.4804   1419.23706     702.8392     418.4804
   1419.22180     704.6334     418.9216   1419.22180     704.6334     418.9216
   1419.20654     704.9357     418.7911   1419.20654     704.9357     418.7911
   1419.19128     705.6209     419.0177   1419.19128     705.6209     419.0177
   1419.17603     705.5544     418.7708   1419.17603     705.5544     418.7708
   1419.16077     707.0347     418.9952   1419.16077     707.0347     418.9952
   1419.14551     707.4774     419.3454   1419.14551     707.4774     419.3454
   1419.13025     707.0737     419.2791   1419.13025     707.0737     419.2791
   1419.11499     708.6660     419.9651   1419.11499     708.6660     419.9651
   1419.09973     708.3629     419.2610   1419.09973     708.3629     419.2610
   1419.08447     709.5099     420.5553   1419.08447     709.5099     420.5553
   1419.06921     708.9022     419.9972   1419.06921     708.9022     419.9972
   1419.05396     710.1257     420.2028   1419.05396     710.1257     420.2028
   1419.03870     710.6685     420.6568   1419.03870     710.6685     420.6568
   1419.02344     710.9934     421.0425   1419.02344     710.9934     421.0425
   1419.00818     712.6451     421.3546   1419.00818     712.6451     421.3546
   1418.99292     713.1684     421.3215   1418.99292     713.1684     421.3215
   1418.97766     712.9085     421.9573   1418.97766     712.9085     421.9573
   1418.96240     713.8458     422.7830   1418.96240     713.8458     422.7830
   1418.94714     713.9866     422.9928   1418.94714     713.9866     422.9928
   1418.93188     715.5986     423.1913   1418.93188     715.5986     423.1913
   1418.91663     715.5204     423.3432   1418.91663     715.5204     423.3432
   1418.90137     716.1778     423.6009   1418.90137     716.1778     423.6009
   1418.88611     717.0834     423.8265   1418.88611     717.0834     423.8265
   1418.87085     718.4966     423.7304   1418.87085     718.4966     423.7304
   1418.85559     716.3129     425.1517   1418.85559     716.3129     425.1517
   1418.84033     718.1580     424.7042   1418.84033     718.1580     424.7042
   1418.82507     718.6736     425.9335   1418.82507     718.6736     425.9335
   1418.80981     719.9350     425.9664   1418.80981     719.9350     425.9664
   1418.79456     720.3394     426.3416   1418.79456     720.3394     426.3416
   1418.77930     720.7842     426.7442   1418.77930     720.7842     426.7442
   1418.76404     722.2001     426.8979   1418.76404     722.2001     426.8979
   1418.74878     723.2841     427.6001   1418.74878     723.2841     427.6001
   1418.73352     723.2363     427.8911   1418.73352     723.2363     427.8911
   1418.71826     723.5588     429.2886   1418.71826     723.5588     429.2886
   1418.70300     725.4195     428.7076   1418.70300     725.4195     428.7076
   1418.68774     726.0176     429.2542   1418.68774     726.0176     429.2542
   1418.67249     726.4305     429.7005   1418.67249     726.4305     429.7005
   1418.65723     727.6140     431.1497   1418.65723     727.6140     431.1497
   1418.64197     727.3829     431.1148   1418.64197     727.3829     431.1148
   1418.62671     729.7141     431.6519   1418.62671     729.7141     431.6519
   1418.61145     727.4132     432.3947   1418.61145     727.4132     432.3947
   1418.59619     729.4405     432.9615   1418.59619     729.4405     432.9615
   1418.58093     731.3148     433.6141   1418.58093     731.3148     433.6141
   1418.56567     731.4630     434.6073   1418.56567     731.4630     434.6073
   1418.55042     732.3350     434.8237   1418.55042     732.3350     434.8237
   1418.53516     733.1501     435.5628   1418.53516     733.1501     435.5628
   1418.51990     733.3562     436.5685   1418.51990     733.3562     436.5685
   1418.50464     733.8867     437.0557   1418.50464     733.8867     437.0557
   1418.48938     734.3272     437.4891   1418.48938     734.3272     437.4891
   1418.47412     736.2168     438.1135   1418.47412     736.2168     438.1135
   1418.45886     736.3887     438.2520   1418.45886     736.3887     438.2520
   1418.44360     737.0754     439.6496   1418.44360     737.0754     439.6496
   1418.42834     738.4653     440.2268   1418.42834     738.4653     440.2268
   1418.41309     739.4588     440.6345   1418.41309     739.4588     440.6345
   1418.39783     741.8976     440.9011   1418.39783     741.8976     440.9011
   1418.38257     740.7802     441.3934   1418.38257     740.7802     441.3934
   1418.36731     743.2602     442.6349   1418.36731     743.2602     442.6349
   1418.35205     743.0892     443.9708   1418.35205     743.0892     443.9708
   1418.33679     743.7603     444.5011   1418.33679     743.7603     444.5011
   1418.32153     744.8193     445.1903   1418.32153     744.8193     445.1903
   1418.30627     744.7831     445.8260   1418.30627     744.7831     445.8260
   1418.29102     746.7489     446.1996   1418.29102     746.7489     446.1996
   1418.27576     747.5923     446.7179   1418.27576     747.5923     446.7179
   1418.26050     747.6525     448.3978   1418.26050     747.6525     448.3978
   1418.24524     749.3170     449.7256   1418.24524     749.3170     449.7256
   1418.22998     750.1155     449.2616   1418.22998     750.1155     449.2616
   1418.21472     751.0630     450.4124   1418.21472     751.0630     450.4124
   1418.19946     752.3754     450.7712   1418.19946     752.3754     450.7712
   1418.18420     752.6481     452.3753   1418.18420     752.6481     452.3753
   1418.16895     752.7414     452.4275   1418.16895     752.7414     452.4275
   1418.15369     753.5938     453.5359   1418.15369     753.5938     453.5359
   1418.13843     756.3162     454.6508   1418.13843     756.3162     454.6508
   1418.12317     757.5851     455.1144   1418.12317     757.5851     455.1144
   1418.10791     756.4023     456.4353   1418.10791     756.4023     456.4353
   1418.09265     757.7778     456.8904   1418.09265     757.7778     456.8904
   1418.07739     759.1598     456.9081   1418.07739     759.1598     456.9081
   1418.06213     760.0747     458.4738   1418.06213     760.0747     458.4738
   1418.04688     760.9311     459.1650   1418.04688     760.9311     459.1650
   1418.03162     761.6526     459.1942   1418.03162     761.6526     459.1942
   1418.01636     761.2937     460.9281   1418.01636     761.2937     460.9281
   1418.00110     763.3342     461.1868   1418.00110     763.3342     461.1868
   1417.98584     763.7110     462.2232   1417.98584     763.7110     462.2232
   1417.97058     765.6058     463.9121   1417.97058     765.6058     463.9121
   1417.95532     765.8452     464.9279   1417.95532     765.8452     464.9279
   1417.94006     766.1396     465.5573   1417.94006     766.1396     465.5573
   1417.92480     768.0211     465.8235   1417.92480     768.0211     465.8235
   1417.90955     768.9969     467.0457   1417.90955     768.9969     467.0457
   1417.89429     769.8828     468.4094   1417.89429     769.8828     468.4094
   1417.87903     770.9001     468.6758   1417.87903     770.9001     468.6758
   1417.86377     772.4413     470.1638   1417.86377     772.4413     470.1638
   1417.84851     771.9605     470.4930   1417.84851     771.9605     470.4930
   1417.83325     773.2855     470.9004   1417.83325     773.2855     470.9004
   1417.81799     773.7234     472.2709   1417.81799     773.7234     472.2709
   1417.80273     774.5266     472.7975   1417.80273     774.5266     472.7975
   1417.78748     777.1676     473.6687   1417.78748     777.1676     473.6687
   1417.77222     778.1459     476.0200   1417.77222     778.1459     476.0200
   1417.75696     778.5112     475.9110   1417.75696     778.5112     475.9110
   1417.74170     779.2430     477.2379   1417.74170     779.2430     477.2379
   1417.72644     778.8281     477.5633   1417.72644     778.8281     477.5633
   1417.71118     780.7308     479.0780   1417.71118     780.7308     479.0780
   1417.69592     781.5847     480.1025   1417.69592     781.5847     480.1025
   1417.68066     782.9482     480.4453   1417.68066     782.9482     480.4453
   1417.66541     784.3047     481.2996   1417.66541     784.3047     481.2996
   1417.65015     786.4531     483.0022   1417.65015     786.4531     483.0022
   1417.63489     786.0042     483.2036   1417.63489     786.0042     483.2036
   1417.61963     785.3125     483.7500   1417.61963     785.3125     483.7500
   1417.60437     786.3978     484.9394   1417.60437     786.3978     484.9394
   1417.58911     789.3621     486.2710   1417.58911     789.3621     486.2710
   1417.57385     789.8727     487.2943   1417.57385     789.8727     487.2943
   1417.55859     788.6869     488.3719   1417.55859     788.6869     488.3719
   1417.54333     791.6617     488.5722   1417.54333     791.6617     488.5722
   1417.52808     791.2518     489.8926   1417.52808     791.2518     489.8926
   1417.51282     792.6252     490.4831   1417.51282     792.6252     490.4831
   1417.49756     793.2849     491.0647   1417.49756     793.2849     491.0647
   1417.48230     795.1149     492.1964   1417.48230     795.1149     492.1964
   1417.46704     795.0355     492.6566   1417.46704     795.0355     492.6566
   1417.45178     796.5865     494.4304   1417.45178     796.5865     494.4304
   1417.43652     797.9799     494.6831   1417.43652     797.9799     494.6831
   1417.42126     798.0798     495.8256   1417.42126     798.0798     495.8256
   1417.40601     798.3828     496.1140   1417.40601     798.3828     496.1140
   1417.39075     800.4719     496.9366   1417.39075     800.4719     496.9366
   1417.37549     799.8904     497.5435   1417.37549     799.8904     497.5435
   1417.36023     801.3372     500.0565   1417.36023     801.3372     500.0565
   1417.34497     802.2428     500.0031   1417.34497     802.2428     500.0031
   1417.32971     801.3822     500.3395   1417.32971     801.3822     500.3395
   1417.31445     802.9550     501.5514   1417.31445     802.9550     501.5514
   1417.29919     804.3664     501.9193   1417.29919     804.3664     501.9193
   1417.28394     804.7504     503.9003   1417.28394     804.7504     503.9003
   1417.26868     805.2722     503.3638   1417.26868     805.2722     503.3638
   1417.25342     806.9506     504.9842   1417.25342     806.9506     504.9842
   1417.23816     806.9957     505.5770   1417.23816     806.9957     505.5770
   1417.22290     808.5556     506.5758   1417.22290     808.5556     506.5758
   1417.20764     807.8616     506.2319   1417.20764     807.8616     506.2319
   1417.19238     810.2003     507.3228   1417.19238     810.2003     507.3228
   1417.17712     809.9062     508.7443   1417.17712     809.9062     508.7443
   1417.16187     811.0498     509.7938   1417.16187     811.0498     509.7938
   1417.14661     811.8499     509.1430   1417.14661     811.8499     509.1430
   1417.13135     811.2573     510.2923   1417.13135     811.2573     510.2923
   1417.11609     813.1626     510.7537   1417.11609     813.1626     510.7537
   1417.10083     813.0066     511.5422   1417.10083     813.0066     511.5422
   1417.08557     814.7747     512.3899   1417.08557     814.7747     512.3899
   1417.07031     815.4487     513.2230   1417.07031     815.4487     513.2230
   1417.05505     815.3710     513.2968   1417.05505     815.3710     513.2968
   1417.03979     815.6732     514.3016   1417.03979     815.6732     514.3016
   1417.02454     816.8619     514.4009   1417.02454     816.8619     514.4009
   1417.00928     815.9058     515.4291   1417.00928     815.9058     515.4291
   1416.99402     817.2108     515.9522   1416.99402     817.2108     515.9522
   1416.97876     818.7715     516.6382   1416.97876     818.7715     516.6382
   1416.96350     819.4067     516.5895   1416.96350     819.4067     516.5895
   1416.94824     818.9280     517.5696   1416.94824     818.9280     517.5696
   1416.93298     818.4948     517.6337   1416.93298     818.4948     517.6337
   1416.91772     820.1635     517.3787   1416.91772     820.1635     517.3787
   1416.90247     820.2819     517.4324   1416.90247     820.2819     517.4324
   1416.88721     821.0315     518.8555   1416.88721     821.0315     518.8555
   1416.87195     822.3038     518.6574   1416.87195     822.3038     518.6574
   1416.85669     822.9422     518.5710   1416.85669     822.9422     518.5710
   1416.84143     822.6254     520.1754   1416.84143     822.6254     520.1754
   1416.82617     823.6287     520.0330   1416.82617     823.6287     520.0330
   1416.81091     822.8571     519.6586   1416.81091     822.8571     519.6586
   1416.79565     824.0583     521.4622   1416.79565     824.0583     521.4622
   1416.78040     823.1613     521.2847   1416.78040     823.1613     521.2847
   1416.76514     823.5726     521.9868   1416.76514     823.5726     521.9868
   1416.74988     822.5370     521.5533   1416.74988     822.5370     521.5533
   1416.73462     825.4219     521.6567   1416.73462     825.4219     521.6567
   1416.71936     824.1755     522.4457   1416.71936     824.1755     522.4457
   1416.70410     826.1208     521.4762   1416.70410     826.1208     521.4762
   1416.68884     824.4315     522.8356   1416.68884     824.4315     522.8356
   1416.67358     825.3420     522.0773   1416.67358     825.3420     522.0773
   1416.65833     826.4733     522.3392   1416.65833     826.4733     522.3392
   1416.64307     825.8273     522.6321   1416.64307     825.8273     522.6321
   1416.62781     826.1166     522.8544   1416.62781     826.1166     522.8544
   1416.61255     826.3235     522.8217   1416.61255     826.3235     522.8217
   1416.59729     826.2704     523.2349   1416.59729     826.2704     523.2349
   1416.58203     826.0371     523.3026   1416.58203     826.0371     523.3026
   1416.56677     827.0011     523.3700   1416.56677     827.0011     523.3700
   1416.55151     827.6125     523.4836   1416.55151     827.6125     523.4836
   1416.53625     826.7586     523.5730   1416.53625     826.7586     523.5730
   1416.52100     827.1847     523.5695   1416.52100     827.1847     523.5695
   1416.50574     826.6627     522.0886   1416.50574     826.6627     522.0886
   1416.49048     827.4332     522.5461   1416.49048     827.4332     522.5461
   1416.47522     827.5566     522.4759   1416.47522     827.5566     522.4759
   1416.45996     827.7549     523.0667   1416.45996     827.7549     523.0667
   1416.44470     828.0417     522.7220   1416.44470     828.0417     522.7220
   1416.42944     827.2706     522.2171   1416.42944     827.2706     522.2171
   1416.41418     826.3547     522.4940   1416.41418     826.3547     522.4940
   1416.39893     825.0597     522.2356   1416.39893     825.0597     522.2356
   1416.38367     825.4177     521.9120   1416.38367     825.4177     521.9120
   1416.36841     825.7084     520.9879   1416.36841     825.7084     520.9879
   1416.35315     825.3069     521.5958   1416.35315     825.3069     521.5958
   1416.33789     826.3000     521.0618   1416.33789     826.3000     521.0618
   1416.32263     824.8061     520.7902   1416.32263     824.8061     520.7902
   1416.30737     825.1413     521.0154   1416.30737     825.1413     521.0154
   1416.29211     824.1442     520.3865   1416.29211     824.1442     520.3865
   1416.27686     824.7378     519.0166   1416.27686     824.7378     519.0166
   1416.26160     824.8773     520.4404   1416.26160     824.8773     520.4404
   1416.24634     824.7306     520.0723   1416.24634     824.7306     520.0723
   1416.23108     823.3505     519.2708   1416.23108     823.3505     519.2708
   1416.21582     823.5919     519.0969   1416.21582     823.5919     519.0969
   1416.20056     823.7516     518.3622   1416.20056     823.7516     518.3622
   1416.18530     822.5384     518.1077   1416.18530     822.5384     518.1077
   1416.17004     821.8976     517.7444   1416.17004     821.8976     517.7444
   1416.15479     820.8730     517.6054   1416.15479     820.8730     517.6054
   1416.13953     821.5657     516.2697   1416.13953     821.5657     516.2697
   1416.12427     820.5133     516.8925   1416.12427     820.5133     516.8925
   1416.10901     820.3110     516.2661   1416.10901     820.3110     516.2661
   1416.09375     819.1747     514.5618   1416.09375     819.1747     514.5618
   1416.07849     820.2440     515.0521   1416.07849     820.2440     515.0521
   1416.06323     819.2040     514.8292   1416.06323     819.2040     514.8292
   1416.04797     818.8519     513.8920   1416.04797     818.8519     513.8920
   1416.03271     817.9729     514.0460   1416.03271     817.9729     514.0460
   1416.01746     817.7115     513.6096   1416.01746     817.7115     513.6096
   1416.00220     817.4324     512.0054   1416.00220     817.4324     512.0054
   1415.98694     816.9088     511.6487   1415.98694     816.9088     511.6487
   1415.97168     816.1282     512.3584   1415.97168     816.1282     512.3584
   1415.95642     815.4622     511.4767   1415.95642     815.4622     511.4767
   1415.94116     814.8577     511.3722   1415.94116     814.8577     511.3722
   1415.92590     815.0547     510.4541   1415.92590     815.0547     510.4541
   1415.91064     813.3241     509.9993   1415.91064     813.3241     509.9993
   1415.89539     813.8991     509.2652   1415.89539     813.8991     509.2652
   1415.88013     812.3953     508.6732   1415.88013     812.3953     508.6732
   1415.86487     811.0978     508.4008   1415.86487     811.0978     508.4008
   1415.84961     811.4993     507.3107   1415.84961     811.4993     507.3107
   1415.83435     810.8430     507.4567   1415.83435     810.8430     507.4567
   1415.81909     810.0639     506.2519   1415.81909     810.0639     506.2519
   1415.80383     808.9685     505.9422   1415.80383     808.9685     505.9422
   1415.78857     808.4203     505.7841   1415.78857     808.4203     505.7841
   1415.77332     807.6143     504.5243   1415.77332     807.6143     504.5243
   1415.75806     807.3716     505.2312   1415.75806     807.3716     505.2312
   1415.74280     806.4354     504.2936   1415.74280     806.4354     504.2936
   1415.72754     804.6987     502.9073   1415.72754     804.6987     502.9073
   1415.71228     804.0468     502.6728   1415.71228     804.0468     502.6728
   1415.69702     802.9654     502.4770   1415.69702     802.9654     502.4770
   1415.68176     802.9614     501.1231   1415.68176     802.9614     501.1231
   1415.66650     802.9007     500.7511   1415.66650     802.9007     500.7511
   1415.65125     800.9630     499.8638   1415.65125     800.9630     499.8638
   1415.63599     800.1030     500.0305   1415.63599     800.1030     500.0305
   1415.62073     798.9964     498.9398   1415.62073     798.9964     498.9398
   1415.60547     798.5928     498.9999   1415.60547     798.5928     498.9999
   1415.59021     798.7897     497.2734   1415.59021     798.7897     497.2734
   1415.57495     796.3144     496.9826   1415.57495     796.3144     496.9826
   1415.55969     795.7617     497.8155   1415.55969     795.7617     497.8155
   1415.54443     793.6983     495.6917   1415.54443     793.6983     495.6917
   1415.52917     794.5901     495.4796   1415.52917     794.5901     495.4796
   1415.51392     792.6242     493.9341   1415.51392     792.6242     493.9341
   1415.49866     791.8155     493.8595   1415.49866     791.8155     493.8595
   1415.48340     791.2734     493.6606   1415.48340     791.2734     493.6606
   1415.46814     789.2648     493.0242   1415.46814     789.2648     493.0242
   1415.45288     788.1951     492.1967   1415.45288     788.1951     492.1967
   1415.43762     786.5663     492.2398   1415.43762     786.5663     492.2398
   1415.42236     787.0526     491.9041   1415.42236     787.0526     491.9041
   1415.40710     785.2665     490.2552   1415.40710     785.2665     490.2552
   1415.39185     783.5850     488.9095   1415.39185     783.5850     488.9095
   1415.37659     781.3589     489.2851   1415.37659     781.3589     489.2851
   1415.36133     781.3051     487.5733   1415.36133     781.3051     487.5733
   1415.34607     779.1671     487.3588   1415.34607     779.1671     487.3588
   1415.33081     780.1902     486.8751   1415.33081     780.1902     486.8751
   1415.31555     777.5453     485.9641   1415.31555     777.5453     485.9641
   1415.30029     775.6622     485.1203   1415.30029     775.6622     485.1203
   1415.28503     775.4979     484.2946   1415.28503     775.4979     484.2946
   1415.26978     774.0127     483.9678   1415.26978     774.0127     483.9678
   1415.25452     772.4865     483.0577   1415.25452     772.4865     483.0577
   1415.23926     771.4554     482.2711   1415.23926     771.4554     482.2711
   1415.22400     769.9453     481.4309   1415.22400     769.9453     481.4309
   1415.20874     767.5346     480.2704   1415.20874     767.5346     480.2704
   1415.19348     766.0699     479.9543   1415.19348     766.0699     479.9543
   1415.17822     765.7964     479.6786   1415.17822     765.7964     479.6786
   1415.16296     764.9470     478.5956   1415.16296     764.9470     478.5956
   1415.14771     762.8440     478.1565   1415.14771     762.8440     478.1565
   1415.13245     760.9035     476.4527   1415.13245     760.9035     476.4527
   1415.11719     759.0811     476.3930   1415.11719     759.0811     476.3930
   1415.10193     758.7131     474.8051   1415.10193     758.7131     474.8051
   1415.08667     757.0912     474.1174   1415.08667     757.0912     474.1174
   1415.07141     755.4037     473.0568   1415.07141     755.4037     473.0568
   1415.05615     753.4126     472.5518   1415.05615     753.4126     472.5518
   1415.04089     751.6599     471.9266   1415.04089     751.6599     471.9266
   1415.02563     749.3273     471.1259   1415.02563     749.3273     471.1259
   1415.01038     747.6534     470.5151   1415.01038     747.6534     470.5151
   1414.99512     746.0595     469.3420   1414.99512     746.0595     469.3420
   1414.97986     743.5747     468.1309   1414.97986     743.5747     468.1309
   1414.96460     744.1264     467.6955   1414.96460     744.1264     467.6955
   1414.94934     743.3173     466.9627   1414.94934     743.3173     466.9627
   1414.93408     740.5469     465.5853   1414.93408     740.5469     465.5853
   1414.91882     738.3287     464.2816   1414.91882     738.3287     464.2816
   1414.90356     737.0002     463.9928   1414.90356     737.0002     463.9928
   1414.88831     734.7485     463.0177   1414.88831     734.7485     463.0177
   1414.87305     732.8708     461.8184   1414.87305     732.8708     461.8184
   1414.85779     731.9669     462.1339   1414.85779     731.9669     462.1339
   1414.84253     730.0823     459.8481   1414.84253     730.0823     459.8481
   1414.82727     727.5293     458.3915   1414.82727     727.5293     458.3915
   1414.81201     725.2287     458.2322   1414.81201     725.2287     458.2322
   1414.79675     724.1230     457.1975   1414.79675     724.1230     457.1975
   1414.78149     720.7184     456.1628   1414.78149     720.7184     456.1628
   1414.76624     720.1443     455.6591   1414.76624     720.1443     455.6591
   1414.75098     717.5505     453.2861   1414.75098     717.5505     453.2861
   1414.73572     716.0966     452.0026   1414.73572     716.0966     452.0026
   1414.72046     713.7656     452.3883   1414.72046     713.7656     452.3883
   1414.70520     711.8378     451.0008   1414.70520     711.8378     451.0008
   1414.68994     709.8585     449.8029   1414.68994     709.8585     449.8029
   1414.67468     708.3095     448.7659   1414.67468     708.3095     448.7659
   1414.65942     705.5098     447.4994   1414.65942     705.5098     447.4994
   1414.64417     703.3872     446.1274   1414.64417     703.3872     446.1274
   1414.62891     700.9475     445.2455   1414.62891     700.9475     445.2455
   1414.61365     699.5464     444.4762   1414.61365     699.5464     444.4762
   1414.59839     696.0280     443.6498   1414.59839     696.0280     443.6498
   1414.58313     694.3354     442.2318   1414.58313     694.3354     442.2318
   1414.56787     691.1175     440.7477   1414.56787     691.1175     440.7477
   1414.55261     689.7802     439.8188   1414.55261     689.7802     439.8188
   1414.53735     686.8062     438.8421   1414.53735     686.8062     438.8421
   1414.52209     685.5633     437.0289   1414.52209     685.5633     437.0289
   1414.50684     681.8121     435.9566   1414.50684     681.8121     435.9566
   1414.49158     680.5393     435.6455   1414.49158     680.5393     435.6455
   1414.47632     678.3763     433.9567   1414.47632     678.3763     433.9567
   1414.46106     675.4186     432.4958   1414.46106     675.4186     432.4958
   1414.44580     672.1323     431.1763   1414.44580     672.1323     431.1763
   1414.43054     670.9909     429.9712   1414.43054     670.9909     429.9712
   1414.41528     668.0361     428.8036   1414.41528     668.0361     428.8036
   1414.40002     665.1081     427.6479   1414.40002     665.1081     427.6479
   1414.38477     663.3692     426.2386   1414.38477     663.3692     426.2386
   1414.36951     660.3098     424.8890   1414.36951     660.3098     424.8890
   1414.35425     657.4296     423.9063   1414.35425     657.4296     423.9063
   1414.33899     655.9414     422.2525   1414.33899     655.9414     422.2525
   1414.32373     654.1005     421.4657   1414.32373     654.1005     421.4657
   1414.30847     649.8337     420.1299   1414.30847     649.8337     420.1299
   1414.29321     648.2839     418.6551   1414.29321     648.2839     418.6551
   1414.27795     645.8892     417.1813   1414.27795     645.8892     417.1813
   1414.26270     643.1339     415.4224   1414.26270     643.1339     415.4224
   1414.24744     639.8403     414.4789   1414.24744     639.8403     414.4789
   1414.23218     637.0015     412.6101   1414.23218     637.0015     412.6101
   1414.21692     635.1648     411.3560   1414.21692     635.1648     411.3560
   1414.20166     633.3755     410.7082   1414.20166     633.3755     410.7082
   1414.18640     629.2596     408.5336   1414.18640     629.2596     408.5336
   1414.17114     627.1882     407.6594   1414.17114     627.1882     407.6594
   1414.15588     624.4971     406.2098   1414.15588     624.4971     406.2098
   1414.14062     622.4448     404.0501   1414.14062     622.4448     404.0501
   1414.12537     618.3658     403.6886   1414.12537     618.3658     403.6886
   1414.11011     615.2001     402.4955   1414.11011     615.2001     402.4955
   1414.09485     611.7032     401.0309   1414.09485     611.7032     401.0309
   1414.07959     609.3031     398.8859   1414.07959     609.3031     398.8859
   1414.06433     606.3845     397.8107   1414.06433     606.3845     397.8107
   1414.04907     604.7772     396.4600   1414.04907     604.7772     396.4600
   1414.03381     601.1666     394.7521   1414.03381     601.1666     394.7521
   1414.01855     599.1110     393.6523   1414.01855     599.1110     393.6523
   1414.00330     604.7463     396.5686   1414.00330     604.7463     396.5686
   1413.98804     592.9742     389.9283   1413.98804     592.9742     389.9283
   1413.97278     589.2699     388.7481   1413.97278     589.2699     388.7481
   1413.95752     587.0180     387.8173   1413.95752     587.0180     387.8173
   1413.94226     583.5142     385.5291   1413.94226     583.5142     385.5291
   1413.92700     580.5380     384.0220   1413.92700     580.5380     384.0220
   1413.91174     577.9207     382.8769   1413.91174     577.9207     382.8769
   1413.89648     574.6128     381.0662   1413.89648     574.6128     381.0662
   1413.88123     571.6895     380.1412   1413.88123     571.6895     380.1412
   1413.86597     569.6852     378.3082   1413.86597     569.6852     378.3082
   1413.85071     566.2277     376.4376   1413.85071     566.2277     376.4376
   1413.83545     562.4542     375.3876   1413.83545     562.4542     375.3876
   1413.82019     560.7942     373.4854   1413.82019     560.7942     373.4854
   1413.80493     557.5735     372.2030   1413.80493     557.5735     372.2030
   1413.78967     554.5578     370.3601   1413.78967     554.5578     370.3601
   1413.77441     550.3340     369.4106   1413.77441     550.3340     369.4106
   1413.75916     547.8178     367.4452   1413.75916     547.8178     367.4452
   1413.74390     544.4369     365.9905   1413.74390     544.4369     365.9905
   1413.72864     542.8766     364.7677   1413.72864     542.8766     364.7677
   1413.71338     539.9333     362.8473   1413.71338     539.9333     362.8473
   1413.69812     535.9945     361.4691   1413.69812     535.9945     361.4691
   1413.68286     532.9349     359.7672   1413.68286     532.9349     359.7672
   1413.66760     528.7579     358.3387   1413.66760     528.7579     358.3387
   1413.65234     525.9944     356.6599   1413.65234     525.9944     356.6599
   1413.63708     524.3531     355.7443   1413.63708     524.3531     355.7443
   1413.62183     520.7095     353.9932   1413.62183     520.7095     353.9932
   1413.60657     517.6403     352.2227   1413.60657     517.6403     352.2227
   1413.59131     515.2169     350.4781   1413.59131     515.2169     350.4781
   1413.57605     511.1783     349.1716   1413.57605     511.1783     349.1716
   1413.56079     509.4089     347.4087   1413.56079     509.4089     347.4087
   1413.54553     506.0797     346.2603   1413.54553     506.0797     346.2603
   1413.53027     503.2856     344.5459   1413.53027     503.2856     344.5459
   1413.51501     499.7154     342.9007   1413.51501     499.7154     342.9007
   1413.49976     497.1693     341.1906   1413.49976     497.1693     341.1906
   1413.48450     494.5299     340.2642   1413.48450     494.5299     340.2642
   1413.46924     491.0576     338.1922   1413.46924     491.0576     338.1922
   1413.45398     487.9688     337.3912   1413.45398     487.9688     337.3912
   1413.43872     485.4645     335.5277   1413.43872     485.4645     335.5277
   1413.42346     482.3370     333.5840   1413.42346     482.3370     333.5840
   1413.40820     479.8332     332.7621   1413.40820     479.8332     332.7621
   1413.39294     477.6487     330.8455   1413.39294     477.6487     330.8455
   1413.37769     473.5492     329.3119   1413.37769     473.5492     329.3119
   1413.36243     471.4532     328.4384   1413.36243     471.4532     328.4384
   1413.34717     468.4283     326.6187   1413.34717     468.4283     326.6187
   1413.33191     465.3402     324.9186   1413.33191     465.3402     324.9186
   1413.31665     463.2337     323.9505   1413.31665     463.2337     323.9505
   1413.30139     459.6790     322.1740   1413.30139     459.6790     322.1740
   1413.28613     456.8646     320.9266   1413.28613     456.8646     320.9266
   1413.27087     454.9250     319.9566   1413.27087     454.9250     319.9566
   1413.25562     452.3532     318.4121   1413.25562     452.3532     318.4121
   1413.24036     449.3917     317.3493   1413.24036     449.3917     317.3493
   1413.22510     447.0502     316.0236   1413.22510     447.0502     316.0236
   1413.20984     444.7124     314.6139   1413.20984     444.7124     314.6139
   1413.19458     441.4979     312.7600   1413.19458     441.4979     312.7600
   1413.17932     439.6106     311.4173   1413.17932     439.6106     311.4173
   1413.16406     436.7654     310.2887   1413.16406     436.7654     310.2887
   1413.14880     434.3820     309.5192   1413.14880     434.3820     309.5192
   1413.13354     432.5194     308.9633   1413.13354     432.5194     308.9633
   1413.11829     429.6916     307.2589   1413.11829     429.6916     307.2589
   1413.10303     427.9942     305.6961   1413.10303     427.9942     305.6961
   1413.08777     424.6086     304.0197   1413.08777     424.6086     304.0197
   1413.07251     423.0039     303.0731   1413.07251     423.0039     303.0731
   1413.05725     420.5169     302.4218   1413.05725     420.5169     302.4218
   1413.04199     417.4785     300.9042   1413.04199     417.4785     300.9042
   1413.02673     415.8601     299.9942   1413.02673     415.8601     299.9942
   1413.01147     413.8922     299.3517   1413.01147     413.8922     299.3517
   1412.99622     411.7045     298.0424   1412.99622     411.7045     298.0424
   1412.98096     409.5370     296.9344   1412.98096     409.5370     296.9344
   1412.96570     407.8646     296.2731   1412.96570     407.8646     296.2731
   1412.95044     405.6464     295.0607   1412.95044     405.6464     295.0607
   1412.93518     402.9643     293.7388   1412.93518     402.9643     293.7388
   1412.91992     401.1492     293.0101   1412.91992     401.1492     293.0101
   1412.90466     399.1849     292.1091   1412.90466     399.1849     292.1091
   1412.88940     398.3369     290.9552   1412.88940     398.3369     290.9552
   1412.87415     395.6493     289.8800   1412.87415     395.6493     289.8800
   1412.85889     393.8640     289.3503   1412.85889     393.8640     289.3503
   1412.84363     392.8786     288.7924   1412.84363     392.8786     288.7924
   1412.82837     391.5256     288.4477   1412.82837     391.5256     288.4477
   1412.81311     389.7706     287.2973   1412.81311     389.7706     287.2973
   1412.79785     387.7601     286.1011   1412.79785     387.7601     286.1011
   1412.78259     386.4679     285.1088   1412.78259     386.4679     285.1088
   1412.76733     385.0906     285.0916   1412.76733     385.0906     285.0916
   1412.75208     383.9955     284.3363   1412.75208     383.9955     284.3363
   1412.73682     382.3620     283.7779   1412.73682     382.3620     283.7779
   1412.72156     380.4816     283.5762   1412.72156     380.4816     283.5762
   1412.70630     379.4514     283.0397   1412.70630     379.4514     283.0397
   1412.69104     378.3893     281.9652   1412.69104     378.3893     281.9652
   1412.67578     377.3257     281.7869   1412.67578     377.3257     281.7869
   1412.66052     375.8945     281.0185   1412.66052     375.8945     281.0185
   1412.64526     375.3022     280.6253   1412.64526     375.3022     280.6253
   1412.63000     374.4632     280.6597   1412.63000     374.4632     280.6597
   1412.61475     372.7711     280.3438   1412.61475     372.7711     280.3438
   1412.59949     372.1583     280.0815   1412.59949     372.1583     280.0815
   1412.58423     371.2405     279.7242   1412.58423     371.2405     279.7242
   1412.56897     370.5912     279.5895   1412.56897     370.5912     279.5895
   1412.55371     370.0446     279.4780   1412.55371     370.0446     279.4780
   1412.53845     369.1599     278.4893   1412.53845     369.1599     278.4893
   1412.52319     368.1359     278.9698   1412.52319     368.1359     278.9698
   1412.50793     367.8460     278.6987   1412.50793     367.8460     278.6987
   1412.49268     367.2000     278.6644   1412.49268     367.2000     278.6644
   1412.47742     366.8715     278.4131   1412.47742     366.8715     278.4131
   1412.46216     366.4215     278.6817   1412.46216     366.4215     278.6817
   1412.44690     366.1091     278.6930   1412.44690     366.1091     278.6930
   1412.43164     365.9093     278.7841   1412.43164     365.9093     278.7841
   1412.41638     365.8363     279.2936   1412.41638     365.8363     279.2936
   1412.40112     365.4830     278.7336   1412.40112     365.4830     278.7336
   1412.38586     365.3206     279.2694   1412.38586     365.3206     279.2694
   1412.37061     364.9713     279.4933   1412.37061     364.9713     279.4933
   1412.35535     365.5183     279.8289   1412.35535     365.5183     279.8289
   1412.34009     365.2450     280.2348   1412.34009     365.2450     280.2348
   1412.32483     365.6862     280.6511   1412.32483     365.6862     280.6511
   1412.30957     365.0148     280.8387   1412.30957     365.0148     280.8387
   1412.29431     366.4784     281.0301   1412.29431     366.4784     281.0301
   1412.27905     365.9963     281.7964   1412.27905     365.9963     281.7964
   1412.26379     366.5023     282.1758   1412.26379     366.5023     282.1758
   1412.24854     366.5963     282.9090   1412.24854     366.5963     282.9090
   1412.23328     367.1296     283.6148   1412.23328     367.1296     283.6148
   1412.21802     368.2254     284.1120   1412.21802     368.2254     284.1120
   1412.20276     368.6357     284.4924   1412.20276     368.6357     284.4924