#     FILENAME=!Skynet_57528_lach-cc-238_20654_21017.cyb.fits
#     BASENAME=Skynet_57528_lach-cc-238_20654_21017
#     SRC_NAME=lach-cc-238
#     OBSERVER=ccmadison16_9505
#     DATE_OBS=2016-05-20T19:09:51.620
#        OBSID=20654
#      SCANNUM=21017
#          MJD=57528.7996
#          UTC=69080
#     SCANTYPE=track
#     DATAMODE=HIRES
#     TUNEFREQ=1420.0000
# Actual_FREQ1=1420.0000
# Actual_FREQ2=1420.0000
#    LO1Tuning=6870.000
#     RFFILTER=1355_1435
#        OBSBW=-15.6250
#        NCHAN=1024 
#        FOCUS=37.0709
#           RA=07:39:38.60
#          DEC=-22:09:06.55
#      RA(hrs)=7.660700
#     DEC(deg)=-22.151800
#    AZIM(deg)=150.547
#    ELEV(deg)=23.551
#     IFattens=10.00, 9.00
#      WARNING=None
#    TCAL_XL1=7.9635
#    TCAL_YR1=9.1340
#    TCAL_XL2=7.9635
#    TCAL_YR2=9.1340
#     TRX_XL1=11.7060
#     TRX_YR1=11.7060
#     TRX_XL2=11.7060
#     TRX_YR2=11.7060
#        TAVE=1.0000
#Freq1(MHz)          XL1          YR1  Freq2(MHz)          XL2          YR2 

   1427.81250     374.6886     295.2765   1427.81250     374.6886     295.2765
   1427.79724     374.9084     295.9502   1427.79724     374.9084     295.9502
   1427.78198     375.1154     296.6184   1427.78198     375.1154     296.6184
   1427.76672     376.4675     296.9706   1427.76672     376.4675     296.9706
   1427.75146     377.3076     297.6690   1427.75146     377.3076     297.6690
   1427.73621     378.2147     298.1894   1427.73621     378.2147     298.1894
   1427.72095     379.1180     299.4085   1427.72095     379.1180     299.4085
   1427.70569     380.2592     300.0993   1427.70569     380.2592     300.0993
   1427.69043     381.1228     300.9181   1427.69043     381.1228     300.9181
   1427.67517     382.5683     301.4204   1427.67517     382.5683     301.4204
   1427.65991     383.7036     302.2871   1427.65991     383.7036     302.2871
   1427.64465     384.6300     303.1147   1427.64465     384.6300     303.1147
   1427.62939     386.1589     304.5486   1427.62939     386.1589     304.5486
   1427.61414     387.1920     304.9737   1427.61414     387.1920     304.9737
   1427.59888     388.5429     306.2137   1427.59888     388.5429     306.2137
   1427.58362     389.8120     307.6039   1427.58362     389.8120     307.6039
   1427.56836     392.7144     308.2273   1427.56836     392.7144     308.2273
   1427.55310     392.9423     309.5993   1427.55310     392.9423     309.5993
   1427.53784     394.6347     311.0093   1427.53784     394.6347     311.0093
   1427.52258     395.7496     312.5953   1427.52258     395.7496     312.5953
   1427.50732     397.2771     313.8644   1427.50732     397.2771     313.8644
   1427.49207     398.7104     315.1187   1427.49207     398.7104     315.1187
   1427.47681     401.2262     316.3660   1427.47681     401.2262     316.3660
   1427.46155     403.4547     318.0428   1427.46155     403.4547     318.0428
   1427.44629     405.1444     319.4737   1427.44629     405.1444     319.4737
   1427.43103     406.0064     320.8040   1427.43103     406.0064     320.8040
   1427.41577     408.3944     322.0669   1427.41577     408.3944     322.0669
   1427.40051     411.0818     324.1712   1427.40051     411.0818     324.1712
   1427.38525     412.4418     325.6343   1427.38525     412.4418     325.6343
   1427.37000     414.4055     326.9881   1427.37000     414.4055     326.9881
   1427.35474     417.5095     328.4182   1427.35474     417.5095     328.4182
   1427.33948     418.8112     330.5778   1427.33948     418.8112     330.5778
   1427.32422     421.3510     332.3134   1427.32422     421.3510     332.3134
   1427.30896     422.1853     334.4838   1427.30896     422.1853     334.4838
   1427.29370     424.8824     335.6443   1427.29370     424.8824     335.6443
   1427.27844     428.1443     337.5432   1427.27844     428.1443     337.5432
   1427.26318     429.7051     340.1204   1427.26318     429.7051     340.1204
   1427.24792     432.5435     342.0498   1427.24792     432.5435     342.0498
   1427.23267     434.1766     343.7442   1427.23267     434.1766     343.7442
   1427.21741     437.6380     346.2099   1427.21741     437.6380     346.2099
   1427.20215     440.0864     347.8400   1427.20215     440.0864     347.8400
   1427.18689     441.9237     349.9749   1427.18689     441.9237     349.9749
   1427.17163     444.5532     351.8330   1427.17163     444.5532     351.8330
   1427.15637     447.2375     353.5657   1427.15637     447.2375     353.5657
   1427.14111     449.5429     355.5139   1427.14111     449.5429     355.5139
   1427.12585     451.6508     357.9461   1427.12585     451.6508     357.9461
   1427.11060     454.9877     359.8324   1427.11060     454.9877     359.8324
   1427.09534     457.8063     362.6003   1427.09534     457.8063     362.6003
   1427.08008     460.7398     364.8223   1427.08008     460.7398     364.8223
   1427.06482     462.9684     366.8662   1427.06482     462.9684     366.8662
   1427.04956     465.8605     368.6107   1427.04956     465.8605     368.6107
   1427.03430     468.5341     371.4759   1427.03430     468.5341     371.4759
   1427.01904     471.2363     373.4615   1427.01904     471.2363     373.4615
   1427.00378     473.6890     376.5477   1427.00378     473.6890     376.5477
   1426.98853     476.2203     378.5551   1426.98853     476.2203     378.5551
   1426.97327     479.7268     381.4447   1426.97327     479.7268     381.4447
   1426.95801     482.4684     383.9830   1426.95801     482.4684     383.9830
   1426.94275     484.8496     385.7773   1426.94275     484.8496     385.7773
   1426.92749     488.5366     388.2917   1426.92749     488.5366     388.2917
   1426.91223     490.4532     390.6457   1426.91223     490.4532     390.6457
   1426.89697     494.2168     393.1679   1426.89697     494.2168     393.1679
   1426.88171     497.5748     395.3705   1426.88171     497.5748     395.3705
   1426.86646     499.2729     398.3730   1426.86646     499.2729     398.3730
   1426.85120     502.8358     400.7386   1426.85120     502.8358     400.7386
   1426.83594     504.8448     402.6048   1426.83594     504.8448     402.6048
   1426.82068     508.5186     405.7491   1426.82068     508.5186     405.7491
   1426.80542     512.1991     407.4743   1426.80542     512.1991     407.4743
   1426.79016     515.0256     410.6529   1426.79016     515.0256     410.6529
   1426.77490     517.7552     413.3889   1426.77490     517.7552     413.3889
   1426.75964     520.8047     415.7112   1426.75964     520.8047     415.7112
   1426.74438     524.1774     418.4442   1426.74438     524.1774     418.4442
   1426.72913     526.6923     420.2404   1426.72913     526.6923     420.2404
   1426.71387     529.2920     424.1038   1426.71387     529.2920     424.1038
   1426.69861     532.6480     425.7174   1426.69861     532.6480     425.7174
   1426.68335     535.2519     427.9807   1426.68335     535.2519     427.9807
   1426.66809     538.6538     431.1718   1426.66809     538.6538     431.1718
   1426.65283     542.8863     434.4170   1426.65283     542.8863     434.4170
   1426.63757     544.8078     436.5018   1426.63757     544.8078     436.5018
   1426.62231     549.7473     440.5712   1426.62231     549.7473     440.5712
   1426.60706     551.0037     442.1673   1426.60706     551.0037     442.1673
   1426.59180     554.1021     444.1635   1426.59180     554.1021     444.1635
   1426.57654     556.5430     446.6163   1426.57654     556.5430     446.6163
   1426.56128     559.7084     449.3952   1426.56128     559.7084     449.3952
   1426.54602     562.3597     451.6593   1426.54602     562.3597     451.6593
   1426.53076     565.9601     454.2408   1426.53076     565.9601     454.2408
   1426.51550     569.9559     456.9054   1426.51550     569.9559     456.9054
   1426.50024     571.5150     459.2775   1426.50024     571.5150     459.2775
   1426.48499     575.7870     463.0682   1426.48499     575.7870     463.0682
   1426.46973     578.5469     464.2852   1426.46973     578.5469     464.2852
   1426.45447     580.2402     466.9063   1426.45447     580.2402     466.9063
   1426.43921     583.9124     469.9382   1426.43921     583.9124     469.9382
   1426.42395     587.5322     473.2224   1426.42395     587.5322     473.2224
   1426.40869     590.0894     475.1739   1426.40869     590.0894     475.1739
   1426.39343     591.9152     477.8669   1426.39343     591.9152     477.8669
   1426.37817     594.8709     480.4437   1426.37817     594.8709     480.4437
   1426.36292     598.2200     482.8386   1426.36292     598.2200     482.8386
   1426.34766     600.4926     484.7695   1426.34766     600.4926     484.7695
   1426.33240     603.3438     487.7958   1426.33240     603.3438     487.7958
   1426.31714     606.5040     490.5006   1426.31714     606.5040     490.5006
   1426.30188     609.3148     492.7127   1426.30188     609.3148     492.7127
   1426.28662     611.6257     495.2904   1426.28662     611.6257     495.2904
   1426.27136     615.2179     497.5680   1426.27136     615.2179     497.5680
   1426.25610     617.0107     500.1417   1426.25610     617.0107     500.1417
   1426.24084     620.7309     502.9987   1426.24084     620.7309     502.9987
   1426.22559     623.6578     505.3953   1426.22559     623.6578     505.3953
   1426.21033     626.2358     508.2483   1426.21033     626.2358     508.2483
   1426.19507     627.5516     510.5461   1426.19507     627.5516     510.5461
   1426.17981     631.6470     512.7166   1426.17981     631.6470     512.7166
   1426.16455     634.5204     514.5223   1426.16455     634.5204     514.5223
   1426.14929     636.4163     517.9236   1426.14929     636.4163     517.9236
   1426.13403     638.9680     520.1237   1426.13403     638.9680     520.1237
   1426.11877     641.2194     521.7413   1426.11877     641.2194     521.7413
   1426.10352     644.5888     524.9594   1426.10352     644.5888     524.9594
   1426.08826     644.9719     527.4018   1426.08826     644.9719     527.4018
   1426.07300     649.6398     529.4466   1426.07300     649.6398     529.4466
   1426.05774     651.4828     531.7682   1426.05774     651.4828     531.7682
   1426.04248     654.3887     533.3208   1426.04248     654.3887     533.3208
   1426.02722     656.7263     536.3762   1426.02722     656.7263     536.3762
   1426.01196     658.8726     538.0358   1426.01196     658.8726     538.0358
   1425.99670     660.9177     540.5904   1425.99670     660.9177     540.5904
   1425.98145     663.3368     543.6792   1425.98145     663.3368     543.6792
   1425.96619     665.9912     544.9201   1425.96619     665.9912     544.9201
   1425.95093     666.7327     548.0576   1425.95093     666.7327     548.0576
   1425.93567     668.8140     550.2800   1425.93567     668.8140     550.2800
   1425.92041     671.3177     551.9299   1425.92041     671.3177     551.9299
   1425.90515     674.3799     553.8315   1425.90515     674.3799     553.8315
   1425.88989     675.6227     555.8512   1425.88989     675.6227     555.8512
   1425.87463     678.5601     558.4879   1425.87463     678.5601     558.4879
   1425.85938     681.5944     560.8040   1425.85938     681.5944     560.8040
   1425.84412     682.7207     562.1517   1425.84412     682.7207     562.1517
   1425.82886     685.0605     564.6697   1425.82886     685.0605     564.6697
   1425.81360     686.2065     566.2756   1425.81360     686.2065     566.2756
   1425.79834     689.4597     569.7780   1425.79834     689.4597     569.7780
   1425.78308     690.8169     570.3136   1425.78308     690.8169     570.3136
   1425.76782     692.5116     572.1498   1425.76782     692.5116     572.1498
   1425.75256     694.2314     575.3741   1425.75256     694.2314     575.3741
   1425.73730     694.0179     575.9080   1425.73730     694.0179     575.9080
   1425.72205     698.7242     578.8931   1425.72205     698.7242     578.8931
   1425.70679     699.6004     579.6531   1425.70679     699.6004     579.6531
   1425.69153     701.4056     582.5453   1425.69153     701.4056     582.5453
   1425.67627     703.0761     584.2812   1425.67627     703.0761     584.2812
   1425.66101     705.2672     586.0992   1425.66101     705.2672     586.0992
   1425.64575     706.0693     587.7148   1425.64575     706.0693     587.7148
   1425.63049     708.5840     589.6015   1425.63049     708.5840     589.6015
   1425.61523     709.1186     591.8228   1425.61523     709.1186     591.8228
   1425.59998     711.3329     593.7902   1425.59998     711.3329     593.7902
   1425.58472     713.4614     595.0859   1425.58472     713.4614     595.0859
   1425.56946     713.5550     596.2975   1425.56946     713.5550     596.2975
   1425.55420     715.5099     597.6865   1425.55420     715.5099     597.6865
   1425.53894     717.7853     600.5109   1425.53894     717.7853     600.5109
   1425.52368     719.2732     602.5404   1425.52368     719.2732     602.5404
   1425.50842     719.7294     603.7112   1425.50842     719.7294     603.7112
   1425.49316     720.9128     605.7558   1425.49316     720.9128     605.7558
   1425.47791     723.1176     607.4158   1425.47791     723.1176     607.4158
   1425.46265     724.0623     609.2907   1425.46265     724.0623     609.2907
   1425.44739     725.4420     610.0309   1425.44739     725.4420     610.0309
   1425.43213     726.2197     611.9767   1425.43213     726.2197     611.9767
   1425.41687     728.4700     613.3503   1425.41687     728.4700     613.3503
   1425.40161     727.9607     615.2366   1425.40161     727.9607     615.2366
   1425.38635     730.2272     619.6667   1425.38635     730.2272     619.6667
   1425.37109     730.6544     618.8370   1425.37109     730.6544     618.8370
   1425.35583     733.6334     620.4738   1425.35583     733.6334     620.4738
   1425.34058     734.5884     621.1454   1425.34058     734.5884     621.1454
   1425.32532     734.8383     621.9925   1425.32532     734.8383     621.9925
   1425.31006     736.5626     624.1196   1425.31006     736.5626     624.1196
   1425.29480     736.1585     624.8223   1425.29480     736.1585     624.8223
   1425.27954     738.0540     627.1212   1425.27954     738.0540     627.1212
   1425.26428     738.7764     629.1015   1425.26428     738.7764     629.1015
   1425.24902     740.5695     630.7846   1425.24902     740.5695     630.7846
   1425.23376     740.2844     631.1158   1425.23376     740.2844     631.1158
   1425.21851     740.6620     633.1525   1425.21851     740.6620     633.1525
   1425.20325     741.5593     634.3730   1425.20325     741.5593     634.3730
   1425.18799     742.3154     636.1464   1425.18799     742.3154     636.1464
   1425.17273     743.9560     637.6006   1425.17273     743.9560     637.6006
   1425.15747     745.0208     638.1937   1425.15747     745.0208     638.1937
   1425.14221     746.1665     640.0081   1425.14221     746.1665     640.0081
   1425.12695     749.9263     642.0725   1425.12695     749.9263     642.0725
   1425.11169     747.2142     643.1539   1425.11169     747.2142     643.1539
   1425.09644     747.3505     643.6729   1425.09644     747.3505     643.6729
   1425.08118     747.8538     644.6906   1425.08118     747.8538     644.6906
   1425.06592     748.0279     646.0368   1425.06592     748.0279     646.0368
   1425.05066     749.0529     647.4462   1425.05066     749.0529     647.4462
   1425.03540     749.5017     647.2941   1425.03540     749.5017     647.2941
   1425.02014     751.0084     649.6434   1425.02014     751.0084     649.6434
   1425.00488     751.0250     652.2243   1425.00488     751.0250     652.2243
   1424.98962     752.2322     652.5088   1424.98962     752.2322     652.5088
   1424.97437     752.7039     653.2515   1424.97437     752.7039     653.2515
   1424.95911     751.5564     655.8652   1424.95911     751.5564     655.8652
   1424.94385     752.9077     655.5374   1424.94385     752.9077     655.5374
   1424.92859     752.9957     656.7756   1424.92859     752.9957     656.7756
   1424.91333     753.7740     657.4232   1424.91333     753.7740     657.4232
   1424.89807     754.4470     659.4617   1424.89807     754.4470     659.4617
   1424.88281     753.5302     659.9158   1424.88281     753.5302     659.9158
   1424.86755     754.0113     660.3422   1424.86755     754.0113     660.3422
   1424.85229     754.4084     661.8583   1424.85229     754.4084     661.8583
   1424.83704     755.2436     662.8143   1424.83704     755.2436     662.8143
   1424.82178     755.1077     664.2061   1424.82178     755.1077     664.2061
   1424.80652     756.9553     665.6257   1424.80652     756.9553     665.6257
   1424.79126     755.7679     665.7466   1424.79126     755.7679     665.7466
   1424.77600     755.7372     666.7134   1424.77600     755.7372     666.7134
   1424.76074     756.2617     668.1940   1424.76074     756.2617     668.1940
   1424.74548     756.3320     668.6298   1424.74548     756.3320     668.6298
   1424.73022     758.0591     669.5295   1424.73022     758.0591     669.5295
   1424.71497     758.4866     670.5007   1424.71497     758.4866     670.5007
   1424.69971     756.2997     672.2484   1424.69971     756.2997     672.2484
   1424.68445     758.0452     672.2107   1424.68445     758.0452     672.2107
   1424.66919     757.1563     673.4192   1424.66919     757.1563     673.4192
   1424.65393     757.2283     674.0118   1424.65393     757.2283     674.0118
   1424.63867     757.9683     674.4526   1424.63867     757.9683     674.4526
   1424.62341     759.2559     676.2350   1424.62341     759.2559     676.2350
   1424.60815     757.5711     678.0737   1424.60815     757.5711     678.0737
   1424.59290     756.3460     677.6132   1424.59290     756.3460     677.6132
   1424.57764     758.3591     678.7000   1424.57764     758.3591     678.7000
   1424.56238     758.7060     680.0134   1424.56238     758.7060     680.0134
   1424.54712     757.8405     680.8824   1424.54712     757.8405     680.8824
   1424.53186     759.0409     680.3925   1424.53186     759.0409     680.3925
   1424.51660     757.5761     683.6167   1424.51660     757.5761     683.6167
   1424.50134     758.2695     682.7313   1424.50134     758.2695     682.7313
   1424.48608     759.8607     684.3649   1424.48608     759.8607     684.3649
   1424.47083     757.7374     684.7216   1424.47083     757.7374     684.7216
   1424.45557     757.6843     685.1999   1424.45557     757.6843     685.1999
   1424.44031     758.6407     686.0328   1424.44031     758.6407     686.0328
   1424.42505     757.3813     685.7119   1424.42505     757.3813     685.7119
   1424.40979     757.8406     687.2404   1424.40979     757.8406     687.2404
   1424.39453     758.4221     686.5606   1424.39453     758.4221     686.5606
   1424.37927     759.2238     687.1172   1424.37927     759.2238     687.1172
   1424.36401     759.6739     690.2831   1424.36401     759.6739     690.2831
   1424.34875     757.9215     689.8580   1424.34875     757.9215     689.8580
   1424.33350     757.9690     689.6569   1424.33350     757.9690     689.6569
   1424.31824     758.4293     690.6140   1424.31824     758.4293     690.6140
   1424.30298     757.3304     691.8812   1424.30298     757.3304     691.8812
   1424.28772     756.7365     691.7227   1424.28772     756.7365     691.7227
   1424.27246     757.4870     692.8204   1424.27246     757.4870     692.8204
   1424.25720     757.5063     694.1942   1424.25720     757.5063     694.1942
   1424.24194     758.3258     692.3521   1424.24194     758.3258     692.3521
   1424.22668     756.7438     694.8934   1424.22668     756.7438     694.8934
   1424.21143     758.1989     695.4037   1424.21143     758.1989     695.4037
   1424.19617     757.5660     695.7132   1424.19617     757.5660     695.7132
   1424.18091     756.5847     694.0817   1424.18091     756.5847     694.0817
   1424.16565     757.2393     696.0425   1424.16565     757.2393     696.0425
   1424.15039     756.9322     696.9196   1424.15039     756.9322     696.9196
   1424.13513     756.0099     697.0922   1424.13513     756.0099     697.0922
   1424.11987     756.3526     697.8614   1424.11987     756.3526     697.8614
   1424.10461     756.4208     697.4592   1424.10461     756.4208     697.4592
   1424.08936     757.0862     699.0497   1424.08936     757.0862     699.0497
   1424.07410     757.0137     698.7512   1424.07410     757.0137     698.7512
   1424.05884     755.2171     699.7197   1424.05884     755.2171     699.7197
   1424.04358     755.2416     700.2475   1424.04358     755.2416     700.2475
   1424.02832     755.4161     699.6172   1424.02832     755.4161     699.6172
   1424.01306     754.7831     699.2051   1424.01306     754.7831     699.2051
   1423.99780     755.5911     700.6606   1423.99780     755.5911     700.6606
   1423.98254     754.4571     701.4310   1423.98254     754.4571     701.4310
   1423.96729     754.5049     701.0729   1423.96729     754.5049     701.0729
   1423.95203     754.4029     701.3602   1423.95203     754.4029     701.3602
   1423.93677     754.7681     702.2363   1423.93677     754.7681     702.2363
   1423.92151     755.0714     702.2236   1423.92151     755.0714     702.2236
   1423.90625     754.7809     702.8223   1423.90625     754.7809     702.8223
   1423.89099     753.1452     702.1713   1423.89099     753.1452     702.1713
   1423.87573     753.9564     702.1769   1423.87573     753.9564     702.1769
   1423.86047     751.1057     702.0781   1423.86047     751.1057     702.0781
   1423.84521     754.1187     703.1817   1423.84521     754.1187     703.1817
   1423.82996     753.5302     703.6290   1423.82996     753.5302     703.6290
   1423.81470     752.7838     703.2016   1423.81470     752.7838     703.2016
   1423.79944     752.4140     703.4191   1423.79944     752.4140     703.4191
   1423.78418     750.8464     704.1564   1423.78418     750.8464     704.1564
   1423.76892     752.7311     703.5104   1423.76892     752.7311     703.5104
   1423.75366     752.0021     703.8309   1423.75366     752.0021     703.8309
   1423.73840     751.5570     702.7116   1423.73840     751.5570     702.7116
   1423.72314     751.0891     704.4734   1423.72314     751.0891     704.4734
   1423.70789     751.5284     702.1359   1423.70789     751.5284     702.1359
   1423.69263     749.4408     703.6234   1423.69263     749.4408     703.6234
   1423.67737     749.4252     704.6462   1423.67737     749.4252     704.6462
   1423.66211     750.1057     703.6051   1423.66211     750.1057     703.6051
   1423.64685     749.8226     703.7440   1423.64685     749.8226     703.7440
   1423.63159     751.2842     703.8782   1423.63159     751.2842     703.8782
   1423.61633     750.7687     703.3271   1423.61633     750.7687     703.3271
   1423.60107     750.1558     702.3461   1423.60107     750.1558     702.3461
   1423.58582     748.6598     702.2662   1423.58582     748.6598     702.2662
   1423.57056     748.9813     702.2257   1423.57056     748.9813     702.2257
   1423.55530     748.9517     701.9053   1423.55530     748.9517     701.9053
   1423.54004     749.5826     702.3693   1423.54004     749.5826     702.3693
   1423.52478     748.7787     702.2172   1423.52478     748.7787     702.2172
   1423.50952     747.8633     702.2092   1423.50952     747.8633     702.2092
   1423.49426     748.2125     702.2324   1423.49426     748.2125     702.2324
   1423.47900     747.5335     701.6335   1423.47900     747.5335     701.6335
   1423.46375     748.0645     700.8019   1423.46375     748.0645     700.8019
   1423.44849     746.6320     701.0298   1423.44849     746.6320     701.0298
   1423.43323     747.0294     700.1221   1423.43323     747.0294     700.1221
   1423.41797     747.5540     700.3303   1423.41797     747.5540     700.3303
   1423.40271     747.1428     699.2137   1423.40271     747.1428     699.2137
   1423.38745     745.6143     698.4931   1423.38745     745.6143     698.4931
   1423.37219     746.8539     699.2457   1423.37219     746.8539     699.2457
   1423.35693     745.2686     698.9912   1423.35693     745.2686     698.9912
   1423.34167     744.7837     697.4368   1423.34167     744.7837     697.4368
   1423.32642     745.8058     696.3857   1423.32642     745.8058     696.3857
   1423.31116     746.0709     696.2335   1423.31116     746.0709     696.2335
   1423.29590     744.4782     697.2611   1423.29590     744.4782     697.2611
   1423.28064     745.1291     695.4771   1423.28064     745.1291     695.4771
   1423.26538     745.4133     695.6147   1423.26538     745.4133     695.6147
   1423.25012     743.1149     693.8928   1423.25012     743.1149     693.8928
   1423.23486     744.0519     694.5620   1423.23486     744.0519     694.5620
   1423.21960     743.8216     694.0207   1423.21960     743.8216     694.0207
   1423.20435     743.8129     692.0742   1423.20435     743.8129     692.0742
   1423.18909     743.0401     692.7812   1423.18909     743.0401     692.7812
   1423.17383     743.4882     691.0498   1423.17383     743.4882     691.0498
   1423.15857     742.5779     690.0840   1423.15857     742.5779     690.0840
   1423.14331     742.5233     689.1529   1423.14331     742.5233     689.1529
   1423.12805     742.7077     688.9902   1423.12805     742.7077     688.9902
   1423.11279     742.2034     688.5570   1423.11279     742.2034     688.5570
   1423.09753     743.0821     687.2332   1423.09753     743.0821     687.2332
   1423.08228     741.7610     687.0396   1423.08228     741.7610     687.0396
   1423.06702     741.0463     686.0048   1423.06702     741.0463     686.0048
   1423.05176     740.6980     684.7175   1423.05176     740.6980     684.7175
   1423.03650     742.0436     684.8938   1423.03650     742.0436     684.8938
   1423.02124     740.8738     682.7624   1423.02124     740.8738     682.7624
   1423.00598     739.5682     683.2663   1423.00598     739.5682     683.2663
   1422.99072     740.2981     682.3481   1422.99072     740.2981     682.3481
   1422.97546     740.2429     680.3315   1422.97546     740.2429     680.3315
   1422.96021     739.0721     680.2385   1422.96021     739.0721     680.2385
   1422.94495     738.8682     678.7623   1422.94495     738.8682     678.7623
   1422.92969     739.2553     678.3503   1422.92969     739.2553     678.3503
   1422.91443     739.0970     676.9147   1422.91443     739.0970     676.9147
   1422.89917     738.1523     675.8498   1422.89917     738.1523     675.8498
   1422.88391     737.4109     675.1544   1422.88391     737.4109     675.1544
   1422.86865     738.7307     673.7693   1422.86865     738.7307     673.7693
   1422.85339     738.2370     673.0945   1422.85339     738.2370     673.0945
   1422.83813     737.0392     672.3142   1422.83813     737.0392     672.3142
   1422.82288     738.0318     670.8077   1422.82288     738.0318     670.8077
   1422.80762     738.2850     668.7972   1422.80762     738.2850     668.7972
   1422.79236     737.2412     668.3992   1422.79236     737.2412     668.3992
   1422.77710     737.3829     666.3931   1422.77710     737.3829     666.3931
   1422.76184     735.9767     666.8235   1422.76184     735.9767     666.8235
   1422.74658     737.4212     664.7178   1422.74658     737.4212     664.7178
   1422.73132     735.6865     664.4022   1422.73132     735.6865     664.4022
   1422.71606     736.5190     662.3878   1422.71606     736.5190     662.3878
   1422.70081     734.9722     660.9707   1422.70081     734.9722     660.9707
   1422.68555     736.1020     659.0582   1422.68555     736.1020     659.0582
   1422.67029     734.9996     658.8987   1422.67029     734.9996     658.8987
   1422.65503     734.8394     656.8001   1422.65503     734.8394     656.8001
   1422.63977     735.5450     655.6197   1422.63977     735.5450     655.6197
   1422.62451     734.5469     654.4044   1422.62451     734.5469     654.4044
   1422.60925     733.8624     653.0803   1422.60925     733.8624     653.0803
   1422.59399     733.7278     652.5412   1422.59399     733.7278     652.5412
   1422.57874     733.7297     651.2013   1422.57874     733.7297     651.2013
   1422.56348     734.2098     649.2941   1422.56348     734.2098     649.2941
   1422.54822     732.7742     647.6682   1422.54822     732.7742     647.6682
   1422.53296     733.3846     646.2014   1422.53296     733.3846     646.2014
   1422.51770     732.6807     645.4498   1422.51770     732.6807     645.4498
   1422.50244     732.1369     643.7637   1422.50244     732.1369     643.7637
   1422.48718     732.3563     642.3072   1422.48718     732.3563     642.3072
   1422.47192     732.8923     640.9778   1422.47192     732.8923     640.9778
   1422.45667     732.4883     639.4754   1422.45667     732.4883     639.4754
   1422.44141     732.1331     638.1725   1422.44141     732.1331     638.1725
   1422.42615     730.9576     636.7335   1422.42615     730.9576     636.7335
   1422.41089     731.4900     635.4709   1422.41089     731.4900     635.4709
   1422.39563     730.8102     634.4361   1422.39563     730.8102     634.4361
   1422.38037     731.9368     632.6006   1422.38037     731.9368     632.6006
   1422.36511     730.9294     631.5087   1422.36511     730.9294     631.5087
   1422.34985     731.4757     630.3067   1422.34985     731.4757     630.3067
   1422.33459     731.3955     628.2540   1422.33459     731.3955     628.2540
   1422.31934     730.3769     627.6200   1422.31934     730.3769     627.6200
   1422.30408     730.4095     625.0688   1422.30408     730.4095     625.0688
   1422.28882     731.1550     623.7523   1422.28882     731.1550     623.7523
   1422.27356     728.8760     623.1306   1422.27356     728.8760     623.1306
   1422.25830     729.0226     620.3892   1422.25830     729.0226     620.3892
   1422.24304     729.1990     619.3325   1422.24304     729.1990     619.3325
   1422.22778     728.1505     618.5028   1422.22778     728.1505     618.5028
   1422.21252     727.9366     616.6526   1422.21252     727.9366     616.6526
   1422.19727     728.9595     615.7164   1422.19727     728.9595     615.7164
   1422.18201     728.2699     613.6846   1422.18201     728.2699     613.6846
   1422.16675     727.6821     611.5092   1422.16675     727.6821     611.5092
   1422.15149     727.8646     610.7751   1422.15149     727.8646     610.7751
   1422.13623     727.2806     608.9879   1422.13623     727.2806     608.9879
   1422.12097     726.9954     607.9861   1422.12097     726.9954     607.9861
   1422.10571     728.1846     605.8196   1422.10571     728.1846     605.8196
   1422.09045     727.1732     604.3279   1422.09045     727.1732     604.3279
   1422.07520     726.6939     603.4893   1422.07520     726.6939     603.4893
   1422.05994     726.7592     601.1949   1422.05994     726.7592     601.1949
   1422.04468     725.9518     599.3549   1422.04468     725.9518     599.3549
   1422.02942     723.8973     597.6578   1422.02942     723.8973     597.6578
   1422.01416     726.3164     595.4956   1422.01416     726.3164     595.4956
   1421.99890     726.2651     595.5170   1421.99890     726.2651     595.5170
   1421.98364     725.6100     593.1420   1421.98364     725.6100     593.1420
   1421.96838     725.2200     592.5436   1421.96838     725.2200     592.5436
   1421.95312     724.9090     590.7362   1421.95312     724.9090     590.7362
   1421.93787     726.0588     588.8296   1421.93787     726.0588     588.8296
   1421.92261     723.8799     587.6722   1421.92261     723.8799     587.6722
   1421.90735     723.7590     585.7441   1421.90735     723.7590     585.7441
   1421.89209     723.2043     583.8903   1421.89209     723.2043     583.8903
   1421.87683     725.3403     582.8638   1421.87683     725.3403     582.8638
   1421.86157     723.4719     580.8654   1421.86157     723.4719     580.8654
   1421.84631     722.7378     579.9664   1421.84631     722.7378     579.9664
   1421.83105     722.5786     577.8025   1421.83105     722.5786     577.8025
   1421.81580     723.1732     577.1488   1421.81580     723.1732     577.1488
   1421.80054     723.2457     575.2468   1421.80054     723.2457     575.2468
   1421.78528     723.0575     574.0794   1421.78528     723.0575     574.0794
   1421.77002     721.7559     572.9964   1421.77002     721.7559     572.9964
   1421.75476     722.0386     570.3018   1421.75476     722.0386     570.3018
   1421.73950     721.8494     568.4634   1421.73950     721.8494     568.4634
   1421.72424     721.4567     567.0444   1421.72424     721.4567     567.0444
   1421.70898     721.5671     565.9495   1421.70898     721.5671     565.9495
   1421.69373     720.4316     564.7358   1421.69373     720.4316     564.7358
   1421.67847     720.9412     562.8419   1421.67847     720.9412     562.8419
   1421.66321     720.6216     562.0871   1421.66321     720.6216     562.0871
   1421.64795     719.9768     560.6204   1421.64795     719.9768     560.6204
   1421.63269     720.8342     558.7188   1421.63269     720.8342     558.7188
   1421.61743     720.7435     557.3021   1421.61743     720.7435     557.3021
   1421.60217     719.9388     556.2529   1421.60217     719.9388     556.2529
   1421.58691     719.4825     554.1796   1421.58691     719.4825     554.1796
   1421.57166     718.6836     552.8371   1421.57166     718.6836     552.8371
   1421.55640     718.4933     551.7194   1421.55640     718.4933     551.7194
   1421.54114     719.1811     550.6745   1421.54114     719.1811     550.6745
   1421.52588     718.9449     548.1705   1421.52588     718.9449     548.1705
   1421.51062     718.3887     547.5558   1421.51062     718.3887     547.5558
   1421.49536     717.8685     546.4014   1421.49536     717.8685     546.4014
   1421.48010     716.9829     544.7080   1421.48010     716.9829     544.7080
   1421.46484     718.5124     543.2291   1421.46484     718.5124     543.2291
   1421.44958     717.2451     541.6403   1421.44958     717.2451     541.6403
   1421.43433     717.4330     540.7848   1421.43433     717.4330     540.7848
   1421.41907     716.8116     538.4153   1421.41907     716.8116     538.4153
   1421.40381     716.7632     536.9166   1421.40381     716.7632     536.9166
   1421.38855     716.0208     536.4124   1421.38855     716.0208     536.4124
   1421.37329     716.0105     534.2695   1421.37329     716.0105     534.2695
   1421.35803     714.7582     533.1678   1421.35803     714.7582     533.1678
   1421.34277     715.8255     531.3171   1421.34277     715.8255     531.3171
   1421.32751     714.8708     530.8723   1421.32751     714.8708     530.8723
   1421.31226     714.4348     530.0566   1421.31226     714.4348     530.0566
   1421.29700     714.5524     528.0666   1421.29700     714.5524     528.0666
   1421.28174     714.9457     526.8563   1421.28174     714.9457     526.8563
   1421.26648     713.1703     525.4410   1421.26648     713.1703     525.4410
   1421.25122     713.7990     524.6605   1421.25122     713.7990     524.6605
   1421.23596     713.5198     522.2646   1421.23596     713.5198     522.2646
   1421.22070     714.2197     521.4700   1421.22070     714.2197     521.4700
   1421.20544     712.6328     520.1523   1421.20544     712.6328     520.1523
   1421.19019     713.4368     519.3129   1421.19019     713.4368     519.3129
   1421.17493     711.8940     517.4909   1421.17493     711.8940     517.4909
   1421.15967     711.1569     516.6475   1421.15967     711.1569     516.6475
   1421.14441     712.6369     514.1606   1421.14441     712.6369     514.1606
   1421.12915     711.5845     512.9725   1421.12915     711.5845     512.9725
   1421.11389     711.3471     512.7319   1421.11389     711.3471     512.7319
   1421.09863     712.2069     511.5292   1421.09863     712.2069     511.5292
   1421.08337     710.6709     509.6596   1421.08337     710.6709     509.6596
   1421.06812     710.3456     507.7842   1421.06812     710.3456     507.7842
   1421.05286     710.8733     507.2623   1421.05286     710.8733     507.2623
   1421.03760     710.3568     505.9981   1421.03760     710.3568     505.9981
   1421.02234     709.8347     504.7311   1421.02234     709.8347     504.7311
   1421.00708     710.4456     503.8535   1421.00708     710.4456     503.8535
   1420.99182     710.5084     503.3693   1420.99182     710.5084     503.3693
   1420.97656     709.7095     502.5451   1420.97656     709.7095     502.5451
   1420.96130     708.9736     500.6925   1420.96130     708.9736     500.6925
   1420.94604     708.9304     500.4339   1420.94604     708.9304     500.4339
   1420.93079     709.2810     497.9052   1420.93079     709.2810     497.9052
   1420.91553     708.6895     497.1041   1420.91553     708.6895     497.1041
   1420.90027     708.9789     495.4767   1420.90027     708.9789     495.4767
   1420.88501     707.4858     495.0438   1420.88501     707.4858     495.0438
   1420.86975     707.9333     493.2752   1420.86975     707.9333     493.2752
   1420.85449     707.8901     492.9794   1420.85449     707.8901     492.9794
   1420.83923     707.4741     492.7237   1420.83923     707.4741     492.7237
   1420.82397     707.2947     491.1929   1420.82397     707.2947     491.1929
   1420.80872     706.3952     489.5549   1420.80872     706.3952     489.5549
   1420.79346     708.1110     488.9591   1420.79346     708.1110     488.9591
   1420.77820     707.3067     488.4768   1420.77820     707.3067     488.4768
   1420.76294     707.5714     487.4382   1420.76294     707.5714     487.4382
   1420.74768     707.3040     486.1735   1420.74768     707.3040     486.1735
   1420.73242     706.9836     485.5073   1420.73242     706.9836     485.5073
   1420.71716     708.4070     484.6288   1420.71716     708.4070     484.6288
   1420.70190     707.4531     483.9586   1420.70190     707.4531     483.9586
   1420.68665     707.5652     482.3678   1420.68665     707.5652     482.3678
   1420.67139     706.6252     481.2205   1420.67139     706.6252     481.2205
   1420.65613     707.4275     480.3998   1420.65613     707.4275     480.3998
   1420.64087     707.4255     480.4354   1420.64087     707.4255     480.4354
   1420.62561     707.2587     479.3102   1420.62561     707.2587     479.3102
   1420.61035     706.2666     478.5056   1420.61035     706.2666     478.5056
   1420.59509     706.8747     476.4055   1420.59509     706.8747     476.4055
   1420.57983     705.7642     475.8919   1420.57983     705.7642     475.8919
   1420.56458     708.4370     476.2891   1420.56458     708.4370     476.2891
   1420.54932     709.5519     476.3747   1420.54932     709.5519     476.3747
   1420.53406     710.6136     475.5467   1420.53406     710.6136     475.5467
   1420.51880     709.8852     474.9927   1420.51880     709.8852     474.9927
   1420.50354     710.2894     475.2178   1420.50354     710.2894     475.2178
   1420.48828     710.1327     473.9112   1420.48828     710.1327     473.9112
   1420.47302     710.2585     473.5301   1420.47302     710.2585     473.5301
   1420.45776     709.7083     471.4379   1420.45776     709.7083     471.4379
   1420.44250     709.7864     471.0347   1420.44250     709.7864     471.0347
   1420.42725     710.2154     469.8470   1420.42725     710.2154     469.8470
   1420.41199     709.0184     467.9736   1420.41199     709.0184     467.9736
   1420.39673     707.9494     466.5985   1420.39673     707.9494     466.5985
   1420.38147     707.9073     466.8662   1420.38147     707.9073     466.8662
   1420.36621     707.6078     466.1881   1420.36621     707.6078     466.1881
   1420.35095     707.7176     465.1981   1420.35095     707.7176     465.1981
   1420.33569     709.5674     465.3248   1420.33569     709.5674     465.3248
   1420.32043     710.1752     464.8529   1420.32043     710.1752     464.8529
   1420.30518     712.2963     466.5995   1420.30518     712.2963     466.5995
   1420.28992     716.3674     469.0658   1420.28992     716.3674     469.0658
   1420.27466     732.6187     477.7606   1420.27466     732.6187     477.7606
   1420.25940     782.4098     508.3617   1420.25940     782.4098     508.3617
   1420.24414     876.3936     565.9034   1420.24414     876.3936     565.9034
   1420.22888     911.9589     587.1752   1420.22888     911.9589     587.1752
   1420.21362     894.4875     576.3061   1420.21362     894.4875     576.3061
   1420.19836     888.8109     571.3090   1420.19836     888.8109     571.3090
   1420.18311     959.1431     614.9028   1420.18311     959.1431     614.9028
   1420.16785    1146.7959     729.4532   1420.16785    1146.7959     729.4532
   1420.15259    1556.6384     978.8594   1420.15259    1556.6384     978.8594
   1420.13733    1958.0304    1225.2189   1420.13733    1958.0304    1225.2189
   1420.12207    1821.4524    1142.2723   1420.12207    1821.4524    1142.2723
   1420.10681    1482.0990     933.8165   1420.10681    1482.0990     933.8165
   1420.09155    1123.2607     711.2614   1420.09155    1123.2607     711.2614
   1420.07629     911.6238     579.7199   1420.07629     911.6238     579.7199
   1420.06104     821.4509     522.4292   1420.06104     821.4509     522.4292
   1420.04578     792.7253     505.6603   1420.04578     792.7253     505.6603
   1420.03052     801.9543     510.2493   1420.03052     801.9543     510.2493
   1420.01526     856.1497     539.8376   1420.01526     856.1497     539.8376
   1420.00000     998.3741     628.0214   1420.00000     998.3741     628.0214
   1419.98474    1140.5989     716.2051   1419.98474    1140.5989     716.2051
   1419.96948    1414.4268     880.1249   1419.96948    1414.4268     880.1249
   1419.95422    1620.5098    1004.6268   1419.95422    1620.5098    1004.6268
   1419.93896    1648.8192    1017.9210   1419.93896    1648.8192    1017.9210
   1419.92371    1591.4084     983.7468   1419.92371    1591.4084     983.7468
   1419.90845    1510.2139     933.9927   1419.90845    1510.2139     933.9927
   1419.89319    1347.8962     834.6996   1419.89319    1347.8962     834.6996
   1419.87793    1293.9806     802.1063   1419.87793    1293.9806     802.1063
   1419.86267    1338.4280     827.6055   1419.86267    1338.4280     827.6055
   1419.84741    1354.5037     836.5206   1419.84741    1354.5037     836.5206
   1419.83215    1314.9343     813.1248   1419.83215    1314.9343     813.1248
   1419.81689    1232.8151     763.2625   1419.81689    1232.8151     763.2625
   1419.80164    1118.3881     693.4794   1419.80164    1118.3881     693.4794
   1419.78638    1012.1378     628.9658   1419.78638    1012.1378     628.9658
   1419.77112     928.6607     575.6960   1419.77112     928.6607     575.6960
   1419.75586     870.9200     541.4619   1419.75586     870.9200     541.4619
   1419.74060     833.1490     518.3203   1419.74060     833.1490     518.3203
   1419.72534     807.2767     502.4189   1419.72534     807.2767     502.4189
   1419.71008     788.2505     489.9328   1419.71008     788.2505     489.9328
   1419.69482     770.1565     479.6434   1419.69482     770.1565     479.6434
   1419.67957     754.8214     470.8260   1419.67957     754.8214     470.8260
   1419.66431     742.2648     461.1208   1419.66431     742.2648     461.1208
   1419.64905     728.9274     453.3518   1419.64905     728.9274     453.3518
   1419.63379     720.9883     447.9359   1419.63379     720.9883     447.9359
   1419.61853     714.1001     443.9740   1419.61853     714.1001     443.9740
   1419.60327     710.0840     440.8325   1419.60327     710.0840     440.8325
   1419.58801     707.3751     439.2549   1419.58801     707.3751     439.2549
   1419.57275     706.0505     437.5396   1419.57275     706.0505     437.5396
   1419.55750     704.8790     436.1509   1419.55750     704.8790     436.1509
   1419.54224     705.1691     436.5432   1419.54224     705.1691     436.5432
   1419.52698     703.4106     435.1402   1419.52698     703.4106     435.1402
   1419.51172     703.2911     434.7119   1419.51172     703.2911     434.7119
   1419.49646     703.3793     434.3181   1419.49646     703.3793     434.3181
   1419.48120     703.5950     434.5774   1419.48120     703.5950     434.5774
   1419.46594     704.0545     433.7860   1419.46594     704.0545     433.7860
   1419.45068     702.8976     433.8469   1419.45068     702.8976     433.8469
   1419.43542     703.5447     432.8288   1419.43542     703.5447     432.8288
   1419.42017     703.4595     433.1641   1419.42017     703.4595     433.1641
   1419.40491     704.0588     432.9382   1419.40491     704.0588     432.9382
   1419.38965     704.1973     432.3575   1419.38965     704.1973     432.3575
   1419.37439     705.0885     432.8574   1419.37439     705.0885     432.8574
   1419.35913     705.3137     432.4469   1419.35913     705.3137     432.4469
   1419.34387     704.6651     431.9979   1419.34387     704.6651     431.9979
   1419.32861     705.8580     432.3675   1419.32861     705.8580     432.3675
   1419.31335     704.5659     432.2896   1419.31335     704.5659     432.2896
   1419.29810     706.6693     431.7373   1419.29810     706.6693     431.7373
   1419.28284     706.4053     431.9721   1419.28284     706.4053     431.9721
   1419.26758     707.4979     432.7409   1419.26758     707.4979     432.7409
   1419.25232     707.9511     431.7251   1419.25232     707.9511     431.7251
   1419.23706     707.1264     432.1374   1419.23706     707.1264     432.1374
   1419.22180     707.6884     431.7421   1419.22180     707.6884     431.7421
   1419.20654     709.0310     432.8483   1419.20654     709.0310     432.8483
   1419.19128     707.9738     431.5319   1419.19128     707.9738     431.5319
   1419.17603     709.2643     432.1129   1419.17603     709.2643     432.1129
   1419.16077     710.1291     432.8849   1419.16077     710.1291     432.8849
   1419.14551     708.9457     432.0201   1419.14551     708.9457     432.0201
   1419.13025     711.8289     432.4184   1419.13025     711.8289     432.4184
   1419.11499     712.2186     432.1469   1419.11499     712.2186     432.1469
   1419.09973     711.9014     431.9116   1419.09973     711.9014     431.9116
   1419.08447     712.2737     432.4867   1419.08447     712.2737     432.4867
   1419.06921     712.6767     432.2808   1419.06921     712.6767     432.2808
   1419.05396     713.8488     432.8283   1419.05396     713.8488     432.8283
   1419.03870     714.3167     432.4151   1419.03870     714.3167     432.4151
   1419.02344     714.4038     433.2164   1419.02344     714.4038     433.2164
   1419.00818     715.3978     433.1253   1419.00818     715.3978     433.1253
   1418.99292     716.2068     433.7647   1418.99292     716.2068     433.7647
   1418.97766     714.7728     433.5823   1418.97766     714.7728     433.5823
   1418.96240     716.9459     433.6987   1418.96240     716.9459     433.6987
   1418.94714     717.2036     433.1715   1418.94714     717.2036     433.1715
   1418.93188     718.6469     433.7486   1418.93188     718.6469     433.7486
   1418.91663     719.5351     434.5540   1418.91663     719.5351     434.5540
   1418.90137     720.0268     434.9952   1418.90137     720.0268     434.9952
   1418.88611     721.0728     434.3672   1418.88611     721.0728     434.3672
   1418.87085     721.7895     433.8512   1418.87085     721.7895     433.8512
   1418.85559     721.7704     434.8475   1418.85559     721.7704     434.8475
   1418.84033     723.4654     434.9327   1418.84033     723.4654     434.9327
   1418.82507     722.6398     435.1448   1418.82507     722.6398     435.1448
   1418.80981     724.3114     435.2142   1418.80981     724.3114     435.2142
   1418.79456     724.1222     436.2318   1418.79456     724.1222     436.2318
   1418.77930     726.1241     436.2545   1418.77930     726.1241     436.2545
   1418.76404     726.4777     436.3198   1418.76404     726.4777     436.3198
   1418.74878     726.7025     437.1938   1418.74878     726.7025     437.1938
   1418.73352     728.2387     437.1249   1418.73352     728.2387     437.1249
   1418.71826     727.9963     437.3592   1418.71826     727.9963     437.3592
   1418.70300     729.0206     438.1344   1418.70300     729.0206     438.1344
   1418.68774     729.5212     438.4337   1418.68774     729.5212     438.4337
   1418.67249     730.1205     438.3120   1418.67249     730.1205     438.3120
   1418.65723     732.7985     438.7781   1418.65723     732.7985     438.7781
   1418.64197     732.4684     440.1702   1418.64197     732.4684     440.1702
   1418.62671     732.5473     439.3695   1418.62671     732.5473     439.3695
   1418.61145     735.5120     439.5572   1418.61145     735.5120     439.5572
   1418.59619     735.6879     440.4416   1418.59619     735.6879     440.4416
   1418.58093     736.5295     441.3340   1418.58093     736.5295     441.3340
   1418.56567     737.1584     441.0905   1418.56567     737.1584     441.0905
   1418.55042     737.8797     441.7613   1418.55042     737.8797     441.7613
   1418.53516     738.3516     442.2133   1418.53516     738.3516     442.2133
   1418.51990     740.5625     442.6151   1418.51990     740.5625     442.6151
   1418.50464     740.8464     442.4911   1418.50464     740.8464     442.4911
   1418.48938     740.6088     442.9832   1418.48938     740.6088     442.9832
   1418.47412     743.8500     443.7642   1418.47412     743.8500     443.7642
   1418.45886     743.0886     444.0159   1418.45886     743.0886     444.0159
   1418.44360     744.1801     445.2479   1418.44360     744.1801     445.2479
   1418.42834     744.4136     444.6795   1418.42834     744.4136     444.6795
   1418.41309     745.9776     444.8831   1418.41309     745.9776     444.8831
   1418.39783     746.8214     445.9599   1418.39783     746.8214     445.9599
   1418.38257     747.3813     446.5612   1418.38257     747.3813     446.5612
   1418.36731     747.9430     447.0854   1418.36731     747.9430     447.0854
   1418.35205     749.9096     447.5490   1418.35205     749.9096     447.5490
   1418.33679     750.8676     448.5831   1418.33679     750.8676     448.5831
   1418.32153     751.9642     449.2253   1418.32153     751.9642     449.2253
   1418.30627     752.4877     449.0006   1418.30627     752.4877     449.0006
   1418.29102     754.3677     450.1063   1418.29102     754.3677     450.1063
   1418.27576     755.7195     450.2429   1418.27576     755.7195     450.2429
   1418.26050     756.8407     450.6261   1418.26050     756.8407     450.6261
   1418.24524     757.8727     451.4068   1418.24524     757.8727     451.4068
   1418.22998     759.6365     451.7798   1418.22998     759.6365     451.7798
   1418.21472     760.0415     452.2928   1418.21472     760.0415     452.2928
   1418.19946     761.5806     452.4782   1418.19946     761.5806     452.4782
   1418.18420     762.4373     453.5531   1418.18420     762.4373     453.5531
   1418.16895     763.8174     453.2737   1418.16895     763.8174     453.2737
   1418.15369     764.0166     455.4892   1418.15369     764.0166     455.4892
   1418.13843     765.5059     455.5657   1418.13843     765.5059     455.5657
   1418.12317     765.2193     455.8811   1418.12317     765.2193     455.8811
   1418.10791     767.5645     455.8540   1418.10791     767.5645     455.8540
   1418.09265     769.0327     457.4429   1418.09265     769.0327     457.4429
   1418.07739     769.8740     457.2873   1418.07739     769.8740     457.2873
   1418.06213     771.0339     458.5118   1418.06213     771.0339     458.5118
   1418.04688     772.3083     458.7618   1418.04688     772.3083     458.7618
   1418.03162     773.8322     459.7205   1418.03162     773.8322     459.7205
   1418.01636     774.2334     459.3087   1418.01636     774.2334     459.3087
   1418.00110     776.3311     460.6616   1418.00110     776.3311     460.6616
   1417.98584     777.2393     461.7751   1417.98584     777.2393     461.7751
   1417.97058     778.8721     461.8200   1417.97058     778.8721     461.8200
   1417.95532     779.6002     462.3329   1417.95532     779.6002     462.3329
   1417.94006     780.8895     463.2532   1417.94006     780.8895     463.2532
   1417.92480     781.1257     463.7916   1417.92480     781.1257     463.7916
   1417.90955     784.3018     464.5359   1417.90955     784.3018     464.5359
   1417.89429     783.4067     464.6329   1417.89429     783.4067     464.6329
   1417.87903     785.9559     465.6548   1417.87903     785.9559     465.6548
   1417.86377     787.4151     466.0842   1417.86377     787.4151     466.0842
   1417.84851     789.0863     466.8057   1417.84851     789.0863     466.8057
   1417.83325     790.6802     467.1143   1417.83325     790.6802     467.1143
   1417.81799     790.6342     468.2535   1417.81799     790.6342     468.2535
   1417.80273     792.4141     468.3834   1417.80273     792.4141     468.3834
   1417.78748     794.1375     470.0057   1417.78748     794.1375     470.0057
   1417.77222     795.9359     470.8295   1417.77222     795.9359     470.8295
   1417.75696     797.3994     471.7481   1417.75696     797.3994     471.7481
   1417.74170     797.1717     471.6860   1417.74170     797.1717     471.6860
   1417.72644     798.3613     473.1547   1417.72644     798.3613     473.1547
   1417.71118     799.4391     472.9186   1417.71118     799.4391     472.9186
   1417.69592     801.4453     474.0826   1417.69592     801.4453     474.0826
   1417.68066     803.5372     475.3637   1417.68066     803.5372     475.3637
   1417.66541     803.5170     475.0731   1417.66541     803.5170     475.0731
   1417.65015     804.4697     475.5416   1417.65015     804.4697     475.5416
   1417.63489     806.2654     476.4146   1417.63489     806.2654     476.4146
   1417.61963     807.3565     476.8089   1417.61963     807.3565     476.8089
   1417.60437     807.8475     478.0693   1417.60437     807.8475     478.0693
   1417.58911     811.6135     479.0620   1417.58911     811.6135     479.0620
   1417.57385     811.5881     479.2020   1417.57385     811.5881     479.2020
   1417.55859     812.7033     480.6738   1417.55859     812.7033     480.6738
   1417.54333     811.8934     480.2188   1417.54333     811.8934     480.2188
   1417.52808     814.8489     481.1615   1417.52808     814.8489     481.1615
   1417.51282     814.7726     481.5981   1417.51282     814.7726     481.5981
   1417.49756     817.1495     482.7710   1417.49756     817.1495     482.7710
   1417.48230     818.8991     482.5548   1417.48230     818.8991     482.5548
   1417.46704     818.8281     484.2257   1417.46704     818.8281     484.2257
   1417.45178     821.3253     484.7090   1417.45178     821.3253     484.7090
   1417.43652     821.5446     485.4940   1417.43652     821.5446     485.4940
   1417.42126     822.8298     485.8176   1417.42126     822.8298     485.8176
   1417.40601     825.7695     486.4807   1417.40601     825.7695     486.4807
   1417.39075     824.8246     487.7977   1417.39075     824.8246     487.7977
   1417.37549     825.2238     488.0292   1417.37549     825.2238     488.0292
   1417.36023     828.7942     488.9839   1417.36023     828.7942     488.9839
   1417.34497     830.1273     489.2469   1417.34497     830.1273     489.2469
   1417.32971     830.4379     489.6809   1417.32971     830.4379     489.6809
   1417.31445     832.3348     490.4020   1417.31445     832.3348     490.4020
   1417.29919     833.5325     490.9808   1417.29919     833.5325     490.9808
   1417.28394     833.3612     491.9683   1417.28394     833.3612     491.9683
   1417.26868     835.0687     492.2080   1417.26868     835.0687     492.2080
   1417.25342     836.4618     492.8749   1417.25342     836.4618     492.8749
   1417.23816     837.8448     494.1194   1417.23816     837.8448     494.1194
   1417.22290     838.0428     495.4948   1417.22290     838.0428     495.4948
   1417.20764     839.3795     495.2633   1417.20764     839.3795     495.2633
   1417.19238     840.7550     495.2515   1417.19238     840.7550     495.2515
   1417.17712     842.6932     496.8025   1417.17712     842.6932     496.8025
   1417.16187     842.9119     496.9286   1417.16187     842.9119     496.9286
   1417.14661     842.6976     496.9777   1417.14661     842.6976     496.9777
   1417.13135     845.6891     497.2121   1417.13135     845.6891     497.2121
   1417.11609     845.5154     498.0037   1417.11609     845.5154     498.0037
   1417.10083     847.7522     499.2455   1417.10083     847.7522     499.2455
   1417.08557     847.3446     499.6117   1417.08557     847.3446     499.6117
   1417.07031     848.8806     499.9966   1417.07031     848.8806     499.9966
   1417.05505     849.9620     500.8418   1417.05505     849.9620     500.8418
   1417.03979     851.1083     501.7828   1417.03979     851.1083     501.7828
   1417.02454     850.3141     501.4703   1417.02454     850.3141     501.4703
   1417.00928     851.9988     502.1054   1417.00928     851.9988     502.1054
   1416.99402     852.4550     503.5909   1416.99402     852.4550     503.5909
   1416.97876     854.2086     503.5513   1416.97876     854.2086     503.5513
   1416.96350     856.2106     504.1447   1416.96350     856.2106     504.1447
   1416.94824     856.0984     503.6811   1416.94824     856.0984     503.6811
   1416.93298     855.8860     504.6226   1416.93298     855.8860     504.6226
   1416.91772     858.7390     504.8448   1416.91772     858.7390     504.8448
   1416.90247     858.4601     505.1326   1416.90247     858.4601     505.1326
   1416.88721     857.9636     505.0686   1416.88721     857.9636     505.0686
   1416.87195     861.3237     506.5064   1416.87195     861.3237     506.5064
   1416.85669     860.2858     506.4897   1416.85669     860.2858     506.4897
   1416.84143     860.0935     507.1577   1416.84143     860.0935     507.1577
   1416.82617     861.2515     506.6805   1416.82617     861.2515     506.6805
   1416.81091     862.4270     507.8621   1416.81091     862.4270     507.8621
   1416.79565     862.9702     508.3901   1416.79565     862.9702     508.3901
   1416.78040     862.1133     507.6704   1416.78040     862.1133     507.6704
   1416.76514     862.9548     508.4509   1416.76514     862.9548     508.4509
   1416.74988     864.8054     509.3092   1416.74988     864.8054     509.3092
   1416.73462     864.0436     509.0880   1416.73462     864.0436     509.0880
   1416.71936     865.0486     508.8257   1416.71936     865.0486     508.8257
   1416.70410     864.1418     508.8566   1416.70410     864.1418     508.8566
   1416.68884     863.9667     509.4399   1416.68884     863.9667     509.4399
   1416.67358     866.3177     510.4112   1416.67358     866.3177     510.4112
   1416.65833     867.2054     509.7165   1416.65833     867.2054     509.7165
   1416.64307     865.7773     510.7549   1416.64307     865.7773     510.7549
   1416.62781     869.0016     510.3543   1416.62781     869.0016     510.3543
   1416.61255     867.3336     511.7431   1416.61255     867.3336     511.7431
   1416.59729     869.9163     512.0535   1416.59729     869.9163     512.0535
   1416.58203     868.2924     510.3634   1416.58203     868.2924     510.3634
   1416.56677     867.8325     510.8972   1416.56677     867.8325     510.8972
   1416.55151     868.2333     512.0980   1416.55151     868.2333     512.0980
   1416.53625     867.3748     510.8643   1416.53625     867.3748     510.8643
   1416.52100     868.1586     510.6096   1416.52100     868.1586     510.6096
   1416.50574     868.2631     511.5381   1416.50574     868.2631     511.5381
   1416.49048     868.3811     512.0536   1416.49048     868.3811     512.0536
   1416.47522     868.4323     511.0879   1416.47522     868.4323     511.0879
   1416.45996     868.5674     511.4283   1416.45996     868.5674     511.4283
   1416.44470     868.9244     511.6486   1416.44470     868.9244     511.6486
   1416.42944     868.9637     511.7398   1416.42944     868.9637     511.7398
   1416.41418     868.5635     511.7912   1416.41418     868.5635     511.7912
   1416.39893     867.9703     511.5445   1416.39893     867.9703     511.5445
   1416.38367     867.5853     511.7050   1416.38367     867.5853     511.7050
   1416.36841     868.0273     511.9187   1416.36841     868.0273     511.9187
   1416.35315     867.5410     510.7536   1416.35315     867.5410     510.7536
   1416.33789     868.2097     510.7463   1416.33789     868.2097     510.7463
   1416.32263     867.5677     511.3300   1416.32263     867.5677     511.3300
   1416.30737     866.6334     510.6061   1416.30737     866.6334     510.6061
   1416.29211     866.4057     509.6285   1416.29211     866.4057     509.6285
   1416.27686     866.9753     511.4641   1416.27686     866.9753     511.4641
   1416.26160     866.3959     510.3361   1416.26160     866.3959     510.3361
   1416.24634     867.1760     509.7910   1416.24634     867.1760     509.7910
   1416.23108     867.0927     509.7244   1416.23108     867.0927     509.7244
   1416.21582     866.8287     512.9903   1416.21582     866.8287     512.9903
   1416.20056     865.3805     510.4579   1416.20056     865.3805     510.4579
   1416.18530     863.9529     509.9252   1416.18530     863.9529     509.9252
   1416.17004     863.2428     509.7801   1416.17004     863.2428     509.7801
   1416.15479     862.7722     509.5469   1416.15479     862.7722     509.5469
   1416.13953     863.4630     509.5125   1416.13953     863.4630     509.5125
   1416.12427     861.1557     508.8733   1416.12427     861.1557     508.8733
   1416.10901     861.4417     509.0363   1416.10901     861.4417     509.0363
   1416.09375     861.5372     508.7712   1416.09375     861.5372     508.7712
   1416.07849     860.3563     508.5470   1416.07849     860.3563     508.5470
   1416.06323     860.3123     507.9181   1416.06323     860.3123     507.9181
   1416.04797     859.7078     508.1697   1416.04797     859.7078     508.1697
   1416.03271     858.5730     507.9916   1416.03271     858.5730     507.9916
   1416.01746     858.8248     506.8611   1416.01746     858.8248     506.8611
   1416.00220     858.0234     507.0526   1416.00220     858.0234     507.0526
   1415.98694     856.9499     506.7013   1415.98694     856.9499     506.7013
   1415.97168     856.0837     506.4176   1415.97168     856.0837     506.4176
   1415.95642     855.0103     506.4824   1415.95642     855.0103     506.4824
   1415.94116     854.3176     506.2811   1415.94116     854.3176     506.2811
   1415.92590     853.4246     505.5609   1415.92590     853.4246     505.5609
   1415.91064     852.9891     505.2728   1415.91064     852.9891     505.2728
   1415.89539     853.1631     505.1778   1415.89539     853.1631     505.1778
   1415.88013     852.0029     505.0729   1415.88013     852.0029     505.0729
   1415.86487     852.0477     505.1249   1415.86487     852.0477     505.1249
   1415.84961     849.7599     505.0528   1415.84961     849.7599     505.0528
   1415.83435     852.4188     506.3341   1415.83435     852.4188     506.3341
   1415.81909     848.8388     503.6476   1415.81909     848.8388     503.6476
   1415.80383     847.5347     503.6327   1415.80383     847.5347     503.6327
   1415.78857     847.0216     502.8308   1415.78857     847.0216     502.8308
   1415.77332     845.8111     502.5940   1415.77332     845.8111     502.5940
   1415.75806     845.1886     502.5257   1415.75806     845.1886     502.5257
   1415.74280     842.7304     502.1310   1415.74280     842.7304     502.1310
   1415.72754     843.0187     501.3806   1415.72754     843.0187     501.3806
   1415.71228     842.4517     501.5308   1415.71228     842.4517     501.5308
   1415.69702     840.5588     501.0786   1415.69702     840.5588     501.0786
   1415.68176     840.5183     500.9177   1415.68176     840.5183     500.9177
   1415.66650     838.8558     500.4450   1415.66650     838.8558     500.4450
   1415.65125     840.2514     500.6188   1415.65125     840.2514     500.6188
   1415.63599     839.2219     499.9417   1415.63599     839.2219     499.9417
   1415.62073     835.4081     498.7721   1415.62073     835.4081     498.7721
   1415.60547     836.9585     499.6938   1415.60547     836.9585     499.6938
   1415.59021     832.0316     498.9321   1415.59021     832.0316     498.9321
   1415.57495     832.7553     498.5780   1415.57495     832.7553     498.5780
   1415.55969     831.8806     498.3087   1415.55969     831.8806     498.3087
   1415.54443     830.1263     498.1651   1415.54443     830.1263     498.1651
   1415.52917     829.0268     498.1196   1415.52917     829.0268     498.1196
   1415.51392     827.8267     497.2581   1415.51392     827.8267     497.2581
   1415.49866     826.3464     496.5831   1415.49866     826.3464     496.5831
   1415.48340     826.1595     496.9239   1415.48340     826.1595     496.9239
   1415.46814     825.4424     495.7836   1415.46814     825.4424     495.7836
   1415.45288     827.2604     499.4811   1415.45288     827.2604     499.4811
   1415.43762     821.9992     494.7662   1415.43762     821.9992     494.7662
   1415.42236     820.4299     495.5230   1415.42236     820.4299     495.5230
   1415.40710     820.5613     494.8379   1415.40710     820.5613     494.8379
   1415.39185     817.7759     494.3536   1415.39185     817.7759     494.3536
   1415.37659     815.7728     494.5537   1415.37659     815.7728     494.5537
   1415.36133     815.3481     492.9319   1415.36133     815.3481     492.9319
   1415.34607     812.9380     492.4522   1415.34607     812.9380     492.4522
   1415.33081     812.9005     492.6504   1415.33081     812.9005     492.6504
   1415.31555     811.1856     491.6017   1415.31555     811.1856     491.6017
   1415.30029     810.0439     491.1135   1415.30029     810.0439     491.1135
   1415.28503     809.0409     491.8238   1415.28503     809.0409     491.8238
   1415.26978     806.1036     491.7028   1415.26978     806.1036     491.7028
   1415.25452     805.8260     491.1701   1415.25452     805.8260     491.1701
   1415.23926     803.5190     489.2602   1415.23926     803.5190     489.2602
   1415.22400     801.2143     489.9563   1415.22400     801.2143     489.9563
   1415.20874     801.3117     489.4856   1415.20874     801.3117     489.4856
   1415.19348     798.7387     488.6437   1415.19348     798.7387     488.6437
   1415.17822     797.6386     489.9128   1415.17822     797.6386     489.9128
   1415.16296     796.3851     487.8528   1415.16296     796.3851     487.8528
   1415.14771     795.6219     486.4243   1415.14771     795.6219     486.4243
   1415.13245     791.7846     486.7915   1415.13245     791.7846     486.7915
   1415.11719     789.9114     485.7971   1415.11719     789.9114     485.7971
   1415.10193     789.2465     485.9366   1415.10193     789.2465     485.9366
   1415.08667     788.7416     484.6160   1415.08667     788.7416     484.6160
   1415.07141     788.5079     485.0340   1415.07141     788.5079     485.0340
   1415.05615     783.6927     483.9776   1415.05615     783.6927     483.9776
   1415.04089     782.8292     483.4743   1415.04089     782.8292     483.4743
   1415.02563     779.5857     482.9000   1415.02563     779.5857     482.9000
   1415.01038     779.3339     482.5056   1415.01038     779.3339     482.5056
   1414.99512     777.2730     481.7968   1414.99512     777.2730     481.7968
   1414.97986     774.9749     480.4664   1414.97986     774.9749     480.4664
   1414.96460     774.8589     480.5981   1414.96460     774.8589     480.5981
   1414.94934     770.7663     480.7237   1414.94934     770.7663     480.7237
   1414.93408     769.1442     479.9123   1414.93408     769.1442     479.9123
   1414.91882     767.7887     478.9887   1414.91882     767.7887     478.9887
   1414.90356     765.6507     478.1226   1414.90356     765.6507     478.1226
   1414.88831     763.4996     477.5333   1414.88831     763.4996     477.5333
   1414.87305     761.3943     477.3755   1414.87305     761.3943     477.3755
   1414.85779     759.6965     476.6968   1414.85779     759.6965     476.6968
   1414.84253     757.6777     474.7817   1414.84253     757.6777     474.7817
   1414.82727     755.7791     474.6606   1414.82727     755.7791     474.6606
   1414.81201     752.9891     474.4755   1414.81201     752.9891     474.4755
   1414.79675     751.2743     474.1978   1414.79675     751.2743     474.1978
   1414.78149     750.2232     472.6638   1414.78149     750.2232     472.6638
   1414.76624     747.2115     472.9769   1414.76624     747.2115     472.9769
   1414.75098     743.3920     471.3061   1414.75098     743.3920     471.3061
   1414.73572     742.3797     469.7840   1414.73572     742.3797     469.7840
   1414.72046     739.7171     469.3611   1414.72046     739.7171     469.3611
   1414.70520     738.1416     468.5842   1414.70520     738.1416     468.5842
   1414.68994     736.3734     468.9154   1414.68994     736.3734     468.9154
   1414.67468     734.3102     466.8166   1414.67468     734.3102     466.8166
   1414.65942     731.1890     466.4963   1414.65942     731.1890     466.4963
   1414.64417     728.8587     465.2342   1414.64417     728.8587     465.2342
   1414.62891     727.0691     464.7120   1414.62891     727.0691     464.7120
   1414.61365     724.3398     464.2279   1414.61365     724.3398     464.2279
   1414.59839     721.1542     462.7718   1414.59839     721.1542     462.7718
   1414.58313     719.5568     462.5141   1414.58313     719.5568     462.5141
   1414.56787     716.2649     462.0200   1414.56787     716.2649     462.0200
   1414.55261     714.5775     460.7432   1414.55261     714.5775     460.7432
   1414.53735     711.4250     460.5710   1414.53735     711.4250     460.5710
   1414.52209     708.9738     458.5073   1414.52209     708.9738     458.5073
   1414.50684     707.5052     457.8915   1414.50684     707.5052     457.8915
   1414.49158     704.2220     457.5340   1414.49158     704.2220     457.5340
   1414.47632     700.5710     456.4925   1414.47632     700.5710     456.4925
   1414.46106     698.0629     455.0630   1414.46106     698.0629     455.0630
   1414.44580     697.2546     453.6929   1414.44580     697.2546     453.6929
   1414.43054     694.1273     452.6591   1414.43054     694.1273     452.6591
   1414.41528     689.3846     451.9999   1414.41528     689.3846     451.9999
   1414.40002     687.9091     450.9263   1414.40002     687.9091     450.9263
   1414.38477     685.2164     449.9709   1414.38477     685.2164     449.9709
   1414.36951     681.6447     448.2968   1414.36951     681.6447     448.2968
   1414.35425     680.2701     447.6099   1414.35425     680.2701     447.6099
   1414.33899     676.6479     446.7443   1414.33899     676.6479     446.7443
   1414.32373     674.3596     446.1398   1414.32373     674.3596     446.1398
   1414.30847     673.5476     445.1801   1414.30847     673.5476     445.1801
   1414.29321     668.6998     443.7092   1414.29321     668.6998     443.7092
   1414.27795     665.6599     442.1696   1414.27795     665.6599     442.1696
   1414.26270     662.5245     441.2984   1414.26270     662.5245     441.2984
   1414.24744     658.6652     440.2068   1414.24744     658.6652     440.2068
   1414.23218     656.5795     438.6115   1414.23218     656.5795     438.6115
   1414.21692     654.1098     437.6591   1414.21692     654.1098     437.6591
   1414.20166     650.5329     436.7996   1414.20166     650.5329     436.7996
   1414.18640     647.6880     434.5623   1414.18640     647.6880     434.5623
   1414.17114     645.0294     433.9544   1414.17114     645.0294     433.9544
   1414.15588     641.2761     433.1422   1414.15588     641.2761     433.1422
   1414.14062     639.7543     431.2308   1414.14062     639.7543     431.2308
   1414.12537     635.7938     430.3864   1414.12537     635.7938     430.3864
   1414.11011     633.3394     428.9629   1414.11011     633.3394     428.9629
   1414.09485     629.3195     427.8601   1414.09485     629.3195     427.8601
   1414.07959     627.0066     426.0539   1414.07959     627.0066     426.0539
   1414.06433     623.0157     424.9317   1414.06433     623.0157     424.9317
   1414.04907     620.5222     424.0808   1414.04907     620.5222     424.0808
   1414.03381     616.3469     422.1919   1414.03381     616.3469     422.1919
   1414.01855     615.7919     421.1419   1414.01855     615.7919     421.1419
   1414.00330     633.9930     424.7997   1414.00330     633.9930     424.7997
   1413.98804     609.7671     419.1260   1413.98804     609.7671     419.1260
   1413.97278     604.5093     416.7662   1413.97278     604.5093     416.7662
   1413.95752     600.6809     415.7070   1413.95752     600.6809     415.7070
   1413.94226     598.9752     414.2512   1413.94226     598.9752     414.2512
   1413.92700     596.0455     412.9206   1413.92700     596.0455     412.9206
   1413.91174     592.3904     411.9049   1413.91174     592.3904     411.9049
   1413.89648     588.4953     410.0951   1413.89648     588.4953     410.0951
   1413.88123     584.9215     408.2130   1413.88123     584.9215     408.2130
   1413.86597     582.8619     406.8862   1413.86597     582.8619     406.8862
   1413.85071     578.4575     405.4062   1413.85071     578.4575     405.4062
   1413.83545     575.8776     404.2484   1413.83545     575.8776     404.2484
   1413.82019     573.0699     402.0574   1413.82019     573.0699     402.0574
   1413.80493     570.3328     401.0172   1413.80493     570.3328     401.0172
   1413.78967     566.6439     399.6458   1413.78967     566.6439     399.6458
   1413.77441     563.6446     397.5313   1413.77441     563.6446     397.5313
   1413.75916     559.5730     396.5241   1413.75916     559.5730     396.5241
   1413.74390     557.3785     395.0371   1413.74390     557.3785     395.0371
   1413.72864     554.2420     393.6485   1413.72864     554.2420     393.6485
   1413.71338     551.1567     391.4794   1413.71338     551.1567     391.4794
   1413.69812     546.7489     390.2624   1413.69812     546.7489     390.2624
   1413.68286     543.4661     389.2539   1413.68286     543.4661     389.2539
   1413.66760     540.7859     387.7995   1413.66760     540.7859     387.7995
   1413.65234     538.0248     385.7781   1413.65234     538.0248     385.7781
   1413.63708     534.3559     384.4291   1413.63708     534.3559     384.4291
   1413.62183     531.4258     382.1340   1413.62183     531.4258     382.1340
   1413.60657     528.8751     381.4174   1413.60657     528.8751     381.4174
   1413.59131     525.1992     379.9596   1413.59131     525.1992     379.9596
   1413.57605     522.0560     378.3976   1413.57605     522.0560     378.3976
   1413.56079     518.8535     376.5713   1413.56079     518.8535     376.5713
   1413.54553     516.9033     375.8744   1413.54553     516.9033     375.8744
   1413.53027     512.9163     373.3386   1413.53027     512.9163     373.3386
   1413.51501     509.5044     371.3130   1413.51501     509.5044     371.3130
   1413.49976     506.7729     370.1380   1413.49976     506.7729     370.1380
   1413.48450     503.0642     368.7148   1413.48450     503.0642     368.7148
   1413.46924     500.7339     366.9758   1413.46924     500.7339     366.9758
   1413.45398     496.6661     365.0175   1413.45398     496.6661     365.0175
   1413.43872     493.5068     364.0646   1413.43872     493.5068     364.0646
   1413.42346     491.5301     362.5656   1413.42346     491.5301     362.5656
   1413.40820     487.9977     360.7093   1413.40820     487.9977     360.7093
   1413.39294     485.0802     359.0998   1413.39294     485.0802     359.0998
   1413.37769     482.3228     357.5886   1413.37769     482.3228     357.5886
   1413.36243     479.2412     356.1021   1413.36243     479.2412     356.1021
   1413.34717     475.8485     355.1277   1413.34717     475.8485     355.1277
   1413.33191     473.4747     353.2421   1413.33191     473.4747     353.2421
   1413.31665     470.5108     351.4691   1413.31665     470.5108     351.4691
   1413.30139     467.9583     350.0021   1413.30139     467.9583     350.0021
   1413.28613     465.2221     348.4626   1413.28613     465.2221     348.4626
   1413.27087     463.0118     346.8629   1413.27087     463.0118     346.8629
   1413.25562     459.7081     345.1751   1413.25562     459.7081     345.1751
   1413.24036     457.3693     343.7087   1413.24036     457.3693     343.7087
   1413.22510     453.8901     342.4668   1413.22510     453.8901     342.4668
   1413.20984     451.8178     340.7979   1413.20984     451.8178     340.7979
   1413.19458     448.3167     339.5779   1413.19458     448.3167     339.5779
   1413.17932     446.9962     338.0993   1413.17932     446.9962     338.0993
   1413.16406     443.7902     337.2230   1413.16406     443.7902     337.2230
   1413.14880     441.0292     335.6586   1413.14880     441.0292     335.6586
   1413.13354     439.1691     334.0302   1413.13354     439.1691     334.0302
   1413.11829     436.1815     332.8356   1413.11829     436.1815     332.8356
   1413.10303     433.6973     331.2326   1413.10303     433.6973     331.2326
   1413.08777     431.6089     329.5496   1413.08777     431.6089     329.5496
   1413.07251     428.5535     327.9183   1413.07251     428.5535     327.9183
   1413.05725     425.8255     327.0333   1413.05725     425.8255     327.0333
   1413.04199     424.7202     325.8339   1413.04199     424.7202     325.8339
   1413.02673     422.1343     323.8753   1413.02673     422.1343     323.8753
   1413.01147     419.9615     322.6105   1413.01147     419.9615     322.6105
   1412.99622     417.9262     321.5395   1412.99622     417.9262     321.5395
   1412.98096     415.0730     320.0960   1412.98096     415.0730     320.0960
   1412.96570     413.4158     318.9935   1412.96570     413.4158     318.9935
   1412.95044     411.3931     317.6231   1412.95044     411.3931     317.6231
   1412.93518     409.5627     316.7439   1412.93518     409.5627     316.7439
   1412.91992     407.1481     315.6998   1412.91992     407.1481     315.6998
   1412.90466     405.4244     314.4993   1412.90466     405.4244     314.4993
   1412.88940     403.8847     313.3216   1412.88940     403.8847     313.3216
   1412.87415     401.7174     311.9327   1412.87415     401.7174     311.9327
   1412.85889     400.0756     310.7988   1412.85889     400.0756     310.7988
   1412.84363     398.3018     310.2731   1412.84363     398.3018     310.2731
   1412.82837     396.6848     309.1474   1412.82837     396.6848     309.1474
   1412.81311     395.1779     307.8557   1412.81311     395.1779     307.8557
   1412.79785     392.9125     306.5604   1412.79785     392.9125     306.5604
   1412.78259     391.9523     305.8177   1412.78259     391.9523     305.8177
   1412.76733     390.1171     304.8882   1412.76733     390.1171     304.8882
   1412.75208     388.8482     304.1641   1412.75208     388.8482     304.1641
   1412.73682     387.2479     303.4003   1412.73682     387.2479     303.4003
   1412.72156     386.6072     301.9562   1412.72156     386.6072     301.9562
   1412.70630     385.1679     301.3290   1412.70630     385.1679     301.3290
   1412.69104     383.7836     301.0729   1412.69104     383.7836     301.0729
   1412.67578     382.5151     299.8029   1412.67578     382.5151     299.8029
   1412.66052     381.0338     299.5708   1412.66052     381.0338     299.5708
   1412.64526     380.6057     298.4908   1412.64526     380.6057     298.4908
   1412.63000     379.3308     297.6138   1412.63000     379.3308     297.6138
   1412.61475     378.3914     297.1125   1412.61475     378.3914     297.1125
   1412.59949     377.6594     296.6591   1412.59949     377.6594     296.6591
   1412.58423     376.9939     296.0108   1412.58423     376.9939     296.0108
   1412.56897     376.0444     295.9186   1412.56897     376.0444     295.9186
   1412.55371     375.5492     295.4922   1412.55371     375.5492     295.4922
   1412.53845     374.5343     294.6362   1412.53845     374.5343     294.6362
   1412.52319     373.7595     294.6918   1412.52319     373.7595     294.6918
   1412.50793     373.9973     294.0576   1412.50793     373.9973     294.0576
   1412.49268     372.4326     293.7095   1412.49268     372.4326     293.7095
   1412.47742     372.2531     292.7321   1412.47742     372.2531     292.7321
   1412.46216     372.1486     293.3065   1412.46216     372.1486     293.3065
   1412.44690     371.3827     292.9300   1412.44690     371.3827     292.9300
   1412.43164     370.9201     292.2956   1412.43164     370.9201     292.2956
   1412.41638     370.2483     292.5972   1412.41638     370.2483     292.5972
   1412.40112     370.3978     292.0214   1412.40112     370.3978     292.0214
   1412.38586     370.9665     292.7575   1412.38586     370.9665     292.7575
   1412.37061     370.7658     292.2246   1412.37061     370.7658     292.2246
   1412.35535     370.5106     292.1562   1412.35535     370.5106     292.1562
   1412.34009     370.3113     292.2371   1412.34009     370.3113     292.2371
   1412.32483     370.8170     292.6699   1412.32483     370.8170     292.6699
   1412.30957     371.0387     292.8624   1412.30957     371.0387     292.8624
   1412.29431     371.3400     292.4373   1412.29431     371.3400     292.4373
   1412.27905     371.0795     292.8358   1412.27905     371.0795     292.8358
   1412.26379     372.1839     293.2678   1412.26379     372.1839     293.2678
   1412.24854     372.4996     293.2995   1412.24854     372.4996     293.2995
   1412.23328     372.5151     293.6786   1412.23328     372.5151     293.6786
   1412.21802     372.7596     294.2140   1412.21802     372.7596     294.2140
   1412.20276     373.6125     294.8907   1412.20276     373.6125     294.8907