#     FILENAME=!Skynet_57528_lach-cc-79_20516_20925.cyb.fits
#     BASENAME=Skynet_57528_lach-cc-79_20516_20925
#     SRC_NAME=lach-cc-79
#     OBSERVER=ccmadison16_9505
#     DATE_OBS=2016-05-20T15:59:40.500
#        OBSID=20516
#      SCANNUM=20925
#          MJD=57528.6675
#          UTC=57670
#     SCANTYPE=track
#     DATAMODE=HIRES
#     TUNEFREQ=1420.0000
# Actual_FREQ1=1420.0000
# Actual_FREQ2=1420.0000
#    LO1Tuning=6870.000
#     RFFILTER=1355_1435
#        OBSBW=-15.6250
#        NCHAN=1024 
#        FOCUS=37.0709
#           RA=20:32:42.71
#          DEC=39:51:44.77
#      RA(hrs)=20.545200
#     DEC(deg)=39.862400
#    AZIM(deg)=302.931
#    ELEV(deg)=23.061
#     IFattens=12.00, 11.00
#      WARNING=None
#    TCAL_XL1=7.9635
#    TCAL_YR1=9.1340
#    TCAL_XL2=7.9635
#    TCAL_YR2=9.1340
#     TRX_XL1=11.7060
#     TRX_YR1=11.7060
#     TRX_XL2=11.7060
#     TRX_YR2=11.7060
#        TAVE=1.0000
#Freq1(MHz)          XL1          YR1  Freq2(MHz)          XL2          YR2 

   1427.81250     305.6878     256.4488   1427.81250     305.6878     256.4488
   1427.79724     306.2173     256.7039   1427.79724     306.2173     256.7039
   1427.78198     306.6940     257.5817   1427.78198     306.6940     257.5817
   1427.76672     306.9612     258.2991   1427.76672     306.9612     258.2991
   1427.75146     307.4923     258.5133   1427.75146     307.4923     258.5133
   1427.73621     308.6332     259.3544   1427.73621     308.6332     259.3544
   1427.72095     309.1092     260.1887   1427.72095     309.1092     260.1887
   1427.70569     309.8413     261.3098   1427.70569     309.8413     261.3098
   1427.69043     310.2250     261.6333   1427.69043     310.2250     261.6333
   1427.67517     311.4693     262.6281   1427.67517     311.4693     262.6281
   1427.65991     311.9623     263.9724   1427.65991     311.9623     263.9724
   1427.64465     312.9356     264.3453   1427.64465     312.9356     264.3453
   1427.62939     313.9753     265.1341   1427.62939     313.9753     265.1341
   1427.61414     314.5387     266.2513   1427.61414     314.5387     266.2513
   1427.59888     316.1405     267.0173   1427.59888     316.1405     267.0173
   1427.58362     317.3187     268.1752   1427.58362     317.3187     268.1752
   1427.56836     317.7921     269.0950   1427.56836     317.7921     269.0950
   1427.55310     319.0874     270.8539   1427.55310     319.0874     270.8539
   1427.53784     320.9428     271.5460   1427.53784     320.9428     271.5460
   1427.52258     321.5128     273.1987   1427.52258     321.5128     273.1987
   1427.50732     322.3293     273.7769   1427.50732     322.3293     273.7769
   1427.49207     324.5022     275.0880   1427.49207     324.5022     275.0880
   1427.47681     326.4188     276.3847   1427.47681     326.4188     276.3847
   1427.46155     327.1920     277.8510   1427.46155     327.1920     277.8510
   1427.44629     328.3385     279.2019   1427.44629     328.3385     279.2019
   1427.43103     330.2129     280.4068   1427.43103     330.2129     280.4068
   1427.41577     331.4432     281.9808   1427.41577     331.4432     281.9808
   1427.40051     332.6284     283.5040   1427.40051     332.6284     283.5040
   1427.38525     334.0331     284.8425   1427.38525     334.0331     284.8425
   1427.37000     336.0240     286.2266   1427.37000     336.0240     286.2266
   1427.35474     337.5117     287.6636   1427.35474     337.5117     287.6636
   1427.33948     339.5675     289.8062   1427.33948     339.5675     289.8062
   1427.32422     341.1378     291.1067   1427.32422     341.1378     291.1067
   1427.30896     342.7272     292.7803   1427.30896     342.7272     292.7803
   1427.29370     344.7973     293.8282   1427.29370     344.7973     293.8282
   1427.27844     346.2087     295.9742   1427.27844     346.2087     295.9742
   1427.26318     348.1018     297.3008   1427.26318     348.1018     297.3008
   1427.24792     350.9387     299.1372   1427.24792     350.9387     299.1372
   1427.23267     352.2798     300.9942   1427.23267     352.2798     300.9942
   1427.21741     354.2563     302.3329   1427.21741     354.2563     302.3329
   1427.20215     355.5225     304.3478   1427.20215     355.5225     304.3478
   1427.18689     357.3176     306.4492   1427.18689     357.3176     306.4492
   1427.17163     359.8549     307.9973   1427.17163     359.8549     307.9973
   1427.15637     361.9589     309.9672   1427.15637     361.9589     309.9672
   1427.14111     364.0032     311.7268   1427.14111     364.0032     311.7268
   1427.12585     365.9716     313.2618   1427.12585     365.9716     313.2618
   1427.11060     367.8865     315.2944   1427.11060     367.8865     315.2944
   1427.09534     370.0921     317.5609   1427.09534     370.0921     317.5609
   1427.08008     372.5717     319.8207   1427.08008     372.5717     319.8207
   1427.06482     374.6208     321.2088   1427.06482     374.6208     321.2088
   1427.04956     376.5809     323.8126   1427.04956     376.5809     323.8126
   1427.03430     378.4924     324.8759   1427.03430     378.4924     324.8759
   1427.01904     381.0564     327.0500   1427.01904     381.0564     327.0500
   1427.00378     383.2438     328.5797   1427.00378     383.2438     328.5797
   1426.98853     386.1803     330.9815   1426.98853     386.1803     330.9815
   1426.97327     387.8494     332.9953   1426.97327     387.8494     332.9953
   1426.95801     390.0577     335.2411   1426.95801     390.0577     335.2411
   1426.94275     392.3206     337.2680   1426.94275     392.3206     337.2680
   1426.92749     395.2426     339.0186   1426.92749     395.2426     339.0186
   1426.91223     397.0229     341.1997   1426.91223     397.0229     341.1997
   1426.89697     400.0824     343.4244   1426.89697     400.0824     343.4244
   1426.88171     401.7016     345.7004   1426.88171     401.7016     345.7004
   1426.86646     404.5033     347.8870   1426.86646     404.5033     347.8870
   1426.85120     405.9794     350.2591   1426.85120     405.9794     350.2591
   1426.83594     409.4881     351.6254   1426.83594     409.4881     351.6254
   1426.82068     411.3642     353.8972   1426.82068     411.3642     353.8972
   1426.80542     413.6525     355.6064   1426.80542     413.6525     355.6064
   1426.79016     416.4400     358.4268   1426.79016     416.4400     358.4268
   1426.77490     419.2627     360.3862   1426.77490     419.2627     360.3862
   1426.75964     421.8940     362.2904   1426.75964     421.8940     362.2904
   1426.74438     423.7309     364.0257   1426.74438     423.7309     364.0257
   1426.72913     425.7822     366.5362   1426.72913     425.7822     366.5362
   1426.71387     427.8305     368.3644   1426.71387     427.8305     368.3644
   1426.69861     431.2573     370.4034   1426.69861     431.2573     370.4034
   1426.68335     433.3468     372.8875   1426.68335     433.3468     372.8875
   1426.66809     436.2195     374.3817   1426.66809     436.2195     374.3817
   1426.65283     438.4664     376.3100   1426.65283     438.4664     376.3100
   1426.63757     440.6294     379.4017   1426.63757     440.6294     379.4017
   1426.62231     444.0612     382.0432   1426.62231     444.0612     382.0432
   1426.60706     445.6455     383.6097   1426.60706     445.6455     383.6097
   1426.59180     448.4499     385.0426   1426.59180     448.4499     385.0426
   1426.57654     450.4024     387.2402   1426.57654     450.4024     387.2402
   1426.56128     453.0542     389.0742   1426.56128     453.0542     389.0742
   1426.54602     455.6308     391.7564   1426.54602     455.6308     391.7564
   1426.53076     457.4791     393.7213   1426.53076     457.4791     393.7213
   1426.51550     460.5246     395.9471   1426.51550     460.5246     395.9471
   1426.50024     462.5092     397.5625   1426.50024     462.5092     397.5625
   1426.48499     464.8188     400.0490   1426.48499     464.8188     400.0490
   1426.46973     467.7600     401.4919   1426.46973     467.7600     401.4919
   1426.45447     470.0454     403.2463   1426.45447     470.0454     403.2463
   1426.43921     472.3187     405.7267   1426.43921     472.3187     405.7267
   1426.42395     474.6674     407.1411   1426.42395     474.6674     407.1411
   1426.40869     477.5560     410.0158   1426.40869     477.5560     410.0158
   1426.39343     479.1917     410.6982   1426.39343     479.1917     410.6982
   1426.37817     482.1022     412.9706   1426.37817     482.1022     412.9706
   1426.36292     484.2024     414.8185   1426.36292     484.2024     414.8185
   1426.34766     486.4161     417.5649   1426.34766     486.4161     417.5649
   1426.33240     489.0150     418.9206   1426.33240     489.0150     418.9206
   1426.31714     491.1605     421.2079   1426.31714     491.1605     421.2079
   1426.30188     493.3656     423.3428   1426.30188     493.3656     423.3428
   1426.28662     496.1295     424.3916   1426.28662     496.1295     424.3916
   1426.27136     498.0481     426.0746   1426.27136     498.0481     426.0746
   1426.25610     501.1699     428.0198   1426.25610     501.1699     428.0198
   1426.24084     502.3005     429.7275   1426.24084     502.3005     429.7275
   1426.22559     505.0689     431.7560   1426.22559     505.0689     431.7560
   1426.21033     506.6538     433.2930   1426.21033     506.6538     433.2930
   1426.19507     508.9685     435.0906   1426.19507     508.9685     435.0906
   1426.17981     511.1295     437.3131   1426.17981     511.1295     437.3131
   1426.16455     513.6108     438.9081   1426.16455     513.6108     438.9081
   1426.14929     515.1537     440.0483   1426.14929     515.1537     440.0483
   1426.13403     517.8420     442.2394   1426.13403     517.8420     442.2394
   1426.11877     519.5980     443.6815   1426.11877     519.5980     443.6815
   1426.10352     521.3533     445.2294   1426.10352     521.3533     445.2294
   1426.08826     523.4725     447.3414   1426.08826     523.4725     447.3414
   1426.07300     526.3369     448.8340   1426.07300     526.3369     448.8340
   1426.05774     528.0370     450.7001   1426.05774     528.0370     450.7001
   1426.04248     530.2350     451.5740   1426.04248     530.2350     451.5740
   1426.02722     531.5102     453.7652   1426.02722     531.5102     453.7652
   1426.01196     534.0051     455.2028   1426.01196     534.0051     455.2028
   1425.99670     535.9542     456.3036   1425.99670     535.9542     456.3036
   1425.98145     537.8702     458.2209   1425.98145     537.8702     458.2209
   1425.96619     539.8964     459.4461   1425.96619     539.8964     459.4461
   1425.95093     540.3995     460.9175   1425.95093     540.3995     460.9175
   1425.93567     542.6636     461.9547   1425.93567     542.6636     461.9547
   1425.92041     545.2935     463.8857   1425.92041     545.2935     463.8857
   1425.90515     546.4619     465.4981   1425.90515     546.4619     465.4981
   1425.88989     548.8725     467.5289   1425.88989     548.8725     467.5289
   1425.87463     549.8204     469.0419   1425.87463     549.8204     469.0419
   1425.85938     552.3430     469.5473   1425.85938     552.3430     469.5473
   1425.84412     553.2355     471.4453   1425.84412     553.2355     471.4453
   1425.82886     555.7380     472.9943   1425.82886     555.7380     472.9943
   1425.81360     557.5894     474.5310   1425.81360     557.5894     474.5310
   1425.79834     558.5271     475.5720   1425.79834     558.5271     475.5720
   1425.78308     560.1248     476.5692   1425.78308     560.1248     476.5692
   1425.76782     561.5894     477.7433   1425.76782     561.5894     477.7433
   1425.75256     564.1249     479.2120   1425.75256     564.1249     479.2120
   1425.73730     565.2565     480.2075   1425.73730     565.2565     480.2075
   1425.72205     566.1895     480.9621   1425.72205     566.1895     480.9621
   1425.70679     568.6555     483.4746   1425.70679     568.6555     483.4746
   1425.69153     568.8517     484.5921   1425.69153     568.8517     484.5921
   1425.67627     570.0181     485.8254   1425.67627     570.0181     485.8254
   1425.66101     572.9211     486.8389   1425.66101     572.9211     486.8389
   1425.64575     574.3247     487.9173   1425.64575     574.3247     487.9173
   1425.63049     575.2392     489.0395   1425.63049     575.2392     489.0395
   1425.61523     576.4447     490.0327   1425.61523     576.4447     490.0327
   1425.59998     578.0268     491.6745   1425.59998     578.0268     491.6745
   1425.58472     578.7787     492.8707   1425.58472     578.7787     492.8707
   1425.56946     579.2373     493.1994   1425.56946     579.2373     493.1994
   1425.55420     582.0524     494.5322   1425.55420     582.0524     494.5322
   1425.53894     582.5536     494.9582   1425.53894     582.5536     494.9582
   1425.52368     583.3284     495.7595   1425.52368     583.3284     495.7595
   1425.50842     584.2540     498.2732   1425.50842     584.2540     498.2732
   1425.49316     585.7938     498.7800   1425.49316     585.7938     498.7800
   1425.47791     587.1840     499.7776   1425.47791     587.1840     499.7776
   1425.46265     587.9592     500.5181   1425.46265     587.9592     500.5181
   1425.44739     588.8370     501.0271   1425.44739     588.8370     501.0271
   1425.43213     590.4088     502.6762   1425.43213     590.4088     502.6762
   1425.41687     591.0997     504.3759   1425.41687     591.0997     504.3759
   1425.40161     592.5339     505.1145   1425.40161     592.5339     505.1145
   1425.38635     593.4295     505.0544   1425.38635     593.4295     505.0544
   1425.37109     593.5894     506.5255   1425.37109     593.5894     506.5255
   1425.35583     594.7105     507.4969   1425.35583     594.7105     507.4969
   1425.34058     595.9857     508.5930   1425.34058     595.9857     508.5930
   1425.32532     597.8162     509.2187   1425.32532     597.8162     509.2187
   1425.31006     597.5588     510.0743   1425.31006     597.5588     510.0743
   1425.29480     598.6436     511.4889   1425.29480     598.6436     511.4889
   1425.27954     599.6326     512.2439   1425.27954     599.6326     512.2439
   1425.26428     599.1923     512.8897   1425.26428     599.1923     512.8897
   1425.24902     601.3253     513.9944   1425.24902     601.3253     513.9944
   1425.23376     602.3984     514.9671   1425.23376     602.3984     514.9671
   1425.21851     603.1119     515.1265   1425.21851     603.1119     515.1265
   1425.20325     604.0811     516.7100   1425.20325     604.0811     516.7100
   1425.18799     604.1688     516.6631   1425.18799     604.1688     516.6631
   1425.17273     604.5414     518.6572   1425.17273     604.5414     518.6572
   1425.15747     605.4117     519.1653   1425.15747     605.4117     519.1653
   1425.14221     606.0402     519.3312   1425.14221     606.0402     519.3312
   1425.12695     606.9956     520.1335   1425.12695     606.9956     520.1335
   1425.11169     607.7114     521.0543   1425.11169     607.7114     521.0543
   1425.09644     609.2377     522.5068   1425.09644     609.2377     522.5068
   1425.08118     608.7614     523.1797   1425.08118     608.7614     523.1797
   1425.06592     608.6078     523.3632   1425.06592     608.6078     523.3632
   1425.05066     609.9066     523.8561   1425.05066     609.9066     523.8561
   1425.03540     610.8088     524.7083   1425.03540     610.8088     524.7083
   1425.02014     610.9398     525.0810   1425.02014     610.9398     525.0810
   1425.00488     611.7899     526.3098   1425.00488     611.7899     526.3098
   1424.98962     612.1252     527.4078   1424.98962     612.1252     527.4078
   1424.97437     612.6901     527.2561   1424.97437     612.6901     527.2561
   1424.95911     612.3367     528.3882   1424.95911     612.3367     528.3882
   1424.94385     613.3676     529.0128   1424.94385     613.3676     529.0128
   1424.92859     613.2103     530.5544   1424.92859     613.2103     530.5544
   1424.91333     615.2696     531.2906   1424.91333     615.2696     531.2906
   1424.89807     614.2957     532.1575   1424.89807     614.2957     532.1575
   1424.88281     615.0305     532.7332   1424.88281     615.0305     532.7332
   1424.86755     615.3281     533.8065   1424.86755     615.3281     533.8065
   1424.85229     616.0834     533.1437   1424.85229     616.0834     533.1437
   1424.83704     615.7402     533.5549   1424.83704     615.7402     533.5549
   1424.82178     616.0924     533.9839   1424.82178     616.0924     533.9839
   1424.80652     616.3088     535.4874   1424.80652     616.3088     535.4874
   1424.79126     615.6222     535.8269   1424.79126     615.6222     535.8269
   1424.77600     616.2507     535.5189   1424.77600     616.2507     535.5189
   1424.76074     616.4899     536.9790   1424.76074     616.4899     536.9790
   1424.74548     616.8213     537.3182   1424.74548     616.8213     537.3182
   1424.73022     616.8825     537.6478   1424.73022     616.8825     537.6478
   1424.71497     617.4619     539.5827   1424.71497     617.4619     539.5827
   1424.69971     616.9202     538.4845   1424.69971     616.9202     538.4845
   1424.68445     616.8699     540.5238   1424.68445     616.8699     540.5238
   1424.66919     617.6496     540.1541   1424.66919     617.6496     540.1541
   1424.65393     617.6445     541.2753   1424.65393     617.6445     541.2753
   1424.63867     618.1427     541.4286   1424.63867     618.1427     541.4286
   1424.62341     617.8414     541.9969   1424.62341     617.8414     541.9969
   1424.60815     617.7077     542.5213   1424.60815     617.7077     542.5213
   1424.59290     618.6691     543.9743   1424.59290     618.6691     543.9743
   1424.57764     617.8777     543.2307   1424.57764     617.8777     543.2307
   1424.56238     618.3917     544.6410   1424.56238     618.3917     544.6410
   1424.54712     617.5302     544.6039   1424.54712     617.5302     544.6039
   1424.53186     618.2261     545.5023   1424.53186     618.2261     545.5023
   1424.51660     618.1661     546.7207   1424.51660     618.1661     546.7207
   1424.50134     617.4321     546.3157   1424.50134     617.4321     546.3157
   1424.48608     619.1000     546.2281   1424.48608     619.1000     546.2281
   1424.47083     618.7024     547.6259   1424.47083     618.7024     547.6259
   1424.45557     618.5863     547.3353   1424.45557     618.5863     547.3353
   1424.44031     618.9722     548.4133   1424.44031     618.9722     548.4133
   1424.42505     618.9188     549.6903   1424.42505     618.9188     549.6903
   1424.40979     619.1913     549.5616   1424.40979     619.1913     549.5616
   1424.39453     618.4441     549.1328   1424.39453     618.4441     549.1328
   1424.37927     618.1053     551.4500   1424.37927     618.1053     551.4500
   1424.36401     619.0181     550.5958   1424.36401     619.0181     550.5958
   1424.34875     619.2001     552.0030   1424.34875     619.2001     552.0030
   1424.33350     618.5952     552.0214   1424.33350     618.5952     552.0214
   1424.31824     618.8840     553.3379   1424.31824     618.8840     553.3379
   1424.30298     618.1953     552.5809   1424.30298     618.1953     552.5809
   1424.28772     618.9486     553.5240   1424.28772     618.9486     553.5240
   1424.27246     619.0374     554.3577   1424.27246     619.0374     554.3577
   1424.25720     617.8929     555.2864   1424.25720     617.8929     555.2864
   1424.24194     618.2399     554.2830   1424.24194     618.2399     554.2830
   1424.22668     618.3903     555.7023   1424.22668     618.3903     555.7023
   1424.21143     618.3211     556.7341   1424.21143     618.3211     556.7341
   1424.19617     618.8172     556.2289   1424.19617     618.8172     556.2289
   1424.18091     618.5363     557.4829   1424.18091     618.5363     557.4829
   1424.16565     617.5626     557.6270   1424.16565     617.5626     557.6270
   1424.15039     618.3085     557.6608   1424.15039     618.3085     557.6608
   1424.13513     617.8488     558.2114   1424.13513     617.8488     558.2114
   1424.11987     618.6473     558.9540   1424.11987     618.6473     558.9540
   1424.10461     617.8310     559.4579   1424.10461     617.8310     559.4579
   1424.08936     617.4431     560.4062   1424.08936     617.4431     560.4062
   1424.07410     617.6149     561.7259   1424.07410     617.6149     561.7259
   1424.05884     617.3831     561.9010   1424.05884     617.3831     561.9010
   1424.04358     617.7623     561.5853   1424.04358     617.7623     561.5853
   1424.02832     617.6596     562.1800   1424.02832     617.6596     562.1800
   1424.01306     616.4644     562.6957   1424.01306     616.4644     562.6957
   1423.99780     616.3674     562.8493   1423.99780     616.3674     562.8493
   1423.98254     616.3897     564.0056   1423.98254     616.3897     564.0056
   1423.96729     616.5869     564.6297   1423.96729     616.5869     564.6297
   1423.95203     616.1552     564.8851   1423.95203     616.1552     564.8851
   1423.93677     616.9102     565.1727   1423.93677     616.9102     565.1727
   1423.92151     616.1920     564.4907   1423.92151     616.1920     564.4907
   1423.90625     616.9243     566.3569   1423.90625     616.9243     566.3569
   1423.89099     616.5407     566.3925   1423.89099     616.5407     566.3925
   1423.87573     617.4647     567.8340   1423.87573     617.4647     567.8340
   1423.86047     615.8315     566.3324   1423.86047     615.8315     566.3324
   1423.84521     616.3834     567.5137   1423.84521     616.3834     567.5137
   1423.82996     616.1144     567.6953   1423.82996     616.1144     567.6953
   1423.81470     616.4808     568.6309   1423.81470     616.4808     568.6309
   1423.79944     616.8231     569.1752   1423.79944     616.8231     569.1752
   1423.78418     615.1001     569.2159   1423.78418     615.1001     569.2159
   1423.76892     615.1208     569.7950   1423.76892     615.1208     569.7950
   1423.75366     615.4841     570.0801   1423.75366     615.4841     570.0801
   1423.73840     615.0027     570.5953   1423.73840     615.0027     570.5953
   1423.72314     614.3502     571.4717   1423.72314     614.3502     571.4717
   1423.70789     615.6813     571.5833   1423.70789     615.6813     571.5833
   1423.69263     615.0925     570.9122   1423.69263     615.0925     570.9122
   1423.67737     614.4402     571.4998   1423.67737     614.4402     571.4998
   1423.66211     614.9403     571.8321   1423.66211     614.9403     571.8321
   1423.64685     614.5619     571.6403   1423.64685     614.5619     571.6403
   1423.63159     613.9446     573.4955   1423.63159     613.9446     573.4955
   1423.61633     614.4260     573.7488   1423.61633     614.4260     573.7488
   1423.60107     614.1586     573.7715   1423.60107     614.1586     573.7715
   1423.58582     613.9398     574.4305   1423.58582     613.9398     574.4305
   1423.57056     613.8594     574.3508   1423.57056     613.8594     574.3508
   1423.55530     613.3690     574.5022   1423.55530     613.3690     574.5022
   1423.54004     613.9250     574.6222   1423.54004     613.9250     574.6222
   1423.52478     613.4052     575.4354   1423.52478     613.4052     575.4354
   1423.50952     613.2775     575.3447   1423.50952     613.2775     575.3447
   1423.49426     613.7115     576.5678   1423.49426     613.7115     576.5678
   1423.47900     613.5804     575.8588   1423.47900     613.5804     575.8588
   1423.46375     613.4238     576.5864   1423.46375     613.4238     576.5864
   1423.44849     612.6946     576.6565   1423.44849     612.6946     576.6565
   1423.43323     613.3006     577.3879   1423.43323     613.3006     577.3879
   1423.41797     612.5004     576.7114   1423.41797     612.5004     576.7114
   1423.40271     612.3943     577.1024   1423.40271     612.3943     577.1024
   1423.38745     613.0616     576.7238   1423.38745     613.0616     576.7238
   1423.37219     612.5050     578.2716   1423.37219     612.5050     578.2716
   1423.35693     612.4875     578.4008   1423.35693     612.4875     578.4008
   1423.34167     611.7734     577.8823   1423.34167     611.7734     577.8823
   1423.32642     611.7672     577.5041   1423.32642     611.7672     577.5041
   1423.31116     611.3090     577.7621   1423.31116     611.3090     577.7621
   1423.29590     611.1652     578.5132   1423.29590     611.1652     578.5132
   1423.28064     611.2798     578.7544   1423.28064     611.2798     578.7544
   1423.26538     611.2160     578.3440   1423.26538     611.2160     578.3440
   1423.25012     610.8054     578.9561   1423.25012     610.8054     578.9561
   1423.23486     610.2886     579.2999   1423.23486     610.2886     579.2999
   1423.21960     611.2230     577.8663   1423.21960     611.2230     577.8663
   1423.20435     610.5727     578.0820   1423.20435     610.5727     578.0820
   1423.18909     611.0475     578.5069   1423.18909     611.0475     578.5069
   1423.17383     610.3331     577.5288   1423.17383     610.3331     577.5288
   1423.15857     610.5468     578.5739   1423.15857     610.5468     578.5739
   1423.14331     610.2051     578.1343   1423.14331     610.2051     578.1343
   1423.12805     610.4154     579.3755   1423.12805     610.4154     579.3755
   1423.11279     610.0746     579.2316   1423.11279     610.0746     579.2316
   1423.09753     609.7148     579.2542   1423.09753     609.7148     579.2542
   1423.08228     609.1034     578.4801   1423.08228     609.1034     578.4801
   1423.06702     609.7960     578.6349   1423.06702     609.7960     578.6349
   1423.05176     608.5678     578.8781   1423.05176     608.5678     578.8781
   1423.03650     609.7844     577.8455   1423.03650     609.7844     577.8455
   1423.02124     608.8988     578.4261   1423.02124     608.8988     578.4261
   1423.00598     610.0636     578.2411   1423.00598     610.0636     578.2411
   1422.99072     608.8984     578.1487   1422.99072     608.8984     578.1487
   1422.97546     608.5037     577.5385   1422.97546     608.5037     577.5385
   1422.96021     608.5241     576.5900   1422.96021     608.5241     576.5900
   1422.94495     608.9669     576.9756   1422.94495     608.9669     576.9756
   1422.92969     608.2708     576.8365   1422.92969     608.2708     576.8365
   1422.91443     608.0229     576.0450   1422.91443     608.0229     576.0450
   1422.89917     607.9009     575.4714   1422.89917     607.9009     575.4714
   1422.88391     608.2632     575.3384   1422.88391     608.2632     575.3384
   1422.86865     607.3497     575.3713   1422.86865     607.3497     575.3713
   1422.85339     607.1102     575.7955   1422.85339     607.1102     575.7955
   1422.83813     607.9132     574.8749   1422.83813     607.9132     574.8749
   1422.82288     607.0234     574.8292   1422.82288     607.0234     574.8292
   1422.80762     607.4509     574.2316   1422.80762     607.4509     574.2316
   1422.79236     606.7896     574.1428   1422.79236     606.7896     574.1428
   1422.77710     607.4665     573.6397   1422.77710     607.4665     573.6397
   1422.76184     606.5445     573.4405   1422.76184     606.5445     573.4405
   1422.74658     606.1469     572.7200   1422.74658     606.1469     572.7200
   1422.73132     606.6961     570.9994   1422.73132     606.6961     570.9994
   1422.71606     605.7396     571.1436   1422.71606     605.7396     571.1436
   1422.70081     606.0307     571.0341   1422.70081     606.0307     571.0341
   1422.68555     605.5477     570.1826   1422.68555     605.5477     570.1826
   1422.67029     604.8595     568.8914   1422.67029     604.8595     568.8914
   1422.65503     605.5095     568.9024   1422.65503     605.5095     568.9024
   1422.63977     604.0203     568.3906   1422.63977     604.0203     568.3906
   1422.62451     604.9192     567.8333   1422.62451     604.9192     567.8333
   1422.60925     604.4890     568.0895   1422.60925     604.4890     568.0895
   1422.59399     604.8303     566.2110   1422.59399     604.8303     566.2110
   1422.57874     603.8852     565.5286   1422.57874     603.8852     565.5286
   1422.56348     604.8225     563.6008   1422.56348     604.8225     563.6008
   1422.54822     604.0984     563.9067   1422.54822     604.0984     563.9067
   1422.53296     602.8678     562.2402   1422.53296     602.8678     562.2402
   1422.51770     602.4327     562.4540   1422.51770     602.4327     562.4540
   1422.50244     603.3633     561.6823   1422.50244     603.3633     561.6823
   1422.48718     602.9758     561.2867   1422.48718     602.9758     561.2867
   1422.47192     603.3185     560.2988   1422.47192     603.3185     560.2988
   1422.45667     602.5372     559.0367   1422.45667     602.5372     559.0367
   1422.44141     603.7382     558.9270   1422.44141     603.7382     558.9270
   1422.42615     603.5565     557.5972   1422.42615     603.5565     557.5972
   1422.41089     602.6819     556.6391   1422.41089     602.6819     556.6391
   1422.39563     602.3873     556.1011   1422.39563     602.3873     556.1011
   1422.38037     602.8278     555.2491   1422.38037     602.8278     555.2491
   1422.36511     601.5665     554.6968   1422.36511     601.5665     554.6968
   1422.34985     602.2590     552.8334   1422.34985     602.2590     552.8334
   1422.33459     602.0114     551.9283   1422.33459     602.0114     551.9283
   1422.31934     601.0430     551.0439   1422.31934     601.0430     551.0439
   1422.30408     601.2798     551.1028   1422.30408     601.2798     551.1028
   1422.28882     600.8849     550.0229   1422.28882     600.8849     550.0229
   1422.27356     600.7622     548.3580   1422.27356     600.7622     548.3580
   1422.25830     600.4241     547.8898   1422.25830     600.4241     547.8898
   1422.24304     600.5115     546.0114   1422.24304     600.5115     546.0114
   1422.22778     600.8762     545.4357   1422.22778     600.8762     545.4357
   1422.21252     599.9939     545.1130   1422.21252     599.9939     545.1130
   1422.19727     600.7372     543.0697   1422.19727     600.7372     543.0697
   1422.18201     599.0038     542.5605   1422.18201     599.0038     542.5605
   1422.16675     600.2868     540.6585   1422.16675     600.2868     540.6585
   1422.15149     598.7748     540.5959   1422.15149     598.7748     540.5959
   1422.13623     598.8391     538.4277   1422.13623     598.8391     538.4277
   1422.12097     598.1081     537.4991   1422.12097     598.1081     537.4991
   1422.10571     598.3577     537.2592   1422.10571     598.3577     537.2592
   1422.09045     598.5643     535.3843   1422.09045     598.5643     535.3843
   1422.07520     599.1191     534.7313   1422.07520     599.1191     534.7313
   1422.05994     597.8422     533.0983   1422.05994     597.8422     533.0983
   1422.04468     597.8834     532.4710   1422.04468     597.8834     532.4710
   1422.02942     598.2383     530.7466   1422.02942     598.2383     530.7466
   1422.01416     597.8350     529.9724   1422.01416     597.8350     529.9724
   1421.99890     597.9522     529.0367   1421.99890     597.9522     529.0367
   1421.98364     597.5712     527.5339   1421.98364     597.5712     527.5339
   1421.96838     596.8777     526.7077   1421.96838     596.8777     526.7077
   1421.95312     596.3848     524.6871   1421.95312     596.3848     524.6871
   1421.93787     596.3120     523.5605   1421.93787     596.3120     523.5605
   1421.92261     595.8771     522.9423   1421.92261     595.8771     522.9423
   1421.90735     596.2136     521.1925   1421.90735     596.2136     521.1925
   1421.89209     595.7718     519.3973   1421.89209     595.7718     519.3973
   1421.87683     596.0984     519.3532   1421.87683     596.0984     519.3532
   1421.86157     595.0782     517.4343   1421.86157     595.0782     517.4343
   1421.84631     596.0421     516.6063   1421.84631     596.0421     516.6063
   1421.83105     595.0548     515.5903   1421.83105     595.0548     515.5903
   1421.81580     595.1290     514.0479   1421.81580     595.1290     514.0479
   1421.80054     595.3065     512.4227   1421.80054     595.3065     512.4227
   1421.78528     594.5516     510.8866   1421.78528     594.5516     510.8866
   1421.77002     595.7447     509.8158   1421.77002     595.7447     509.8158
   1421.75476     594.3014     508.3198   1421.75476     594.3014     508.3198
   1421.73950     594.5595     507.2860   1421.73950     594.5595     507.2860
   1421.72424     593.2755     506.2711   1421.72424     593.2755     506.2711
   1421.70898     593.1100     505.0861   1421.70898     593.1100     505.0861
   1421.69373     593.1530     503.7955   1421.69373     593.1530     503.7955
   1421.67847     593.7753     502.5628   1421.67847     593.7753     502.5628
   1421.66321     594.2878     500.6911   1421.66321     594.2878     500.6911
   1421.64795     592.1897     500.0606   1421.64795     592.1897     500.0606
   1421.63269     592.9449     498.0716   1421.63269     592.9449     498.0716
   1421.61743     592.2224     497.4941   1421.61743     592.2224     497.4941
   1421.60217     592.8575     495.9821   1421.60217     592.8575     495.9821
   1421.58691     591.2278     494.5432   1421.58691     591.2278     494.5432
   1421.57166     592.2180     492.7879   1421.57166     592.2180     492.7879
   1421.55640     591.8682     491.6980   1421.55640     591.8682     491.6980
   1421.54114     592.6748     490.0870   1421.54114     592.6748     490.0870
   1421.52588     590.6855     489.1386   1421.52588     590.6855     489.1386
   1421.51062     590.8215     487.6769   1421.51062     590.8215     487.6769
   1421.49536     591.0283     485.9095   1421.49536     591.0283     485.9095
   1421.48010     591.1934     484.9972   1421.48010     591.1934     484.9972
   1421.46484     591.3687     483.5243   1421.46484     591.3687     483.5243
   1421.44958     590.7296     481.9621   1421.44958     590.7296     481.9621
   1421.43433     590.8857     481.4213   1421.43433     590.8857     481.4213
   1421.41907     590.3845     479.7785   1421.41907     590.3845     479.7785
   1421.40381     590.9483     478.8954   1421.40381     590.9483     478.8954
   1421.38855     590.2689     477.7008   1421.38855     590.2689     477.7008
   1421.37329     589.8552     475.5277   1421.37329     589.8552     475.5277
   1421.35803     590.7876     474.6829   1421.35803     590.7876     474.6829
   1421.34277     590.1340     473.2693   1421.34277     590.1340     473.2693
   1421.32751     590.0473     472.2024   1421.32751     590.0473     472.2024
   1421.31226     589.5175     471.3950   1421.31226     589.5175     471.3950
   1421.29700     588.7543     469.0688   1421.29700     588.7543     469.0688
   1421.28174     588.9555     468.1893   1421.28174     588.9555     468.1893
   1421.26648     589.3561     467.2515   1421.26648     589.3561     467.2515
   1421.25122     589.6276     465.9829   1421.25122     589.6276     465.9829
   1421.23596     589.5297     465.1376   1421.23596     589.5297     465.1376
   1421.22070     590.5668     465.5156   1421.22070     590.5668     465.5156
   1421.20544     591.0880     463.6240   1421.20544     591.0880     463.6240
   1421.19019     592.2228     463.8491   1421.19019     592.2228     463.8491
   1421.17493     593.2793     463.7213   1421.17493     593.2793     463.7213
   1421.15967     594.6658     463.0701   1421.15967     594.6658     463.0701
   1421.14441     596.3472     462.7897   1421.14441     596.3472     462.7897
   1421.12915     597.9808     462.8527   1421.12915     597.9808     462.8527
   1421.11389     598.6577     462.0772   1421.11389     598.6577     462.0772
   1421.09863     600.2679     462.4294   1421.09863     600.2679     462.4294
   1421.08337     603.6880     463.5164   1421.08337     603.6880     463.5164
   1421.06812     609.2203     466.4862   1421.06812     609.2203     466.4862
   1421.05286     618.1494     472.7418   1421.05286     618.1494     472.7418
   1421.03760     633.9213     482.3192   1421.03760     633.9213     482.3192
   1421.02234     661.0428     501.0262   1421.02234     661.0428     501.0262
   1421.00708     703.9425     531.1753   1421.00708     703.9425     531.1753
   1420.99182     762.7622     573.8555   1420.99182     762.7622     573.8555
   1420.97656     826.7722     619.2849   1420.97656     826.7722     619.2849
   1420.96130     889.1989     662.0961   1420.96130     889.1989     662.0961
   1420.94604     943.5687     702.2463   1420.94604     943.5687     702.2463
   1420.93079    1000.4476     740.5657   1420.93079    1000.4476     740.5657
   1420.91553    1047.6372     774.5625   1420.91553    1047.6372     774.5625
   1420.90027    1059.6375     781.0860   1420.90027    1059.6375     781.0860
   1420.88501    1080.3540     793.9204   1420.88501    1080.3540     793.9204
   1420.86975    1140.8447     833.6318   1420.86975    1140.8447     833.6318
   1420.85449    1128.7435     825.3758   1420.85449    1128.7435     825.3758
   1420.83923    1015.1483     739.1359   1420.83923    1015.1483     739.1359
   1420.82397     924.6475     671.2587   1420.82397     924.6475     671.2587
   1420.80872     880.6879     638.8160   1420.80872     880.6879     638.8160
   1420.79346     899.1014     650.7744   1420.79346     899.1014     650.7744
   1420.77820     931.8519     671.8235   1420.77820     931.8519     671.8235
   1420.76294     980.5236     706.9202   1420.76294     980.5236     706.9202
   1420.74768    1079.6006     775.1422   1420.74768    1079.6006     775.1422
   1420.73242    1156.0874     829.5340   1420.73242    1156.0874     829.5340
   1420.71716    1139.7069     813.8566   1420.71716    1139.7069     813.8566
   1420.70190    1080.5134     768.0519   1420.70190    1080.5134     768.0519
   1420.68665    1028.0427     728.7353   1420.68665    1028.0427     728.7353
   1420.67139    1007.3290     713.4587   1420.67139    1007.3290     713.4587
   1420.65613    1001.9044     706.4625   1420.65613    1001.9044     706.4625
   1420.64087    1087.8561     764.6783   1420.64087    1087.8561     764.6783
   1420.62561    1318.2485     920.9681   1420.62561    1318.2485     920.9681
   1420.61035    1598.1808    1115.2898   1420.61035    1598.1808    1115.2898
   1420.59509    1740.2454    1210.4413   1420.59509    1740.2454    1210.4413
   1420.57983    1769.9071    1227.4996   1420.57983    1769.9071    1227.4996
   1420.56458    1649.1399    1145.1479   1420.56458    1649.1399    1145.1479
   1420.54932    1707.8759    1181.0643   1420.54932    1707.8759    1181.0643
   1420.53406    1707.4987    1178.0117   1420.53406    1707.4987    1178.0117
   1420.51880    1632.0836    1123.8889   1420.51880    1632.0836    1123.8889
   1420.50354    1618.5920    1110.9507   1420.50354    1618.5920    1110.9507
   1420.48828    1427.8831     977.7437   1420.48828    1427.8831     977.7437
   1420.47302    1123.3132     770.8218   1420.47302    1123.3132     770.8218
   1420.45776     899.0450     618.9779   1420.45776     899.0450     618.9779
   1420.44250     761.0395     525.3947   1420.44250     761.0395     525.3947
   1420.42725     682.3105     472.2115   1420.42725     682.3105     472.2115
   1420.41199     642.5315     443.1984   1420.41199     642.5315     443.1984
   1420.39673     619.7679     427.1157   1420.39673     619.7679     427.1157
   1420.38147     608.3853     417.7971   1420.38147     608.3853     417.7971
   1420.36621     601.2069     411.6292   1420.36621     601.2069     411.6292
   1420.35095     596.7272     408.0186   1420.35095     596.7272     408.0186
   1420.33569     593.2603     405.6048   1420.33569     593.2603     405.6048
   1420.32043     593.1993     404.0881   1420.32043     593.1993     404.0881
   1420.30518     591.9664     402.3721   1420.30518     591.9664     402.3721
   1420.28992     592.5788     402.0229   1420.28992     592.5788     402.0229
   1420.27466     592.0973     400.1815   1420.27466     592.0973     400.1815
   1420.25940     590.9338     399.1938   1420.25940     590.9338     399.1938
   1420.24414     590.6906     399.1411   1420.24414     590.6906     399.1411
   1420.22888     588.9917     397.1633   1420.22888     588.9917     397.1633
   1420.21362     588.2492     395.3345   1420.21362     588.2492     395.3345
   1420.19836     587.6372     394.4691   1420.19836     587.6372     394.4691
   1420.18311     587.2389     392.6470   1420.18311     587.2389     392.6470
   1420.16785     586.6971     392.5052   1420.16785     586.6971     392.5052
   1420.15259     584.6454     390.6535   1420.15259     584.6454     390.6535
   1420.13733     585.0693     389.3365   1420.13733     585.0693     389.3365
   1420.12207     585.5424     388.9540   1420.12207     585.5424     388.9540
   1420.10681     583.9730     388.5679   1420.10681     583.9730     388.5679
   1420.09155     583.0617     387.0689   1420.09155     583.0617     387.0689
   1420.07629     584.3494     386.0407   1420.07629     584.3494     386.0407
   1420.06104     583.0670     386.1041   1420.06104     583.0670     386.1041
   1420.04578     584.2236     384.6037   1420.04578     584.2236     384.6037
   1420.03052     583.6682     384.3471   1420.03052     583.6682     384.3471
   1420.01526     584.5073     384.4648   1420.01526     584.5073     384.4648
   1420.00000     585.5550     385.1940   1420.00000     585.5550     385.1940
   1419.98474     586.6027     385.9235   1419.98474     586.6027     385.9235
   1419.96948     587.4747     382.8257   1419.96948     587.4747     382.8257
   1419.95422     584.4921     381.8320   1419.95422     584.4921     381.8320
   1419.93896     584.5963     380.7726   1419.93896     584.5963     380.7726
   1419.92371     584.1700     380.7012   1419.92371     584.1700     380.7012
   1419.90845     584.0556     379.5397   1419.90845     584.0556     379.5397
   1419.89319     584.3482     378.8589   1419.89319     584.3482     378.8589
   1419.87793     585.9064     378.6949   1419.87793     585.9064     378.6949
   1419.86267     585.7979     378.8026   1419.86267     585.7979     378.8026
   1419.84741     585.6207     378.0294   1419.84741     585.6207     378.0294
   1419.83215     585.4296     377.6344   1419.83215     585.4296     377.6344
   1419.81689     586.9676     376.7514   1419.81689     586.9676     376.7514
   1419.80164     586.2346     376.8477   1419.80164     586.2346     376.8477
   1419.78638     586.7576     376.5161   1419.78638     586.7576     376.5161
   1419.77112     586.0259     375.7799   1419.77112     586.0259     375.7799
   1419.75586     587.5176     375.2003   1419.75586     587.5176     375.2003
   1419.74060     588.0822     375.5997   1419.74060     588.0822     375.5997
   1419.72534     588.8428     374.9342   1419.72534     588.8428     374.9342
   1419.71008     588.4182     374.4680   1419.71008     588.4182     374.4680
   1419.69482     589.1342     374.7679   1419.69482     589.1342     374.7679
   1419.67957     588.3084     373.4699   1419.67957     588.3084     373.4699
   1419.66431     589.1832     373.8717   1419.66431     589.1832     373.8717
   1419.64905     590.2499     372.9092   1419.64905     590.2499     372.9092
   1419.63379     589.6470     373.5186   1419.63379     589.6470     373.5186
   1419.61853     590.2689     372.8296   1419.61853     590.2689     372.8296
   1419.60327     589.9814     372.5734   1419.60327     589.9814     372.5734
   1419.58801     591.1169     372.7202   1419.58801     591.1169     372.7202
   1419.57275     591.2138     372.1447   1419.57275     591.2138     372.1447
   1419.55750     591.6902     370.7756   1419.55750     591.6902     370.7756
   1419.54224     591.8421     372.1924   1419.54224     591.8421     372.1924
   1419.52698     591.8470     371.5354   1419.52698     591.8470     371.5354
   1419.51172     592.1287     371.2483   1419.51172     592.1287     371.2483
   1419.49646     592.5843     371.0535   1419.49646     592.5843     371.0535
   1419.48120     593.1556     370.5762   1419.48120     593.1556     370.5762
   1419.46594     594.1280     370.8339   1419.46594     594.1280     370.8339
   1419.45068     593.9843     370.4646   1419.45068     593.9843     370.4646
   1419.43542     593.4635     369.8922   1419.43542     593.4635     369.8922
   1419.42017     594.9417     370.2746   1419.42017     594.9417     370.2746
   1419.40491     595.3237     370.7236   1419.40491     595.3237     370.7236
   1419.38965     595.9155     370.2933   1419.38965     595.9155     370.2933
   1419.37439     595.9875     370.1905   1419.37439     595.9875     370.1905
   1419.35913     596.3953     369.3416   1419.35913     596.3953     369.3416
   1419.34387     597.4216     369.7953   1419.34387     597.4216     369.7953
   1419.32861     597.3918     369.4935   1419.32861     597.3918     369.4935
   1419.31335     597.0854     369.7655   1419.31335     597.0854     369.7655
   1419.29810     597.7034     369.5481   1419.29810     597.7034     369.5481
   1419.28284     598.2341     369.7488   1419.28284     598.2341     369.7488
   1419.26758     599.4233     369.6203   1419.26758     599.4233     369.6203
   1419.25232     599.0544     369.3658   1419.25232     599.0544     369.3658
   1419.23706     599.2921     369.0504   1419.23706     599.2921     369.0504
   1419.22180     600.5062     369.5717   1419.22180     600.5062     369.5717
   1419.20654     601.2517     369.4518   1419.20654     601.2517     369.4518
   1419.19128     600.6140     369.6377   1419.19128     600.6140     369.6377
   1419.17603     600.6157     368.7664   1419.17603     600.6157     368.7664
   1419.16077     602.6413     370.0404   1419.16077     602.6413     370.0404
   1419.14551     602.4669     369.1029   1419.14551     602.4669     369.1029
   1419.13025     601.6888     369.4167   1419.13025     601.6888     369.4167
   1419.11499     603.5190     369.5502   1419.11499     603.5190     369.5502
   1419.09973     603.4565     369.5191   1419.09973     603.4565     369.5191
   1419.08447     604.8021     369.8179   1419.08447     604.8021     369.8179
   1419.06921     604.1943     369.9678   1419.06921     604.1943     369.9678
   1419.05396     604.6800     369.3003   1419.05396     604.6800     369.3003
   1419.03870     606.0840     370.0250   1419.03870     606.0840     370.0250
   1419.02344     606.2295     369.9937   1419.02344     606.2295     369.9937
   1419.00818     607.2873     370.0193   1419.00818     607.2873     370.0193
   1418.99292     607.5400     369.6602   1418.99292     607.5400     369.6602
   1418.97766     608.1895     370.1970   1418.97766     608.1895     370.1970
   1418.96240     608.6663     370.5852   1418.96240     608.6663     370.5852
   1418.94714     609.1977     370.4532   1418.94714     609.1977     370.4532
   1418.93188     609.4236     370.4744   1418.93188     609.4236     370.4744
   1418.91663     610.7198     371.2848   1418.91663     610.7198     371.2848
   1418.90137     610.5208     370.8778   1418.90137     610.5208     370.8778
   1418.88611     610.9786     371.7193   1418.88611     610.9786     371.7193
   1418.87085     611.9026     371.4754   1418.87085     611.9026     371.4754
   1418.85559     612.5124     371.6617   1418.85559     612.5124     371.6617
   1418.84033     612.5781     371.6762   1418.84033     612.5781     371.6762
   1418.82507     613.6140     372.0221   1418.82507     613.6140     372.0221
   1418.80981     614.5048     372.5730   1418.80981     614.5048     372.5730
   1418.79456     615.1710     373.0864   1418.79456     615.1710     373.0864
   1418.77930     614.9711     372.5090   1418.77930     614.9711     372.5090
   1418.76404     615.6102     372.9150   1418.76404     615.6102     372.9150
   1418.74878     617.5919     372.9447   1418.74878     617.5919     372.9447
   1418.73352     618.2052     373.3821   1418.73352     618.2052     373.3821
   1418.71826     617.1802     374.1092   1418.71826     617.1802     374.1092
   1418.70300     618.7173     373.9490   1418.70300     618.7173     373.9490
   1418.68774     619.0327     374.1017   1418.68774     619.0327     374.1017
   1418.67249     619.1535     374.1964   1418.67249     619.1535     374.1964
   1418.65723     620.6353     375.0267   1418.65723     620.6353     375.0267
   1418.64197     620.1240     374.7025   1418.64197     620.1240     374.7025
   1418.62671     621.1846     375.5808   1418.62671     621.1846     375.5808
   1418.61145     621.6609     375.8382   1418.61145     621.6609     375.8382
   1418.59619     622.8093     376.2237   1418.59619     622.8093     376.2237
   1418.58093     624.0885     375.7462   1418.58093     624.0885     375.7462
   1418.56567     624.8492     377.2629   1418.56567     624.8492     377.2629
   1418.55042     625.5914     376.6144   1418.55042     625.5914     376.6144
   1418.53516     625.8375     377.1833   1418.53516     625.8375     377.1833
   1418.51990     625.6866     377.1181   1418.51990     625.6866     377.1181
   1418.50464     626.8527     378.2810   1418.50464     626.8527     378.2810
   1418.48938     626.8682     378.5462   1418.48938     626.8682     378.5462
   1418.47412     628.1006     378.9070   1418.47412     628.1006     378.9070
   1418.45886     628.6635     379.3733   1418.45886     628.6635     379.3733
   1418.44360     631.0860     379.8580   1418.44360     631.0860     379.8580
   1418.42834     630.0351     380.3023   1418.42834     630.0351     380.3023
   1418.41309     631.7015     380.2758   1418.41309     631.7015     380.2758
   1418.39783     631.3655     381.2631   1418.39783     631.3655     381.2631
   1418.38257     633.6995     381.3621   1418.38257     633.6995     381.3621
   1418.36731     633.3989     382.0203   1418.36731     633.3989     382.0203
   1418.35205     634.4741     382.8439   1418.35205     634.4741     382.8439
   1418.33679     634.2187     382.1796   1418.33679     634.2187     382.1796
   1418.32153     635.4756     382.5087   1418.32153     635.4756     382.5087
   1418.30627     636.1404     382.9285   1418.30627     636.1404     382.9285
   1418.29102     636.2145     383.4510   1418.29102     636.2145     383.4510
   1418.27576     636.5161     383.6856   1418.27576     636.5161     383.6856
   1418.26050     638.6424     384.9653   1418.26050     638.6424     384.9653
   1418.24524     639.0824     385.4421   1418.24524     639.0824     385.4421
   1418.22998     639.7079     385.2897   1418.22998     639.7079     385.2897
   1418.21472     638.7777     385.9926   1418.21472     638.7777     385.9926
   1418.19946     641.8068     386.4334   1418.19946     641.8068     386.4334
   1418.18420     641.6470     386.7883   1418.18420     641.6470     386.7883
   1418.16895     642.4755     386.8151   1418.16895     642.4755     386.8151
   1418.15369     643.7419     387.5450   1418.15369     643.7419     387.5450
   1418.13843     643.8654     388.0787   1418.13843     643.8654     388.0787
   1418.12317     644.7722     388.2920   1418.12317     644.7722     388.2920
   1418.10791     645.8022     389.9148   1418.10791     645.8022     389.9148
   1418.09265     647.1136     390.2315   1418.09265     647.1136     390.2315
   1418.07739     648.1154     390.4746   1418.07739     648.1154     390.4746
   1418.06213     648.1185     390.6307   1418.06213     648.1185     390.6307
   1418.04688     649.4021     392.1785   1418.04688     649.4021     392.1785
   1418.03162     650.3665     392.3600   1418.03162     650.3665     392.3600
   1418.01636     651.1886     392.5777   1418.01636     651.1886     392.5777
   1418.00110     653.2207     393.2317   1418.00110     653.2207     393.2317
   1417.98584     652.4233     393.9273   1417.98584     652.4233     393.9273
   1417.97058     652.7992     394.2342   1417.97058     652.7992     394.2342
   1417.95532     654.4070     394.5552   1417.95532     654.4070     394.5552
   1417.94006     655.1565     395.1607   1417.94006     655.1565     395.1607
   1417.92480     655.7016     395.6041   1417.92480     655.7016     395.6041
   1417.90955     656.8022     396.3373   1417.90955     656.8022     396.3373
   1417.89429     658.2618     396.8437   1417.89429     658.2618     396.8437
   1417.87903     659.0909     397.4309   1417.87903     659.0909     397.4309
   1417.86377     659.9897     398.3274   1417.86377     659.9897     398.3274
   1417.84851     661.4063     398.5740   1417.84851     661.4063     398.5740
   1417.83325     662.0562     398.5889   1417.83325     662.0562     398.5889
   1417.81799     662.7490     399.4784   1417.81799     662.7490     399.4784
   1417.80273     663.2333     400.4586   1417.80273     663.2333     400.4586
   1417.78748     662.9736     400.5706   1417.78748     662.9736     400.5706
   1417.77222     664.6024     401.4118   1417.77222     664.6024     401.4118
   1417.75696     665.5704     402.5563   1417.75696     665.5704     402.5563
   1417.74170     666.2637     402.9445   1417.74170     666.2637     402.9445
   1417.72644     667.8635     403.4840   1417.72644     667.8635     403.4840
   1417.71118     669.0509     404.0996   1417.71118     669.0509     404.0996
   1417.69592     669.1673     403.8133   1417.69592     669.1673     403.8133
   1417.68066     670.6786     404.6192   1417.68066     670.6786     404.6192
   1417.66541     671.1243     405.4226   1417.66541     671.1243     405.4226
   1417.65015     670.9359     406.0524   1417.65015     670.9359     406.0524
   1417.63489     672.0917     406.8695   1417.63489     672.0917     406.8695
   1417.61963     673.9250     406.9186   1417.61963     673.9250     406.9186
   1417.60437     673.1675     408.2296   1417.60437     673.1675     408.2296
   1417.58911     675.9625     407.9919   1417.58911     675.9625     407.9919
   1417.57385     676.0635     409.0988   1417.57385     676.0635     409.0988
   1417.55859     677.1707     409.4953   1417.55859     677.1707     409.4953
   1417.54333     677.8947     410.1096   1417.54333     677.8947     410.1096
   1417.52808     678.2974     411.1669   1417.52808     678.2974     411.1669
   1417.51282     679.5546     411.8217   1417.51282     679.5546     411.8217
   1417.49756     680.7369     411.9305   1417.49756     680.7369     411.9305
   1417.48230     680.3786     413.1808   1417.48230     680.3786     413.1808
   1417.46704     681.7285     413.7277   1417.46704     681.7285     413.7277
   1417.45178     682.1565     413.8336   1417.45178     682.1565     413.8336
   1417.43652     683.3628     415.3428   1417.43652     683.3628     415.3428
   1417.42126     683.7091     415.4747   1417.42126     683.7091     415.4747
   1417.40601     684.5409     416.0175   1417.40601     684.5409     416.0175
   1417.39075     686.2595     416.8189   1417.39075     686.2595     416.8189
   1417.37549     687.2352     416.9435   1417.37549     687.2352     416.9435
   1417.36023     688.5499     418.1113   1417.36023     688.5499     418.1113
   1417.34497     688.8033     417.8607   1417.34497     688.8033     417.8607
   1417.32971     689.2645     419.4020   1417.32971     689.2645     419.4020
   1417.31445     690.0886     419.2125   1417.31445     690.0886     419.2125
   1417.29919     690.8843     420.1359   1417.29919     690.8843     420.1359
   1417.28394     691.8386     420.4592   1417.28394     691.8386     420.4592
   1417.26868     692.5967     421.4001   1417.26868     692.5967     421.4001
   1417.25342     692.4011     421.4767   1417.25342     692.4011     421.4767
   1417.23816     693.1284     421.5172   1417.23816     693.1284     421.5172
   1417.22290     695.9879     423.4713   1417.22290     695.9879     423.4713
   1417.20764     695.6934     423.6001   1417.20764     695.6934     423.6001
   1417.19238     695.8008     424.2259   1417.19238     695.8008     424.2259
   1417.17712     697.0025     424.4047   1417.17712     697.0025     424.4047
   1417.16187     698.4826     426.0116   1417.16187     698.4826     426.0116
   1417.14661     697.7246     425.7599   1417.14661     697.7246     425.7599
   1417.13135     698.0695     426.8160   1417.13135     698.0695     426.8160
   1417.11609     698.2825     427.2822   1417.11609     698.2825     427.2822
   1417.10083     699.7330     427.6594   1417.10083     699.7330     427.6594
   1417.08557     701.3430     428.6588   1417.08557     701.3430     428.6588
   1417.07031     702.2424     428.5110   1417.07031     702.2424     428.5110
   1417.05505     702.8845     429.9215   1417.05505     702.8845     429.9215
   1417.03979     702.0972     429.9068   1417.03979     702.0972     429.9068
   1417.02454     703.6390     430.5128   1417.02454     703.6390     430.5128
   1417.00928     704.2111     430.8120   1417.00928     704.2111     430.8120
   1416.99402     705.2335     431.3100   1416.99402     705.2335     431.3100
   1416.97876     704.8259     432.1180   1416.97876     704.8259     432.1180
   1416.96350     705.5464     432.3652   1416.96350     705.5464     432.3652
   1416.94824     707.0750     432.9946   1416.94824     707.0750     432.9946
   1416.93298     706.9195     433.8173   1416.93298     706.9195     433.8173
   1416.91772     708.4924     434.6758   1416.91772     708.4924     434.6758
   1416.90247     707.2496     434.1556   1416.90247     707.2496     434.1556
   1416.88721     708.4156     434.8006   1416.88721     708.4156     434.8006
   1416.87195     708.5871     435.7860   1416.87195     708.5871     435.7860
   1416.85669     708.9562     435.6210   1416.85669     708.9562     435.6210
   1416.84143     710.2269     437.2797   1416.84143     710.2269     437.2797
   1416.82617     710.8571     436.5811   1416.82617     710.8571     436.5811
   1416.81091     710.1398     437.3145   1416.81091     710.1398     437.3145
   1416.79565     711.0543     436.9575   1416.79565     711.0543     436.9575
   1416.78040     711.2120     438.7156   1416.78040     711.2120     438.7156
   1416.76514     711.5492     438.1952   1416.76514     711.5492     438.1952
   1416.74988     713.2571     439.2092   1416.74988     713.2571     439.2092
   1416.73462     712.1331     439.1587   1416.73462     712.1331     439.1587
   1416.71936     713.4295     439.5350   1416.71936     713.4295     439.5350
   1416.70410     713.3938     440.4867   1416.70410     713.3938     440.4867
   1416.68884     713.5685     440.7920   1416.68884     713.5685     440.7920
   1416.67358     714.9025     441.3393   1416.67358     714.9025     441.3393
   1416.65833     714.9719     441.2304   1416.65833     714.9719     441.2304
   1416.64307     712.3517     441.0248   1416.64307     712.3517     441.0248
   1416.62781     713.4893     441.3083   1416.62781     713.4893     441.3083
   1416.61255     715.2227     442.8466   1416.61255     715.2227     442.8466
   1416.59729     715.6031     443.0293   1416.59729     715.6031     443.0293
   1416.58203     714.8129     441.7722   1416.58203     714.8129     441.7722
   1416.56677     715.9980     443.0230   1416.56677     715.9980     443.0230
   1416.55151     716.0533     442.3526   1416.55151     716.0533     442.3526
   1416.53625     715.5195     443.6707   1416.53625     715.5195     443.6707
   1416.52100     715.3133     442.9107   1416.52100     715.3133     442.9107
   1416.50574     715.8091     443.4930   1416.50574     715.8091     443.4930
   1416.49048     715.1161     443.5862   1416.49048     715.1161     443.5862
   1416.47522     717.0298     444.0132   1416.47522     717.0298     444.0132
   1416.45996     715.8884     444.0315   1416.45996     715.8884     444.0315
   1416.44470     716.0117     444.3266   1416.44470     716.0117     444.3266
   1416.42944     715.9276     444.4114   1416.42944     715.9276     444.4114
   1416.41418     716.1411     444.5266   1416.41418     716.1411     444.5266
   1416.39893     716.2715     444.7300   1416.39893     716.2715     444.7300
   1416.38367     715.7208     444.8687   1416.38367     715.7208     444.8687
   1416.36841     716.7534     444.0766   1416.36841     716.7534     444.0766
   1416.35315     715.1389     445.2097   1416.35315     715.1389     445.2097
   1416.33789     715.7043     445.2451   1416.33789     715.7043     445.2451
   1416.32263     715.1174     445.0966   1416.32263     715.1174     445.0966
   1416.30737     714.1511     445.1454   1416.30737     714.1511     445.1454
   1416.29211     714.6923     444.8552   1416.29211     714.6923     444.8552
   1416.27686     715.0344     445.0532   1416.27686     715.0344     445.0532
   1416.26160     714.3212     445.0805   1416.26160     714.3212     445.0805
   1416.24634     713.9637     445.7747   1416.24634     713.9637     445.7747
   1416.23108     713.6967     446.0834   1416.23108     713.6967     446.0834
   1416.21582     713.5339     445.2500   1416.21582     713.5339     445.2500
   1416.20056     713.2701     444.9810   1416.20056     713.2701     444.9810
   1416.18530     712.9225     445.4227   1416.18530     712.9225     445.4227
   1416.17004     712.1581     445.4367   1416.17004     712.1581     445.4367
   1416.15479     711.3262     445.5165   1416.15479     711.3262     445.5165
   1416.13953     712.5717     444.9216   1416.13953     712.5717     444.9216
   1416.12427     711.3286     445.7370   1416.12427     711.3286     445.7370
   1416.10901     711.0671     445.2739   1416.10901     711.0671     445.2739
   1416.09375     711.1201     445.1880   1416.09375     711.1201     445.1880
   1416.07849     710.6980     444.8400   1416.07849     710.6980     444.8400
   1416.06323     710.0246     445.4152   1416.06323     710.0246     445.4152
   1416.04797     708.2858     444.4796   1416.04797     708.2858     444.4796
   1416.03271     709.1995     444.2441   1416.03271     709.1995     444.2441
   1416.01746     709.6694     444.4960   1416.01746     709.6694     444.4960
   1416.00220     708.6355     444.0476   1416.00220     708.6355     444.0476
   1415.98694     707.6074     444.1290   1415.98694     707.6074     444.1290
   1415.97168     707.2594     443.8517   1415.97168     707.2594     443.8517
   1415.95642     706.9474     443.7504   1415.95642     706.9474     443.7504
   1415.94116     705.9582     443.9823   1415.94116     705.9582     443.9823
   1415.92590     705.4236     443.1553   1415.92590     705.4236     443.1553
   1415.91064     704.9950     444.0848   1415.91064     704.9950     444.0848
   1415.89539     704.1179     443.4881   1415.89539     704.1179     443.4881
   1415.88013     704.6892     443.1379   1415.88013     704.6892     443.1379
   1415.86487     704.6378     443.2103   1415.86487     704.6378     443.2103
   1415.84961     702.5850     442.4733   1415.84961     702.5850     442.4733
   1415.83435     702.2648     442.2609   1415.83435     702.2648     442.2609
   1415.81909     701.6891     442.6107   1415.81909     701.6891     442.6107
   1415.80383     701.1760     442.0114   1415.80383     701.1760     442.0114
   1415.78857     699.9464     441.6201   1415.78857     699.9464     441.6201
   1415.77332     699.2583     441.4488   1415.77332     699.2583     441.4488
   1415.75806     699.4590     441.9422   1415.75806     699.4590     441.9422
   1415.74280     698.3023     440.9610   1415.74280     698.3023     440.9610
   1415.72754     697.0898     441.4849   1415.72754     697.0898     441.4849
   1415.71228     696.4868     440.7461   1415.71228     696.4868     440.7461
   1415.69702     695.4985     441.1266   1415.69702     695.4985     441.1266
   1415.68176     695.7850     440.8638   1415.68176     695.7850     440.8638
   1415.66650     693.4882     440.0594   1415.66650     693.4882     440.0594
   1415.65125     694.1472     439.4052   1415.65125     694.1472     439.4052
   1415.63599     692.8488     439.5732   1415.63599     692.8488     439.5732
   1415.62073     694.1527     439.5466   1415.62073     694.1527     439.5466
   1415.60547     692.2427     438.7859   1415.60547     692.2427     438.7859
   1415.59021     690.8977     439.1821   1415.59021     690.8977     439.1821
   1415.57495     689.5438     438.9822   1415.57495     689.5438     438.9822
   1415.55969     689.7870     439.1678   1415.55969     689.7870     439.1678
   1415.54443     687.4118     437.8630   1415.54443     687.4118     437.8630
   1415.52917     687.8842     437.2664   1415.52917     687.8842     437.2664
   1415.51392     686.7113     437.9424   1415.51392     686.7113     437.9424
   1415.49866     685.7563     437.8799   1415.49866     685.7563     437.8799
   1415.48340     684.4753     436.8456   1415.48340     684.4753     436.8456
   1415.46814     683.4953     437.3481   1415.46814     683.4953     437.3481
   1415.45288     683.9879     435.2356   1415.45288     683.9879     435.2356
   1415.43762     682.1039     435.7571   1415.43762     682.1039     435.7571
   1415.42236     680.6068     435.3559   1415.42236     680.6068     435.3559
   1415.40710     679.8967     434.7522   1415.40710     679.8967     434.7522
   1415.39185     679.2838     435.4226   1415.39185     679.2838     435.4226
   1415.37659     678.0228     434.0835   1415.37659     678.0228     434.0835
   1415.36133     676.3249     434.0802   1415.36133     676.3249     434.0802
   1415.34607     676.9926     433.6860   1415.34607     676.9926     433.6860
   1415.33081     673.6066     433.8343   1415.33081     673.6066     433.8343
   1415.31555     674.5334     432.7530   1415.31555     674.5334     432.7530
   1415.30029     671.6179     433.0312   1415.30029     671.6179     433.0312
   1415.28503     671.4678     432.2866   1415.28503     671.4678     432.2866
   1415.26978     670.2314     431.9570   1415.26978     670.2314     431.9570
   1415.25452     670.6085     431.4066   1415.25452     670.6085     431.4066
   1415.23926     667.9100     431.5901   1415.23926     667.9100     431.5901
   1415.22400     666.1716     431.0772   1415.22400     666.1716     431.0772
   1415.20874     665.7477     430.6028   1415.20874     665.7477     430.6028
   1415.19348     664.2687     429.6183   1415.19348     664.2687     429.6183
   1415.17822     663.5980     428.9712   1415.17822     663.5980     428.9712
   1415.16296     661.7282     428.6501   1415.16296     661.7282     428.6501
   1415.14771     661.3160     428.1932   1415.14771     661.3160     428.1932
   1415.13245     660.2248     427.8950   1415.13245     660.2248     427.8950
   1415.11719     659.4878     427.1093   1415.11719     659.4878     427.1093
   1415.10193     657.1219     426.9999   1415.10193     657.1219     426.9999
   1415.08667     655.0196     426.8458   1415.08667     655.0196     426.8458
   1415.07141     653.3336     425.7643   1415.07141     653.3336     425.7643
   1415.05615     652.4199     425.5945   1415.05615     652.4199     425.5945
   1415.04089     651.0657     424.8353   1415.04089     651.0657     424.8353
   1415.02563     650.6993     424.4106   1415.02563     650.6993     424.4106
   1415.01038     647.5340     423.9658   1415.01038     647.5340     423.9658
   1414.99512     646.4163     422.3724   1414.99512     646.4163     422.3724
   1414.97986     645.8476     422.8558   1414.97986     645.8476     422.8558
   1414.96460     644.2032     422.6799   1414.96460     644.2032     422.6799
   1414.94934     643.0455     421.7850   1414.94934     643.0455     421.7850
   1414.93408     641.5745     421.3103   1414.93408     641.5745     421.3103
   1414.91882     640.2467     420.0453   1414.91882     640.2467     420.0453
   1414.90356     636.4254     419.7269   1414.90356     636.4254     419.7269
   1414.88831     635.5271     419.5213   1414.88831     635.5271     419.5213
   1414.87305     633.7321     418.5948   1414.87305     633.7321     418.5948
   1414.85779     632.9627     418.0506   1414.85779     632.9627     418.0506
   1414.84253     630.9303     417.4323   1414.84253     630.9303     417.4323
   1414.82727     629.0266     416.2087   1414.82727     629.0266     416.2087
   1414.81201     628.0203     416.2916   1414.81201     628.0203     416.2916
   1414.79675     626.1290     415.8326   1414.79675     626.1290     415.8326
   1414.78149     624.7474     414.8771   1414.78149     624.7474     414.8771
   1414.76624     622.5627     413.4071   1414.76624     622.5627     413.4071
   1414.75098     621.8870     412.4839   1414.75098     621.8870     412.4839
   1414.73572     620.1454     412.9553   1414.73572     620.1454     412.9553
   1414.72046     616.9033     412.1098   1414.72046     616.9033     412.1098
   1414.70520     615.7010     410.6890   1414.70520     615.7010     410.6890
   1414.68994     613.7244     409.6456   1414.68994     613.7244     409.6456
   1414.67468     610.3937     409.3727   1414.67468     610.3937     409.3727
   1414.65942     610.4803     408.4422   1414.65942     610.4803     408.4422
   1414.64417     608.3088     407.7850   1414.64417     608.3088     407.7850
   1414.62891     605.7410     407.4054   1414.62891     605.7410     407.4054
   1414.61365     604.2675     406.1032   1414.61365     604.2675     406.1032
   1414.59839     603.0032     405.8282   1414.59839     603.0032     405.8282
   1414.58313     600.0375     404.2820   1414.58313     600.0375     404.2820
   1414.56787     598.0931     403.5660   1414.56787     598.0931     403.5660
   1414.55261     595.4603     403.0950   1414.55261     595.4603     403.0950
   1414.53735     594.1141     401.9953   1414.53735     594.1141     401.9953
   1414.52209     591.7247     400.8332   1414.52209     591.7247     400.8332
   1414.50684     590.7889     400.0295   1414.50684     590.7889     400.0295
   1414.49158     587.6072     399.5884   1414.49158     587.6072     399.5884
   1414.47632     585.3585     399.2031   1414.47632     585.3585     399.2031
   1414.46106     583.1777     398.6038   1414.46106     583.1777     398.6038
   1414.44580     580.8461     396.5869   1414.44580     580.8461     396.5869
   1414.43054     579.6307     395.9014   1414.43054     579.6307     395.9014
   1414.41528     577.1246     394.8095   1414.41528     577.1246     394.8095
   1414.40002     574.8526     393.5308   1414.40002     574.8526     393.5308
   1414.38477     571.6750     392.3004   1414.38477     571.6750     392.3004
   1414.36951     569.4183     391.5715   1414.36951     569.4183     391.5715
   1414.35425     567.2447     390.5397   1414.35425     567.2447     390.5397
   1414.33899     565.7755     390.0582   1414.33899     565.7755     390.0582
   1414.32373     563.5745     389.0826   1414.32373     563.5745     389.0826
   1414.30847     560.2762     387.7851   1414.30847     560.2762     387.7851
   1414.29321     558.3149     386.8327   1414.29321     558.3149     386.8327
   1414.27795     556.5838     385.4372   1414.27795     556.5838     385.4372
   1414.26270     553.6403     384.6109   1414.26270     553.6403     384.6109
   1414.24744     550.8979     383.6763   1414.24744     550.8979     383.6763
   1414.23218     549.1926     382.7178   1414.23218     549.1926     382.7178
   1414.21692     546.0859     381.6402   1414.21692     546.0859     381.6402
   1414.20166     543.7785     380.4273   1414.20166     543.7785     380.4273
   1414.18640     541.3066     379.2646   1414.18640     541.3066     379.2646
   1414.17114     539.0942     377.6596   1414.17114     539.0942     377.6596
   1414.15588     536.2868     377.5033   1414.15588     536.2868     377.5033
   1414.14062     533.6296     375.5903   1414.14062     533.6296     375.5903
   1414.12537     531.6528     374.4070   1414.12537     531.6528     374.4070
   1414.11011     529.0906     373.1373   1414.11011     529.0906     373.1373
   1414.09485     525.6316     371.9117   1414.09485     525.6316     371.9117
   1414.07959     523.7780     370.6130   1414.07959     523.7780     370.6130
   1414.06433     521.1110     369.8318   1414.06433     521.1110     369.8318
   1414.04907     518.6110     368.9711   1414.04907     518.6110     368.9711
   1414.03381     515.9338     367.6101   1414.03381     515.9338     367.6101
   1414.01855     515.0759     366.2389   1414.01855     515.0759     366.2389
   1414.00330     535.6133     375.9679   1414.00330     535.6133     375.9679
   1413.98804     509.5717     364.0967   1413.98804     509.5717     364.0967
   1413.97278     506.2975     362.4835   1413.97278     506.2975     362.4835
   1413.95752     502.9368     360.7086   1413.95752     502.9368     360.7086
   1413.94226     499.5794     359.6096   1413.94226     499.5794     359.6096
   1413.92700     497.8260     358.7257   1413.92700     497.8260     358.7257
   1413.91174     494.3821     357.2014   1413.91174     494.3821     357.2014
   1413.89648     492.4572     355.4234   1413.89648     492.4572     355.4234
   1413.88123     489.5859     354.3422   1413.88123     489.5859     354.3422
   1413.86597     486.7059     352.9485   1413.86597     486.7059     352.9485
   1413.85071     484.4628     352.0996   1413.85071     484.4628     352.0996
   1413.83545     481.3765     350.6923   1413.83545     481.3765     350.6923
   1413.82019     478.7453     349.1702   1413.82019     478.7453     349.1702
   1413.80493     476.3704     348.1578   1413.80493     476.3704     348.1578
   1413.78967     473.2723     346.7478   1413.78967     473.2723     346.7478
   1413.77441     471.3802     345.0092   1413.77441     471.3802     345.0092
   1413.75916     467.4348     343.5755   1413.75916     467.4348     343.5755
   1413.74390     465.1261     342.8780   1413.74390     465.1261     342.8780
   1413.72864     463.2069     341.1855   1413.72864     463.2069     341.1855
   1413.71338     459.7089     339.6224   1413.71338     459.7089     339.6224
   1413.69812     456.6651     338.3760   1413.69812     456.6651     338.3760
   1413.68286     454.2362     336.9875   1413.68286     454.2362     336.9875
   1413.66760     451.7941     335.3765   1413.66760     451.7941     335.3765
   1413.65234     449.1814     334.2320   1413.65234     449.1814     334.2320
   1413.63708     446.4551     333.0055   1413.63708     446.4551     333.0055
   1413.62183     442.6417     331.4287   1413.62183     442.6417     331.4287
   1413.60657     441.2105     329.5181   1413.60657     441.2105     329.5181
   1413.59131     438.1986     329.0499   1413.59131     438.1986     329.0499
   1413.57605     435.5241     327.4179   1413.57605     435.5241     327.4179
   1413.56079     433.7111     325.8878   1413.56079     433.7111     325.8878
   1413.54553     430.4162     324.4827   1413.54553     430.4162     324.4827
   1413.53027     427.5922     322.8312   1413.53027     427.5922     322.8312
   1413.51501     424.7395     321.3872   1413.51501     424.7395     321.3872
   1413.49976     422.4513     320.5730   1413.49976     422.4513     320.5730
   1413.48450     419.5539     318.9629   1413.48450     419.5539     318.9629
   1413.46924     417.5916     317.4705   1413.46924     417.5916     317.4705
   1413.45398     414.5400     316.1299   1413.45398     414.5400     316.1299
   1413.43872     412.4369     314.8962   1413.43872     412.4369     314.8962
   1413.42346     409.5760     312.7460   1413.42346     409.5760     312.7460
   1413.40820     406.7054     311.7862   1413.40820     406.7054     311.7862
   1413.39294     404.2357     310.6550   1413.39294     404.2357     310.6550
   1413.37769     401.6870     309.0209   1413.37769     401.6870     309.0209
   1413.36243     399.6271     307.5822   1413.36243     399.6271     307.5822
   1413.34717     397.0549     306.4073   1413.34717     397.0549     306.4073
   1413.33191     395.3071     304.5950   1413.33191     395.3071     304.5950
   1413.31665     392.3047     303.7238   1413.31665     392.3047     303.7238
   1413.30139     389.2987     302.2390   1413.30139     389.2987     302.2390
   1413.28613     387.5266     300.8189   1413.28613     387.5266     300.8189
   1413.27087     385.1804     299.4803   1413.27087     385.1804     299.4803
   1413.25562     382.6712     297.8811   1413.25562     382.6712     297.8811
   1413.24036     379.8063     296.7981   1413.24036     379.8063     296.7981
   1413.22510     377.9033     295.7843   1413.22510     377.9033     295.7843
   1413.20984     376.1924     294.2899   1413.20984     376.1924     294.2899
   1413.19458     373.7161     292.7489   1413.19458     373.7161     292.7489
   1413.17932     371.1561     291.5580   1413.17932     371.1561     291.5580
   1413.16406     368.4809     290.3426   1413.16406     368.4809     290.3426
   1413.14880     367.5008     288.8779   1413.14880     367.5008     288.8779
   1413.13354     364.6518     288.0758   1413.13354     364.6518     288.0758
   1413.11829     362.6031     287.0937   1413.11829     362.6031     287.0937
   1413.10303     359.8452     285.6420   1413.10303     359.8452     285.6420
   1413.08777     358.3420     284.2653   1413.08777     358.3420     284.2653
   1413.07251     356.4537     282.9900   1413.07251     356.4537     282.9900
   1413.05725     354.4774     281.5777   1413.05725     354.4774     281.5777
   1413.04199     352.5917     280.4936   1413.04199     352.5917     280.4936
   1413.02673     350.7598     279.6346   1413.02673     350.7598     279.6346
   1413.01147     348.2298     278.5023   1413.01147     348.2298     278.5023
   1412.99622     346.2146     277.2659   1412.99622     346.2146     277.2659
   1412.98096     344.6520     275.9395   1412.98096     344.6520     275.9395
   1412.96570     343.3943     275.2805   1412.96570     343.3943     275.2805
   1412.95044     340.8506     273.5085   1412.95044     340.8506     273.5085
   1412.93518     339.6899     273.0100   1412.93518     339.6899     273.0100
   1412.91992     337.5309     271.7862   1412.91992     337.5309     271.7862
   1412.90466     335.7304     271.2440   1412.90466     335.7304     271.2440
   1412.88940     334.4559     270.0602   1412.88940     334.4559     270.0602
   1412.87415     332.4438     269.3551   1412.87415     332.4438     269.3551
   1412.85889     331.2974     268.2445   1412.85889     331.2974     268.2445
   1412.84363     329.5233     266.9716   1412.84363     329.5233     266.9716
   1412.82837     327.9414     265.9336   1412.82837     327.9414     265.9336
   1412.81311     326.8102     265.4549   1412.81311     326.8102     265.4549
   1412.79785     324.9927     264.6167   1412.79785     324.9927     264.6167
   1412.78259     323.9590     263.7998   1412.78259     323.9590     263.7998
   1412.76733     322.9204     263.4775   1412.76733     322.9204     263.4775
   1412.75208     321.3178     261.9457   1412.75208     321.3178     261.9457
   1412.73682     319.8502     261.8000   1412.73682     319.8502     261.8000
   1412.72156     319.1377     260.4523   1412.72156     319.1377     260.4523
   1412.70630     317.6731     260.3473   1412.70630     317.6731     260.3473
   1412.69104     316.4372     259.6178   1412.69104     316.4372     259.6178
   1412.67578     315.5756     258.6704   1412.67578     315.5756     258.6704
   1412.66052     314.8204     258.3088   1412.66052     314.8204     258.3088
   1412.64526     313.4834     257.3760   1412.64526     313.4834     257.3760
   1412.63000     312.7591     257.3364   1412.63000     312.7591     257.3364
   1412.61475     311.7494     257.0523   1412.61475     311.7494     257.0523
   1412.59949     311.0585     256.2138   1412.59949     311.0585     256.2138
   1412.58423     310.2367     255.8442   1412.58423     310.2367     255.8442
   1412.56897     309.1789     255.5511   1412.56897     309.1789     255.5511
   1412.55371     308.3575     255.1105   1412.55371     308.3575     255.1105
   1412.53845     307.9787     254.8011   1412.53845     307.9787     254.8011
   1412.52319     307.5104     254.5238   1412.52319     307.5104     254.5238
   1412.50793     306.6217     254.2083   1412.50793     306.6217     254.2083
   1412.49268     306.0821     253.4782   1412.49268     306.0821     253.4782
   1412.47742     305.5638     253.8631   1412.47742     305.5638     253.8631
   1412.46216     305.4611     253.7800   1412.46216     305.4611     253.7800
   1412.44690     304.9708     253.6012   1412.44690     304.9708     253.6012
   1412.43164     304.5916     253.3804   1412.43164     304.5916     253.3804
   1412.41638     304.1981     253.3603   1412.41638     304.1981     253.3603
   1412.40112     304.4735     253.1219   1412.40112     304.4735     253.1219
   1412.38586     303.5720     252.8647   1412.38586     303.5720     252.8647
   1412.37061     303.4856     252.9002   1412.37061     303.4856     252.9002
   1412.35535     303.7675     253.2447   1412.35535     303.7675     253.2447
   1412.34009     303.3903     252.9780   1412.34009     303.3903     252.9780
   1412.32483     303.5086     253.3262   1412.32483     303.5086     253.3262
   1412.30957     303.7997     253.6843   1412.30957     303.7997     253.6843
   1412.29431     304.0687     253.8746   1412.29431     304.0687     253.8746
   1412.27905     303.7477     253.9373   1412.27905     303.7477     253.9373
   1412.26379     303.9932     254.7233   1412.26379     303.9932     254.7233
   1412.24854     304.2104     254.9845   1412.24854     304.2104     254.9845
   1412.23328     304.0312     255.5024   1412.23328     304.0312     255.5024
   1412.21802     304.7432     255.8351   1412.21802     304.7432     255.8351
   1412.20276     305.0841     255.7888   1412.20276     305.0841     255.7888