#     FILENAME=!Skynet_57528_lach-cc-215_20624_21044.cyb.fits
#     BASENAME=Skynet_57528_lach-cc-215_20624_21044
#     SRC_NAME=lach-cc-215
#     OBSERVER=ccmadison16_9505
#     DATE_OBS=2016-05-20T20:04:52.680
#        OBSID=20624
#      SCANNUM=21044
#          MJD=57528.8378
#          UTC=72381
#     SCANTYPE=track
#     DATAMODE=HIRES
#     TUNEFREQ=1420.0000
# Actual_FREQ1=1420.0000
# Actual_FREQ2=1420.0000
#    LO1Tuning=6870.000
#     RFFILTER=1355_1435
#        OBSBW=-15.6250
#        NCHAN=1024 
#        FOCUS=37.0270
#           RA=06:55:12.83
#          DEC=-01:50:25.41
#      RA(hrs)=6.920200
#     DEC(deg)=-1.840400
#    AZIM(deg)=173.740
#    ELEV(deg)=49.409
#     IFattens=10.00, 9.00
#      WARNING=None
#    TCAL_XL1=7.9635
#    TCAL_YR1=9.1340
#    TCAL_XL2=7.9635
#    TCAL_YR2=9.1340
#     TRX_XL1=11.7060
#     TRX_YR1=11.7060
#     TRX_XL2=11.7060
#     TRX_YR2=11.7060
#        TAVE=1.0000
#Freq1(MHz)          XL1          YR1  Freq2(MHz)          XL2          YR2 

   1427.81250     352.8850     258.9982   1427.81250     352.8850     258.9982
   1427.79724     354.1191     259.3776   1427.79724     354.1191     259.3776
   1427.78198     354.1875     260.0589   1427.78198     354.1875     260.0589
   1427.76672     354.6078     260.9411   1427.76672     354.6078     260.9411
   1427.75146     355.7297     261.4354   1427.75146     355.7297     261.4354
   1427.73621     356.3575     261.9810   1427.73621     356.3575     261.9810
   1427.72095     357.5829     262.3719   1427.72095     357.5829     262.3719
   1427.70569     358.8797     263.5185   1427.70569     358.8797     263.5185
   1427.69043     358.8890     264.1204   1427.69043     358.8890     264.1204
   1427.67517     359.9693     265.2178   1427.67517     359.9693     265.2178
   1427.65991     361.6705     266.0712   1427.65991     361.6705     266.0712
   1427.64465     362.8678     266.6331   1427.64465     362.8678     266.6331
   1427.62939     364.2425     267.8821   1427.62939     364.2425     267.8821
   1427.61414     364.6280     268.5807   1427.61414     364.6280     268.5807
   1427.59888     366.4007     269.7593   1427.59888     366.4007     269.7593
   1427.58362     367.9959     270.6201   1427.58362     367.9959     270.6201
   1427.56836     368.6827     271.8355   1427.56836     368.6827     271.8355
   1427.55310     370.4395     273.0624   1427.55310     370.4395     273.0624
   1427.53784     372.0489     274.0775   1427.53784     372.0489     274.0775
   1427.52258     373.8661     275.5943   1427.52258     373.8661     275.5943
   1427.50732     374.9097     276.9558   1427.50732     374.9097     276.9558
   1427.49207     375.6189     278.1129   1427.49207     375.6189     278.1129
   1427.47681     377.7161     278.7339   1427.47681     377.7161     278.7339
   1427.46155     379.8146     280.4671   1427.46155     379.8146     280.4671
   1427.44629     381.1965     281.5067   1427.44629     381.1965     281.5067
   1427.43103     382.1953     283.3076   1427.43103     382.1953     283.3076
   1427.41577     385.1606     284.7330   1427.41577     385.1606     284.7330
   1427.40051     386.3195     286.4741   1427.40051     386.3195     286.4741
   1427.38525     387.7279     288.0736   1427.38525     387.7279     288.0736
   1427.37000     390.8527     289.2947   1427.37000     390.8527     289.2947
   1427.35474     392.3384     290.7264   1427.35474     392.3384     290.7264
   1427.33948     394.4326     292.1949   1427.33948     394.4326     292.1949
   1427.32422     396.1926     294.1992   1427.32422     396.1926     294.1992
   1427.30896     398.1431     295.8879   1427.30896     398.1431     295.8879
   1427.29370     400.2383     297.6001   1427.29370     400.2383     297.6001
   1427.27844     402.6967     299.0838   1427.27844     402.6967     299.0838
   1427.26318     404.3853     301.3009   1427.26318     404.3853     301.3009
   1427.24792     407.2301     303.2384   1427.24792     407.2301     303.2384
   1427.23267     408.8798     304.4792   1427.23267     408.8798     304.4792
   1427.21741     411.3112     306.6086   1427.21741     411.3112     306.6086
   1427.20215     412.6167     308.0601   1427.20215     412.6167     308.0601
   1427.18689     415.7378     310.2998   1427.18689     415.7378     310.2998
   1427.17163     418.3318     312.0855   1427.17163     418.3318     312.0855
   1427.15637     420.0985     314.3416   1427.15637     420.0985     314.3416
   1427.14111     421.8950     316.3312   1427.14111     421.8950     316.3312
   1427.12585     425.4959     318.3261   1427.12585     425.4959     318.3261
   1427.11060     427.9034     320.1401   1427.11060     427.9034     320.1401
   1427.09534     429.8015     322.4385   1427.09534     429.8015     322.4385
   1427.08008     431.8180     324.2433   1427.08008     431.8180     324.2433
   1427.06482     435.3340     326.1227   1427.06482     435.3340     326.1227
   1427.04956     436.7127     328.2706   1427.04956     436.7127     328.2706
   1427.03430     439.7540     330.2756   1427.03430     439.7540     330.2756
   1427.01904     442.3016     333.1180   1427.01904     442.3016     333.1180
   1427.00378     444.4234     335.0506   1427.00378     444.4234     335.0506
   1426.98853     447.4487     337.5940   1426.98853     447.4487     337.5940
   1426.97327     450.2456     339.8377   1426.97327     450.2456     339.8377
   1426.95801     452.6732     342.0154   1426.95801     452.6732     342.0154
   1426.94275     455.6894     344.3454   1426.94275     455.6894     344.3454
   1426.92749     458.1040     346.6061   1426.92749     458.1040     346.6061
   1426.91223     460.1808     348.8107   1426.91223     460.1808     348.8107
   1426.89697     463.4625     351.4508   1426.89697     463.4625     351.4508
   1426.88171     465.8692     353.0595   1426.88171     465.8692     353.0595
   1426.86646     468.7906     355.6860   1426.86646     468.7906     355.6860
   1426.85120     471.9784     358.5542   1426.85120     471.9784     358.5542
   1426.83594     473.9825     360.5195   1426.83594     473.9825     360.5195
   1426.82068     477.0325     362.7374   1426.82068     477.0325     362.7374
   1426.80542     479.4763     365.4254   1426.80542     479.4763     365.4254
   1426.79016     481.7942     368.5290   1426.79016     481.7942     368.5290
   1426.77490     484.6100     370.2521   1426.77490     484.6100     370.2521
   1426.75964     487.5293     372.7625   1426.75964     487.5293     372.7625
   1426.74438     489.3053     375.2457   1426.74438     489.3053     375.2457
   1426.72913     493.1667     377.2281   1426.72913     493.1667     377.2281
   1426.71387     496.2688     379.9491   1426.71387     496.2688     379.9491
   1426.69861     498.5084     382.7365   1426.69861     498.5084     382.7365
   1426.68335     500.2856     385.6101   1426.68335     500.2856     385.6101
   1426.66809     504.0539     387.9271   1426.66809     504.0539     387.9271
   1426.65283     506.3079     390.2080   1426.65283     506.3079     390.2080
   1426.63757     509.0759     393.0993   1426.63757     509.0759     393.0993
   1426.62231     513.9205     396.4808   1426.62231     513.9205     396.4808
   1426.60706     514.6863     397.7901   1426.60706     514.6863     397.7901
   1426.59180     517.8548     400.5917   1426.59180     517.8548     400.5917
   1426.57654     520.3784     402.5043   1426.57654     520.3784     402.5043
   1426.56128     523.2878     406.1496   1426.56128     523.2878     406.1496
   1426.54602     525.0674     407.3720   1426.54602     525.0674     407.3720
   1426.53076     528.3790     410.0017   1426.53076     528.3790     410.0017
   1426.51550     530.6876     413.3979   1426.51550     530.6876     413.3979
   1426.50024     533.4649     415.5743   1426.50024     533.4649     415.5743
   1426.48499     535.8047     417.4213   1426.48499     535.8047     417.4213
   1426.46973     539.0663     420.7115   1426.46973     539.0663     420.7115
   1426.45447     542.1222     422.3969   1426.45447     542.1222     422.3969
   1426.43921     543.3169     425.4590   1426.43921     543.3169     425.4590
   1426.42395     547.4532     427.7517   1426.42395     547.4532     427.7517
   1426.40869     549.7144     430.3491   1426.40869     549.7144     430.3491
   1426.39343     551.8204     433.3674   1426.39343     551.8204     433.3674
   1426.37817     555.0632     436.3575   1426.37817     555.0632     436.3575
   1426.36292     557.2776     437.8096   1426.36292     557.2776     437.8096
   1426.34766     560.4601     440.2250   1426.34766     560.4601     440.2250
   1426.33240     562.9850     442.7133   1426.33240     562.9850     442.7133
   1426.31714     564.7579     445.5978   1426.31714     564.7579     445.5978
   1426.30188     568.1301     448.4232   1426.30188     568.1301     448.4232
   1426.28662     569.8765     451.4006   1426.28662     569.8765     451.4006
   1426.27136     573.1702     454.1853   1426.27136     573.1702     454.1853
   1426.25610     574.9972     455.7158   1426.25610     574.9972     455.7158
   1426.24084     576.8787     458.1238   1426.24084     576.8787     458.1238
   1426.22559     580.4902     460.7627   1426.22559     580.4902     460.7627
   1426.21033     581.1640     462.9357   1426.21033     581.1640     462.9357
   1426.19507     584.6299     466.6019   1426.19507     584.6299     466.6019
   1426.17981     586.4096     467.7572   1426.17981     586.4096     467.7572
   1426.16455     588.6552     470.2520   1426.16455     588.6552     470.2520
   1426.14929     591.7004     473.4046   1426.14929     591.7004     473.4046
   1426.13403     593.2918     475.4161   1426.13403     593.2918     475.4161
   1426.11877     595.8916     477.4957   1426.11877     595.8916     477.4957
   1426.10352     597.7254     480.4533   1426.10352     597.7254     480.4533
   1426.08826     600.4913     482.8454   1426.08826     600.4913     482.8454
   1426.07300     602.6191     484.2163   1426.07300     602.6191     484.2163
   1426.05774     604.5678     487.3970   1426.05774     604.5678     487.3970
   1426.04248     607.7034     490.2638   1426.04248     607.7034     490.2638
   1426.02722     609.2607     492.1762   1426.02722     609.2607     492.1762
   1426.01196     610.5955     494.5132   1426.01196     610.5955     494.5132
   1425.99670     613.3369     496.7062   1425.99670     613.3369     496.7062
   1425.98145     614.6716     498.9191   1425.98145     614.6716     498.9191
   1425.96619     617.9233     501.2861   1425.96619     617.9233     501.2861
   1425.95093     618.6110     503.4464   1425.95093     618.6110     503.4464
   1425.93567     620.8350     506.3958   1425.93567     620.8350     506.3958
   1425.92041     622.5050     508.1181   1425.92041     622.5050     508.1181
   1425.90515     625.4125     510.0620   1425.90515     625.4125     510.0620
   1425.88989     627.5078     512.1040   1425.88989     627.5078     512.1040
   1425.87463     628.7025     515.3390   1425.87463     628.7025     515.3390
   1425.85938     631.2657     517.1421   1425.85938     631.2657     517.1421
   1425.84412     632.9169     519.3502   1425.84412     632.9169     519.3502
   1425.82886     633.9484     520.7634   1425.82886     633.9484     520.7634
   1425.81360     637.0922     523.3674   1425.81360     637.0922     523.3674
   1425.79834     638.0826     525.2941   1425.79834     638.0826     525.2941
   1425.78308     639.8400     528.4122   1425.78308     639.8400     528.4122
   1425.76782     641.4402     529.9672   1425.76782     641.4402     529.9672
   1425.75256     643.0039     531.5663   1425.75256     643.0039     531.5663
   1425.73730     645.1017     534.1722   1425.73730     645.1017     534.1722
   1425.72205     646.4304     536.5890   1425.72205     646.4304     536.5890
   1425.70679     647.1523     537.1691   1425.70679     647.1523     537.1691
   1425.69153     649.5514     540.5723   1425.69153     649.5514     540.5723
   1425.67627     650.0751     541.3289   1425.67627     650.0751     541.3289
   1425.66101     652.0746     544.0641   1425.66101     652.0746     544.0641
   1425.64575     654.8800     544.7810   1425.64575     654.8800     544.7810
   1425.63049     656.0264     547.7370   1425.63049     656.0264     547.7370
   1425.61523     656.3925     549.4415   1425.61523     656.3925     549.4415
   1425.59998     658.0937     551.8964   1425.59998     658.0937     551.8964
   1425.58472     659.3506     554.5902   1425.58472     659.3506     554.5902
   1425.56946     660.1155     556.0776   1425.56946     660.1155     556.0776
   1425.55420     661.1757     557.3096   1425.55420     661.1757     557.3096
   1425.53894     663.1256     559.1409   1425.53894     663.1256     559.1409
   1425.52368     664.8621     560.5815   1425.52368     664.8621     560.5815
   1425.50842     665.4366     562.6734   1425.50842     665.4366     562.6734
   1425.49316     667.9010     564.5786   1425.49316     667.9010     564.5786
   1425.47791     667.5705     566.8193   1425.47791     667.5705     566.8193
   1425.46265     668.2481     567.4191   1425.46265     668.2481     567.4191
   1425.44739     669.3703     569.4842   1425.44739     669.3703     569.4842
   1425.43213     672.5272     570.7437   1425.43213     672.5272     570.7437
   1425.41687     672.9504     573.7181   1425.41687     672.9504     573.7181
   1425.40161     673.7322     574.4147   1425.40161     673.7322     574.4147
   1425.38635     675.0341     575.3283   1425.38635     675.0341     575.3283
   1425.37109     675.2400     578.5649   1425.37109     675.2400     578.5649
   1425.35583     676.0244     579.4847   1425.35583     676.0244     579.4847
   1425.34058     677.2519     580.8668   1425.34058     677.2519     580.8668
   1425.32532     678.6295     582.6523   1425.32532     678.6295     582.6523
   1425.31006     679.1652     584.3074   1425.31006     679.1652     584.3074
   1425.29480     680.4727     585.7844   1425.29480     680.4727     585.7844
   1425.27954     680.7880     587.5100   1425.27954     680.7880     587.5100
   1425.26428     681.3884     588.6953   1425.26428     681.3884     588.6953
   1425.24902     682.2065     589.3628   1425.24902     682.2065     589.3628
   1425.23376     683.4304     591.5691   1425.23376     683.4304     591.5691
   1425.21851     683.4934     593.5322   1425.21851     683.4934     593.5322
   1425.20325     684.9498     594.0277   1425.20325     684.9498     594.0277
   1425.18799     686.4355     595.9666   1425.18799     686.4355     595.9666
   1425.17273     686.7998     596.5004   1425.17273     686.7998     596.5004
   1425.15747     686.2328     598.6476   1425.15747     686.2328     598.6476
   1425.14221     687.1787     599.5413   1425.14221     687.1787     599.5413
   1425.12695     687.2806     601.0106   1425.12695     687.2806     601.0106
   1425.11169     688.3640     601.5741   1425.11169     688.3640     601.5741
   1425.09644     687.9246     603.1494   1425.09644     687.9246     603.1494
   1425.08118     688.9697     604.1359   1425.08118     688.9697     604.1359
   1425.06592     689.5988     606.9158   1425.06592     689.5988     606.9158
   1425.05066     689.0062     606.8614   1425.05066     689.0062     606.8614
   1425.03540     691.0168     608.7014   1425.03540     691.0168     608.7014
   1425.02014     690.7794     609.5259   1425.02014     690.7794     609.5259
   1425.00488     691.0660     611.4671   1425.00488     691.0660     611.4671
   1424.98962     693.0027     612.8967   1424.98962     693.0027     612.8967
   1424.97437     691.6345     613.1700   1424.97437     691.6345     613.1700
   1424.95911     692.0349     614.0053   1424.95911     692.0349     614.0053
   1424.94385     694.5070     614.7379   1424.94385     694.5070     614.7379
   1424.92859     692.9525     615.9356   1424.92859     692.9525     615.9356
   1424.91333     692.9816     616.1271   1424.91333     692.9816     616.1271
   1424.89807     693.7549     618.4262   1424.89807     693.7549     618.4262
   1424.88281     693.8976     618.2956   1424.88281     693.8976     618.2956
   1424.86755     693.5432     618.9547   1424.86755     693.5432     618.9547
   1424.85229     694.5488     620.3428   1424.85229     694.5488     620.3428
   1424.83704     695.1981     622.2655   1424.83704     695.1981     622.2655
   1424.82178     695.2535     623.2252   1424.82178     695.2535     623.2252
   1424.80652     696.5387     623.0286   1424.80652     696.5387     623.0286
   1424.79126     694.4597     624.2555   1424.79126     694.4597     624.2555
   1424.77600     695.7179     624.6402   1424.77600     695.7179     624.6402
   1424.76074     696.0454     625.2466   1424.76074     696.0454     625.2466
   1424.74548     695.2579     625.7325   1424.74548     695.2579     625.7325
   1424.73022     695.5482     626.8578   1424.73022     695.5482     626.8578
   1424.71497     696.3389     628.8417   1424.71497     696.3389     628.8417
   1424.69971     696.2418     628.2582   1424.69971     696.2418     628.2582
   1424.68445     697.3490     629.2758   1424.68445     697.3490     629.2758
   1424.66919     697.1366     629.4210   1424.66919     697.1366     629.4210
   1424.65393     697.5065     631.1523   1424.65393     697.5065     631.1523
   1424.63867     696.3386     631.0731   1424.63867     696.3386     631.0731
   1424.62341     697.0909     631.3901   1424.62341     697.0909     631.3901
   1424.60815     696.5565     631.8877   1424.60815     696.5565     631.8877
   1424.59290     696.3481     633.2810   1424.59290     696.3481     633.2810
   1424.57764     696.8181     633.3417   1424.57764     696.8181     633.3417
   1424.56238     696.8105     634.4879   1424.56238     696.8105     634.4879
   1424.54712     696.7971     633.9812   1424.54712     696.7971     633.9812
   1424.53186     696.7722     634.4984   1424.53186     696.7722     634.4984
   1424.51660     696.7295     635.2084   1424.51660     696.7295     635.2084
   1424.50134     696.2350     635.9289   1424.50134     696.2350     635.9289
   1424.48608     697.0707     636.1841   1424.48608     697.0707     636.1841
   1424.47083     696.4291     636.6885   1424.47083     696.4291     636.6885
   1424.45557     696.7022     637.4675   1424.45557     696.7022     637.4675
   1424.44031     697.3872     637.2086   1424.44031     697.3872     637.2086
   1424.42505     695.8560     637.8875   1424.42505     695.8560     637.8875
   1424.40979     696.1921     639.4753   1424.40979     696.1921     639.4753
   1424.39453     695.5032     638.9788   1424.39453     695.5032     638.9788
   1424.37927     696.6845     638.7051   1424.37927     696.6845     638.7051
   1424.36401     697.1314     639.5489   1424.36401     697.1314     639.5489
   1424.34875     696.5323     639.0870   1424.34875     696.5323     639.0870
   1424.33350     695.7594     638.5068   1424.33350     695.7594     638.5068
   1424.31824     696.6935     640.1210   1424.31824     696.6935     640.1210
   1424.30298     695.0053     639.6652   1424.30298     695.0053     639.6652
   1424.28772     694.3962     639.5684   1424.28772     694.3962     639.5684
   1424.27246     694.7234     640.9897   1424.27246     694.7234     640.9897
   1424.25720     695.0948     640.4023   1424.25720     695.0948     640.4023
   1424.24194     693.2302     641.0185   1424.24194     693.2302     641.0185
   1424.22668     694.2020     641.3106   1424.22668     694.2020     641.3106
   1424.21143     694.7331     642.0297   1424.21143     694.7331     642.0297
   1424.19617     693.9474     641.6018   1424.19617     693.9474     641.6018
   1424.18091     694.3004     640.9101   1424.18091     694.3004     640.9101
   1424.16565     694.4401     641.3814   1424.16565     694.4401     641.3814
   1424.15039     692.7258     641.2568   1424.15039     692.7258     641.2568
   1424.13513     693.7063     641.4200   1424.13513     693.7063     641.4200
   1424.11987     692.5497     641.5154   1424.11987     692.5497     641.5154
   1424.10461     692.9808     641.5424   1424.10461     692.9808     641.5424
   1424.08936     691.1770     640.4401   1424.08936     691.1770     640.4401
   1424.07410     691.6290     641.0203   1424.07410     691.6290     641.0203
   1424.05884     692.3948     641.1646   1424.05884     692.3948     641.1646
   1424.04358     691.3961     641.7145   1424.04358     691.3961     641.7145
   1424.02832     692.2927     640.6647   1424.02832     692.2927     640.6647
   1424.01306     692.6343     641.7240   1424.01306     692.6343     641.7240
   1423.99780     690.9042     640.9083   1423.99780     690.9042     640.9083
   1423.98254     690.7095     641.4658   1423.98254     690.7095     641.4658
   1423.96729     690.9033     641.9007   1423.96729     690.9033     641.9007
   1423.95203     690.4774     640.8481   1423.95203     690.4774     640.8481
   1423.93677     689.3151     641.0086   1423.93677     689.3151     641.0086
   1423.92151     690.1827     641.2705   1423.92151     690.1827     641.2705
   1423.90625     690.5181     639.5049   1423.90625     690.5181     639.5049
   1423.89099     689.6914     640.7434   1423.89099     689.6914     640.7434
   1423.87573     690.2938     639.8643   1423.87573     690.2938     639.8643
   1423.86047     688.9781     639.7386   1423.86047     688.9781     639.7386
   1423.84521     688.2087     639.1217   1423.84521     688.2087     639.1217
   1423.82996     688.9580     638.5968   1423.82996     688.9580     638.5968
   1423.81470     687.8149     639.3546   1423.81470     687.8149     639.3546
   1423.79944     687.5955     639.7000   1423.79944     687.5955     639.7000
   1423.78418     688.6085     638.8728   1423.78418     688.6085     638.8728
   1423.76892     687.1557     638.1107   1423.76892     687.1557     638.1107
   1423.75366     688.2181     636.1981   1423.75366     688.2181     636.1981
   1423.73840     687.8541     636.8416   1423.73840     687.8541     636.8416
   1423.72314     686.6527     636.8448   1423.72314     686.6527     636.8448
   1423.70789     686.6078     636.4158   1423.70789     686.6078     636.4158
   1423.69263     686.3687     636.0363   1423.69263     686.3687     636.0363
   1423.67737     684.9464     635.3320   1423.67737     684.9464     635.3320
   1423.66211     686.0419     635.4397   1423.66211     686.0419     635.4397
   1423.64685     685.5551     635.3877   1423.64685     685.5551     635.3877
   1423.63159     685.1922     634.1259   1423.63159     685.1922     634.1259
   1423.61633     685.3343     634.4105   1423.61633     685.3343     634.4105
   1423.60107     684.5381     634.0397   1423.60107     684.5381     634.0397
   1423.58582     684.9865     633.0201   1423.58582     684.9865     633.0201
   1423.57056     684.4758     632.6713   1423.57056     684.4758     632.6713
   1423.55530     683.6044     630.3693   1423.55530     683.6044     630.3693
   1423.54004     682.9481     631.0641   1423.54004     682.9481     631.0641
   1423.52478     683.4539     630.3228   1423.52478     683.4539     630.3228
   1423.50952     682.2532     629.3671   1423.50952     682.2532     629.3671
   1423.49426     682.5403     630.2344   1423.49426     682.5403     630.2344
   1423.47900     683.2430     629.4249   1423.47900     683.2430     629.4249
   1423.46375     681.5472     628.7067   1423.46375     681.5472     628.7067
   1423.44849     681.5281     628.0169   1423.44849     681.5281     628.0169
   1423.43323     681.4640     628.3713   1423.43323     681.4640     628.3713
   1423.41797     681.5570     626.7271   1423.41797     681.5570     626.7271
   1423.40271     681.6699     625.6661   1423.40271     681.6699     625.6661
   1423.38745     681.4500     624.3918   1423.38745     681.4500     624.3918
   1423.37219     682.7451     624.1635   1423.37219     682.7451     624.1635
   1423.35693     681.3256     624.1949   1423.35693     681.3256     624.1949
   1423.34167     680.8342     622.9907   1423.34167     680.8342     622.9907
   1423.32642     679.7402     621.9666   1423.32642     679.7402     621.9666
   1423.31116     679.0366     621.5205   1423.31116     679.0366     621.5205
   1423.29590     679.7780     620.5342   1423.29590     679.7780     620.5342
   1423.28064     679.3250     620.0919   1423.28064     679.3250     620.0919
   1423.26538     679.4696     618.9974   1423.26538     679.4696     618.9974
   1423.25012     678.9294     618.9169   1423.25012     678.9294     618.9169
   1423.23486     679.2621     618.6048   1423.23486     679.2621     618.6048
   1423.21960     679.4389     617.3671   1423.21960     679.4389     617.3671
   1423.20435     677.9550     616.9174   1423.20435     677.9550     616.9174
   1423.18909     677.2323     615.9705   1423.18909     677.2323     615.9705
   1423.17383     678.3760     615.1910   1423.17383     678.3760     615.1910
   1423.15857     677.4521     613.2943   1423.15857     677.4521     613.2943
   1423.14331     677.1052     613.0393   1423.14331     677.1052     613.0393
   1423.12805     676.2660     613.0874   1423.12805     676.2660     613.0874
   1423.11279     677.2382     611.6611   1423.11279     677.2382     611.6611
   1423.09753     676.7808     611.0952   1423.09753     676.7808     611.0952
   1423.08228     676.2444     610.0583   1423.08228     676.2444     610.0583
   1423.06702     675.5736     608.7478   1423.06702     675.5736     608.7478
   1423.05176     675.5981     608.2689   1423.05176     675.5981     608.2689
   1423.03650     676.4420     606.4909   1423.03650     676.4420     606.4909
   1423.02124     675.2868     605.7164   1423.02124     675.2868     605.7164
   1423.00598     675.0948     607.0089   1423.00598     675.0948     607.0089
   1422.99072     675.3141     604.7708   1422.99072     675.3141     604.7708
   1422.97546     674.6070     604.1300   1422.97546     674.6070     604.1300
   1422.96021     675.0214     603.1790   1422.96021     675.0214     603.1790
   1422.94495     674.4337     602.8321   1422.94495     674.4337     602.8321
   1422.92969     673.2968     601.3075   1422.92969     673.2968     601.3075
   1422.91443     674.8187     599.6865   1422.91443     674.8187     599.6865
   1422.89917     673.3163     598.3396   1422.89917     673.3163     598.3396
   1422.88391     673.3787     598.2550   1422.88391     673.3787     598.2550
   1422.86865     672.9556     596.7493   1422.86865     672.9556     596.7493
   1422.85339     673.9484     596.5770   1422.85339     673.9484     596.5770
   1422.83813     674.1817     595.3843   1422.83813     674.1817     595.3843
   1422.82288     673.5281     593.5647   1422.82288     673.5281     593.5647
   1422.80762     672.5347     593.1458   1422.80762     672.5347     593.1458
   1422.79236     672.3684     591.9586   1422.79236     672.3684     591.9586
   1422.77710     671.6303     590.9048   1422.77710     671.6303     590.9048
   1422.76184     671.9389     590.0061   1422.76184     671.9389     590.0061
   1422.74658     671.3681     589.4506   1422.74658     671.3681     589.4506
   1422.73132     672.4399     587.3281   1422.73132     672.4399     587.3281
   1422.71606     671.3071     587.1658   1422.71606     671.3071     587.1658
   1422.70081     671.3427     585.6189   1422.70081     671.3427     585.6189
   1422.68555     671.9797     583.9385   1422.68555     671.9797     583.9385
   1422.67029     670.5693     582.6934   1422.67029     670.5693     582.6934
   1422.65503     671.0093     583.0017   1422.65503     671.0093     583.0017
   1422.63977     670.6293     581.8571   1422.63977     670.6293     581.8571
   1422.62451     669.2131     581.0231   1422.62451     669.2131     581.0231
   1422.60925     670.4999     578.3074   1422.60925     670.4999     578.3074
   1422.59399     670.0348     578.9609   1422.59399     670.0348     578.9609
   1422.57874     669.2942     576.9057   1422.57874     669.2942     576.9057
   1422.56348     668.7427     575.9017   1422.56348     668.7427     575.9017
   1422.54822     670.0911     575.1252   1422.54822     670.0911     575.1252
   1422.53296     667.9557     574.0598   1422.53296     667.9557     574.0598
   1422.51770     670.1005     573.1445   1422.51770     670.1005     573.1445
   1422.50244     667.5886     572.3478   1422.50244     667.5886     572.3478
   1422.48718     669.7193     570.4744   1422.48718     669.7193     570.4744
   1422.47192     668.6439     569.5424   1422.47192     668.6439     569.5424
   1422.45667     668.8329     568.3141   1422.45667     668.8329     568.3141
   1422.44141     669.0052     567.6449   1422.44141     669.0052     567.6449
   1422.42615     667.7206     566.7439   1422.42615     667.7206     566.7439
   1422.41089     667.7775     564.5321   1422.41089     667.7775     564.5321
   1422.39563     668.0229     563.8025   1422.39563     668.0229     563.8025
   1422.38037     668.0172     562.3022   1422.38037     668.0172     562.3022
   1422.36511     667.8387     560.9965   1422.36511     667.8387     560.9965
   1422.34985     667.1726     560.7568   1422.34985     667.1726     560.7568
   1422.33459     668.1594     558.8917   1422.33459     668.1594     558.8917
   1422.31934     666.9230     557.1072   1422.31934     666.9230     557.1072
   1422.30408     666.9451     557.2484   1422.30408     666.9451     557.2484
   1422.28882     666.2205     555.7927   1422.28882     666.2205     555.7927
   1422.27356     666.5146     555.1144   1422.27356     666.5146     555.1144
   1422.25830     666.4604     553.4676   1422.25830     666.4604     553.4676
   1422.24304     666.2062     552.6487   1422.24304     666.2062     552.6487
   1422.22778     666.2253     551.5432   1422.22778     666.2253     551.5432
   1422.21252     665.2938     550.1293   1422.21252     665.2938     550.1293
   1422.19727     666.1838     548.6241   1422.19727     666.1838     548.6241
   1422.18201     666.4591     548.0651   1422.18201     666.4591     548.0651
   1422.16675     665.4540     546.6068   1422.16675     665.4540     546.6068
   1422.15149     665.6456     545.2949   1422.15149     665.6456     545.2949
   1422.13623     666.0082     544.4951   1422.13623     666.0082     544.4951
   1422.12097     664.7223     543.5175   1422.12097     664.7223     543.5175
   1422.10571     664.3017     541.6090   1422.10571     664.3017     541.6090
   1422.09045     664.4130     540.1558   1422.09045     664.4130     540.1558
   1422.07520     664.0927     539.4366   1422.07520     664.0927     539.4366
   1422.05994     664.1009     538.6752   1422.05994     664.1009     538.6752
   1422.04468     663.6656     537.5179   1422.04468     663.6656     537.5179
   1422.02942     664.2745     535.7703   1422.02942     664.2745     535.7703
   1422.01416     663.7319     535.7061   1422.01416     663.7319     535.7061
   1421.99890     662.4749     533.6676   1421.99890     662.4749     533.6676
   1421.98364     662.4830     532.7322   1421.98364     662.4830     532.7322
   1421.96838     663.0821     531.0238   1421.96838     663.0821     531.0238
   1421.95312     661.9663     529.3761   1421.95312     661.9663     529.3761
   1421.93787     662.6256     528.5836   1421.93787     662.6256     528.5836
   1421.92261     661.9158     528.0382   1421.92261     661.9158     528.0382
   1421.90735     662.3196     526.4301   1421.90735     662.3196     526.4301
   1421.89209     662.4760     525.0970   1421.89209     662.4760     525.0970
   1421.87683     661.9250     524.0919   1421.87683     661.9250     524.0919
   1421.86157     660.6032     522.6411   1421.86157     660.6032     522.6411
   1421.84631     661.3018     522.0859   1421.84631     661.3018     522.0859
   1421.83105     660.5329     519.9990   1421.83105     660.5329     519.9990
   1421.81580     660.7035     519.5102   1421.81580     660.7035     519.5102
   1421.80054     661.5602     517.1096   1421.80054     661.5602     517.1096
   1421.78528     660.8326     516.8730   1421.78528     660.8326     516.8730
   1421.77002     659.3034     515.8290   1421.77002     659.3034     515.8290
   1421.75476     661.0383     513.6392   1421.75476     661.0383     513.6392
   1421.73950     658.9871     514.1644   1421.73950     658.9871     514.1644
   1421.72424     660.5207     512.5287   1421.72424     660.5207     512.5287
   1421.70898     659.5746     510.1351   1421.70898     659.5746     510.1351
   1421.69373     660.1734     509.8755   1421.69373     660.1734     509.8755
   1421.67847     658.9420     508.7377   1421.67847     658.9420     508.7377
   1421.66321     658.8715     507.7387   1421.66321     658.8715     507.7387
   1421.64795     659.1985     506.5825   1421.64795     659.1985     506.5825
   1421.63269     659.1097     504.9542   1421.63269     659.1097     504.9542
   1421.61743     658.8434     503.2727   1421.61743     658.8434     503.2727
   1421.60217     658.3077     503.3077   1421.60217     658.3077     503.3077
   1421.58691     657.9388     501.5072   1421.58691     657.9388     501.5072
   1421.57166     658.8104     501.1580   1421.57166     658.8104     501.1580
   1421.55640     658.2542     500.0432   1421.55640     658.2542     500.0432
   1421.54114     656.6473     499.7309   1421.54114     656.6473     499.7309
   1421.52588     657.3920     496.9395   1421.52588     657.3920     496.9395
   1421.51062     656.9454     496.3649   1421.51062     656.9454     496.3649
   1421.49536     657.0482     494.9813   1421.49536     657.0482     494.9813
   1421.48010     657.0497     494.6903   1421.48010     657.0497     494.6903
   1421.46484     655.2880     492.4710   1421.46484     655.2880     492.4710
   1421.44958     655.6560     491.9925   1421.44958     655.6560     491.9925
   1421.43433     655.8585     489.8782   1421.43433     655.8585     489.8782
   1421.41907     654.6965     489.2121   1421.41907     654.6965     489.2121
   1421.40381     655.8062     487.7315   1421.40381     655.8062     487.7315
   1421.38855     655.0586     486.9862   1421.38855     655.0586     486.9862
   1421.37329     654.6334     485.5885   1421.37329     654.6334     485.5885
   1421.35803     654.4153     485.4148   1421.35803     654.4153     485.4148
   1421.34277     653.6925     483.6061   1421.34277     653.6925     483.6061
   1421.32751     655.2397     482.5660   1421.32751     655.2397     482.5660
   1421.31226     654.1344     481.2037   1421.31226     654.1344     481.2037
   1421.29700     653.5629     480.3376   1421.29700     653.5629     480.3376
   1421.28174     653.3770     480.0746   1421.28174     653.3770     480.0746
   1421.26648     652.9632     478.3689   1421.26648     652.9632     478.3689
   1421.25122     652.6362     477.0301   1421.25122     652.6362     477.0301
   1421.23596     652.9261     476.1486   1421.23596     652.9261     476.1486
   1421.22070     652.7802     475.2033   1421.22070     652.7802     475.2033
   1421.20544     652.3430     474.4130   1421.20544     652.3430     474.4130
   1421.19019     652.0331     472.6179   1421.19019     652.0331     472.6179
   1421.17493     650.9716     472.4241   1421.17493     650.9716     472.4241
   1421.15967     651.7234     470.6974   1421.15967     651.7234     470.6974
   1421.14441     651.5546     469.6020   1421.14441     651.5546     469.6020
   1421.12915     651.1895     468.8347   1421.12915     651.1895     468.8347
   1421.11389     650.7185     467.6511   1421.11389     650.7185     467.6511
   1421.09863     651.3498     466.7283   1421.09863     651.3498     466.7283
   1421.08337     649.9142     465.0034   1421.08337     649.9142     465.0034
   1421.06812     649.3708     464.1694   1421.06812     649.3708     464.1694
   1421.05286     650.1911     463.5117   1421.05286     650.1911     463.5117
   1421.03760     649.8672     462.8562   1421.03760     649.8672     462.8562
   1421.02234     649.0595     462.3384   1421.02234     649.0595     462.3384
   1421.00708     649.8398     461.2472   1421.00708     649.8398     461.2472
   1420.99182     648.8322     459.8160   1420.99182     648.8322     459.8160
   1420.97656     650.2295     458.6982   1420.97656     650.2295     458.6982
   1420.96130     649.4482     458.1220   1420.96130     649.4482     458.1220
   1420.94604     649.1475     457.1254   1420.94604     649.1475     457.1254
   1420.93079     648.1300     456.2270   1420.93079     648.1300     456.2270
   1420.91553     648.3858     455.1907   1420.91553     648.3858     455.1907
   1420.90027     648.2858     453.4534   1420.90027     648.2858     453.4534
   1420.88501     646.2148     452.9803   1420.88501     646.2148     452.9803
   1420.86975     648.5352     451.1431   1420.86975     648.5352     451.1431
   1420.85449     648.0446     451.2253   1420.85449     648.0446     451.2253
   1420.83923     647.8779     450.4368   1420.83923     647.8779     450.4368
   1420.82397     648.4693     450.0373   1420.82397     648.4693     450.0373
   1420.80872     647.8837     449.3923   1420.80872     647.8837     449.3923
   1420.79346     647.6087     448.0607   1420.79346     647.6087     448.0607
   1420.77820     648.8704     447.5746   1420.77820     648.8704     447.5746
   1420.76294     648.1335     446.7772   1420.76294     648.1335     446.7772
   1420.74768     648.1302     445.1728   1420.74768     648.1302     445.1728
   1420.73242     647.0942     444.9697   1420.73242     647.0942     444.9697
   1420.71716     647.4815     444.1519   1420.71716     647.4815     444.1519
   1420.70190     648.3027     443.5052   1420.70190     648.3027     443.5052
   1420.68665     647.0489     441.6731   1420.68665     647.0489     441.6731
   1420.67139     646.8292     441.5919   1420.67139     646.8292     441.5919
   1420.65613     647.5031     439.8106   1420.65613     647.5031     439.8106
   1420.64087     646.8691     439.5623   1420.64087     646.8691     439.5623
   1420.62561     646.9664     438.3448   1420.62561     646.9664     438.3448
   1420.61035     647.6049     438.7923   1420.61035     647.6049     438.7923
   1420.59509     647.0912     438.0396   1420.59509     647.0912     438.0396
   1420.57983     647.7524     437.8726   1420.57983     647.7524     437.8726
   1420.56458     648.6873     437.3856   1420.56458     648.6873     437.3856
   1420.54932     649.2202     437.7628   1420.54932     649.2202     437.7628
   1420.53406     650.5731     438.0657   1420.53406     650.5731     438.0657
   1420.51880     653.1717     437.7114   1420.51880     653.1717     437.7114
   1420.50354     650.9316     436.9988   1420.50354     650.9316     436.9988
   1420.48828     650.3650     435.4980   1420.48828     650.3650     435.4980
   1420.47302     649.6292     434.4812   1420.47302     649.6292     434.4812
   1420.45776     649.0552     433.3063   1420.45776     649.0552     433.3063
   1420.44250     647.6141     432.1830   1420.44250     647.6141     432.1830
   1420.42725     649.4227     431.4553   1420.42725     649.4227     431.4553
   1420.41199     648.9302     431.1976   1420.41199     648.9302     431.1976
   1420.39673     648.9954     430.7927   1420.39673     648.9954     430.7927
   1420.38147     649.0098     430.2823   1420.38147     649.0098     430.2823
   1420.36621     649.8814     430.4218   1420.36621     649.8814     430.4218
   1420.35095     651.4874     430.2320   1420.35095     651.4874     430.2320
   1420.33569     653.7437     430.5370   1420.33569     653.7437     430.5370
   1420.32043     658.3752     432.4262   1420.32043     658.3752     432.4262
   1420.30518     663.7672     435.5601   1420.30518     663.7672     435.5601
   1420.28992     673.4213     441.7703   1420.28992     673.4213     441.7703
   1420.27466     694.2419     453.7332   1420.27466     694.2419     453.7332
   1420.25940     733.4541     477.8828   1420.25940     733.4541     477.8828
   1420.24414     825.1752     534.9235   1420.24414     825.1752     534.9235
   1420.22888    1041.3744     670.6182   1420.22888    1041.3744     670.6182
   1420.21362    1310.8732     839.3793   1420.21362    1310.8732     839.3793
   1420.19836    1329.8275     852.4252   1420.19836    1329.8275     852.4252
   1420.18311    1230.0065     790.3006   1420.18311    1230.0065     790.3006
   1420.16785    1181.2849     757.1464   1420.16785    1181.2849     757.1464
   1420.15259    1182.8549     758.0645   1420.15259    1182.8549     758.0645
   1420.13733    1317.7334     841.6121   1420.13733    1317.7334     841.6121
   1420.12207    1705.7655    1079.3405   1420.12207    1705.7655    1079.3405
   1420.10681    1963.1931    1240.6216   1420.10681    1963.1931    1240.6216
   1420.09155    1912.5867    1208.5547   1420.09155    1912.5867    1208.5547
   1420.07629    1652.0957    1045.2069   1420.07629    1652.0957    1045.2069
   1420.06104    1437.2675     908.4086   1420.06104    1437.2675     908.4086
   1420.04578    1396.0516     882.0463   1420.04578    1396.0516     882.0463
   1420.03052    1588.3182    1000.5497   1420.03052    1588.3182    1000.5497
   1420.01526    1857.2545    1168.2727   1420.01526    1857.2545    1168.2727
   1420.00000    1868.7266    1174.1250   1420.00000    1868.7266    1174.1250
   1419.98474    1880.1981    1179.9772   1419.98474    1880.1981    1179.9772
   1419.96948    1540.3964     969.2983   1419.96948    1540.3964     969.2983
   1419.95422    1208.1249     761.3778   1419.95422    1208.1249     761.3778
   1419.93896     988.5850     623.5460   1419.93896     988.5850     623.5460
   1419.92371     864.8011     546.5671   1419.92371     864.8011     546.5671
   1419.90845     788.8099     498.9359   1419.90845     788.8099     498.9359
   1419.89319     740.5098     469.3398   1419.89319     740.5098     469.3398
   1419.87793     710.6529     449.9286   1419.87793     710.6529     449.9286
   1419.86267     689.8096     437.0244   1419.86267     689.8096     437.0244
   1419.84741     677.2856     427.6524   1419.84741     677.2856     427.6524
   1419.83215     666.0781     422.1263   1419.83215     666.0781     422.1263
   1419.81689     659.5302     416.4024   1419.81689     659.5302     416.4024
   1419.80164     654.5601     412.7751   1419.80164     654.5601     412.7751
   1419.78638     650.0070     410.2780   1419.78638     650.0070     410.2780
   1419.77112     647.4715     407.5659   1419.77112     647.4715     407.5659
   1419.75586     645.3276     406.3177   1419.75586     645.3276     406.3177
   1419.74060     645.5743     404.8439   1419.74060     645.5743     404.8439
   1419.72534     643.9115     403.5905   1419.72534     643.9115     403.5905
   1419.71008     643.5532     403.2609   1419.71008     643.5532     403.2609
   1419.69482     642.4525     403.5930   1419.69482     642.4525     403.5930
   1419.67957     642.8670     402.6455   1419.67957     642.8670     402.6455
   1419.66431     641.6390     401.4460   1419.66431     641.6390     401.4460
   1419.64905     642.1923     402.3155   1419.64905     642.1923     402.3155
   1419.63379     642.9197     401.9056   1419.63379     642.9197     401.9056
   1419.61853     642.3571     401.5552   1419.61853     642.3571     401.5552
   1419.60327     642.7211     401.0056   1419.60327     642.7211     401.0056
   1419.58801     644.2429     400.3025   1419.58801     644.2429     400.3025
   1419.57275     643.3368     400.3499   1419.57275     643.3368     400.3499
   1419.55750     643.5364     400.4998   1419.55750     643.5364     400.4998
   1419.54224     644.0482     400.2591   1419.54224     644.0482     400.2591
   1419.52698     643.8285     400.6262   1419.52698     643.8285     400.6262
   1419.51172     645.0303     399.5708   1419.51172     645.0303     399.5708
   1419.49646     643.9832     400.0966   1419.49646     643.9832     400.0966
   1419.48120     644.6196     399.7727   1419.48120     644.6196     399.7727
   1419.46594     645.6956     399.6164   1419.46594     645.6956     399.6164
   1419.45068     645.6653     399.6621   1419.45068     645.6653     399.6621
   1419.43542     646.0428     399.4795   1419.43542     646.0428     399.4795
   1419.42017     646.0876     398.9146   1419.42017     646.0876     398.9146
   1419.40491     645.8843     398.6968   1419.40491     645.8843     398.6968
   1419.38965     647.7173     399.0151   1419.38965     647.7173     399.0151
   1419.37439     646.4641     398.7395   1419.37439     646.4641     398.7395
   1419.35913     647.3369     398.6011   1419.35913     647.3369     398.6011
   1419.34387     648.0858     399.3127   1419.34387     648.0858     399.3127
   1419.32861     647.6814     398.8486   1419.32861     647.6814     398.8486
   1419.31335     649.3721     398.7531   1419.31335     649.3721     398.7531
   1419.29810     649.9032     398.8600   1419.29810     649.9032     398.8600
   1419.28284     649.8905     398.6911   1419.28284     649.8905     398.6911
   1419.26758     652.3455     398.6194   1419.26758     652.3455     398.6194
   1419.25232     651.8874     398.7504   1419.25232     651.8874     398.7504
   1419.23706     651.7584     399.1511   1419.23706     651.7584     399.1511
   1419.22180     652.3190     398.8119   1419.22180     652.3190     398.8119
   1419.20654     652.5557     399.4925   1419.20654     652.5557     399.4925
   1419.19128     653.0382     399.3089   1419.19128     653.0382     399.3089
   1419.17603     653.5234     399.2527   1419.17603     653.5234     399.2527
   1419.16077     652.5851     399.3835   1419.16077     652.5851     399.3835
   1419.14551     653.7268     399.9792   1419.14551     653.7268     399.9792
   1419.13025     655.4895     399.8815   1419.13025     655.4895     399.8815
   1419.11499     655.7623     399.5880   1419.11499     655.7623     399.5880
   1419.09973     656.1500     399.8134   1419.09973     656.1500     399.8134
   1419.08447     657.2744     399.3954   1419.08447     657.2744     399.3954
   1419.06921     656.9989     400.2373   1419.06921     656.9989     400.2373
   1419.05396     656.7636     400.1600   1419.05396     656.7636     400.1600
   1419.03870     658.0806     400.2243   1419.03870     658.0806     400.2243
   1419.02344     658.9970     400.9443   1419.02344     658.9970     400.9443
   1419.00818     658.7302     400.8527   1419.00818     658.7302     400.8527
   1418.99292     660.2500     400.6672   1418.99292     660.2500     400.6672
   1418.97766     660.4018     401.1241   1418.97766     660.4018     401.1241
   1418.96240     661.8310     400.9686   1418.96240     661.8310     400.9686
   1418.94714     662.0466     401.2279   1418.94714     662.0466     401.2279
   1418.93188     663.3516     402.2059   1418.93188     663.3516     402.2059
   1418.91663     663.5419     401.5589   1418.91663     663.5419     401.5589
   1418.90137     663.5822     402.9388   1418.90137     663.5822     402.9388
   1418.88611     664.3636     402.6590   1418.88611     664.3636     402.6590
   1418.87085     665.4860     402.8311   1418.87085     665.4860     402.8311
   1418.85559     664.5270     402.9834   1418.85559     664.5270     402.9834
   1418.84033     666.3120     403.2604   1418.84033     666.3120     403.2604
   1418.82507     668.8043     404.0482   1418.82507     668.8043     404.0482
   1418.80981     667.6110     404.0598   1418.80981     667.6110     404.0598
   1418.79456     669.0149     404.8055   1418.79456     669.0149     404.8055
   1418.77930     669.2203     404.7692   1418.77930     669.2203     404.7692
   1418.76404     669.6151     405.2148   1418.76404     669.6151     405.2148
   1418.74878     671.2364     405.9403   1418.74878     671.2364     405.9403
   1418.73352     670.7918     405.3798   1418.73352     670.7918     405.3798
   1418.71826     672.4568     406.2569   1418.71826     672.4568     406.2569
   1418.70300     672.5847     407.2122   1418.70300     672.5847     407.2122
   1418.68774     673.3923     406.7378   1418.68774     673.3923     406.7378
   1418.67249     674.6245     407.4916   1418.67249     674.6245     407.4916
   1418.65723     675.5856     407.4436   1418.65723     675.5856     407.4436
   1418.64197     676.2244     408.3818   1418.64197     676.2244     408.3818
   1418.62671     676.4601     408.5189   1418.62671     676.4601     408.5189
   1418.61145     677.7222     408.7701   1418.61145     677.7222     408.7701
   1418.59619     678.9832     409.4818   1418.59619     678.9832     409.4818
   1418.58093     679.7250     410.1985   1418.58093     679.7250     410.1985
   1418.56567     680.7344     409.8306   1418.56567     680.7344     409.8306
   1418.55042     679.9464     411.3024   1418.55042     679.9464     411.3024
   1418.53516     684.2469     411.1332   1418.53516     684.2469     411.1332
   1418.51990     682.5912     411.5564   1418.51990     682.5912     411.5564
   1418.50464     683.2346     412.5863   1418.50464     683.2346     412.5863
   1418.48938     685.0005     412.3630   1418.48938     685.0005     412.3630
   1418.47412     686.0686     413.1620   1418.47412     686.0686     413.1620
   1418.45886     686.0370     413.9971   1418.45886     686.0370     413.9971
   1418.44360     686.7660     413.6239   1418.44360     686.7660     413.6239
   1418.42834     688.2335     414.8498   1418.42834     688.2335     414.8498
   1418.41309     689.1418     415.1674   1418.41309     689.1418     415.1674
   1418.39783     689.1265     415.8648   1418.39783     689.1265     415.8648
   1418.38257     691.6345     416.0223   1418.38257     691.6345     416.0223
   1418.36731     693.9617     416.8617   1418.36731     693.9617     416.8617
   1418.35205     692.0848     417.5320   1418.35205     692.0848     417.5320
   1418.33679     693.5258     418.1339   1418.33679     693.5258     418.1339
   1418.32153     695.0229     418.4528   1418.32153     695.0229     418.4528
   1418.30627     696.5126     419.0829   1418.30627     696.5126     419.0829
   1418.29102     696.8931     419.5450   1418.29102     696.8931     419.5450
   1418.27576     697.6063     419.9070   1418.27576     697.6063     419.9070
   1418.26050     698.8502     420.8420   1418.26050     698.8502     420.8420
   1418.24524     700.4159     421.0549   1418.24524     700.4159     421.0549
   1418.22998     700.1752     421.9586   1418.22998     700.1752     421.9586
   1418.21472     701.6088     421.9068   1418.21472     701.6088     421.9068
   1418.19946     702.4002     422.9394   1418.19946     702.4002     422.9394
   1418.18420     703.8605     423.5236   1418.18420     703.8605     423.5236
   1418.16895     704.2919     424.4547   1418.16895     704.2919     424.4547
   1418.15369     705.9875     425.1205   1418.15369     705.9875     425.1205
   1418.13843     705.6581     425.1746   1418.13843     705.6581     425.1746
   1418.12317     708.7507     425.7537   1418.12317     708.7507     425.7537
   1418.10791     708.5419     426.6473   1418.10791     708.5419     426.6473
   1418.09265     710.3912     427.3307   1418.09265     710.3912     427.3307
   1418.07739     709.8491     428.4617   1418.07739     709.8491     428.4617
   1418.06213     711.6028     428.3975   1418.06213     711.6028     428.3975
   1418.04688     712.9047     428.9840   1418.04688     712.9047     428.9840
   1418.03162     714.7901     429.7116   1418.03162     714.7901     429.7116
   1418.01636     716.5397     430.1389   1418.01636     716.5397     430.1389
   1418.00110     716.6234     431.6051   1418.00110     716.6234     431.6051
   1417.98584     717.2973     432.0913   1417.98584     717.2973     432.0913
   1417.97058     717.5414     432.5352   1417.97058     717.5414     432.5352
   1417.95532     718.4476     433.5675   1417.95532     718.4476     433.5675
   1417.94006     721.2537     433.9346   1417.94006     721.2537     433.9346
   1417.92480     721.9096     434.8691   1417.92480     721.9096     434.8691
   1417.90955     722.5339     435.5763   1417.90955     722.5339     435.5763
   1417.89429     723.9407     436.2691   1417.89429     723.9407     436.2691
   1417.87903     724.4547     437.4589   1417.87903     724.4547     437.4589
   1417.86377     726.2004     437.5777   1417.86377     726.2004     437.5777
   1417.84851     727.4962     438.2928   1417.84851     727.4962     438.2928
   1417.83325     728.3902     438.6924   1417.83325     728.3902     438.6924
   1417.81799     729.3391     439.8211   1417.81799     729.3391     439.8211
   1417.80273     732.2220     440.4378   1417.80273     732.2220     440.4378
   1417.78748     731.9348     441.2380   1417.78748     731.9348     441.2380
   1417.77222     731.1935     442.0126   1417.77222     731.1935     442.0126
   1417.75696     732.3600     442.7563   1417.75696     732.3600     442.7563
   1417.74170     734.5106     442.8541   1417.74170     734.5106     442.8541
   1417.72644     734.6501     444.2626   1417.72644     734.6501     444.2626
   1417.71118     736.9910     444.5734   1417.71118     736.9910     444.5734
   1417.69592     737.2284     445.1637   1417.69592     737.2284     445.1637
   1417.68066     738.9822     445.7327   1417.68066     738.9822     445.7327
   1417.66541     738.5045     446.6749   1417.66541     738.5045     446.6749
   1417.65015     739.5611     447.7825   1417.65015     739.5611     447.7825
   1417.63489     741.2618     448.1285   1417.63489     741.2618     448.1285
   1417.61963     743.2167     448.6671   1417.61963     743.2167     448.6671
   1417.60437     743.3195     449.3930   1417.60437     743.3195     449.3930
   1417.58911     744.3942     449.4678   1417.58911     744.3942     449.4678
   1417.57385     746.5109     451.2858   1417.57385     746.5109     451.2858
   1417.55859     746.8857     451.3351   1417.55859     746.8857     451.3351
   1417.54333     748.0041     452.2603   1417.54333     748.0041     452.2603
   1417.52808     748.9716     453.0012   1417.52808     748.9716     453.0012
   1417.51282     749.4860     453.6613   1417.51282     749.4860     453.6613
   1417.49756     751.3481     455.5649   1417.49756     751.3481     455.5649
   1417.48230     750.5294     455.0990   1417.48230     750.5294     455.0990
   1417.46704     753.2301     455.9296   1417.46704     753.2301     455.9296
   1417.45178     753.0034     457.1279   1417.45178     753.0034     457.1279
   1417.43652     755.8853     457.2540   1417.43652     755.8853     457.2540
   1417.42126     756.8948     458.3399   1417.42126     756.8948     458.3399
   1417.40601     756.3244     459.0660   1417.40601     756.3244     459.0660
   1417.39075     757.6823     459.7035   1417.39075     757.6823     459.7035
   1417.37549     758.8439     460.1686   1417.37549     758.8439     460.1686
   1417.36023     759.2151     461.7995   1417.36023     759.2151     461.7995
   1417.34497     760.0123     461.3127   1417.34497     760.0123     461.3127
   1417.32971     761.1267     462.8739   1417.32971     761.1267     462.8739
   1417.31445     762.5156     462.8822   1417.31445     762.5156     462.8822
   1417.29919     763.0256     463.9533   1417.29919     763.0256     463.9533
   1417.28394     762.9981     463.8009   1417.28394     762.9981     463.8009
   1417.26868     764.5731     464.5273   1417.26868     764.5731     464.5273
   1417.25342     765.1237     465.6943   1417.25342     765.1237     465.6943
   1417.23816     765.9850     466.4952   1417.23816     765.9850     466.4952
   1417.22290     770.3069     467.5661   1417.22290     770.3069     467.5661
   1417.20764     769.3112     467.0183   1417.20764     769.3112     467.0183
   1417.19238     767.4922     468.1812   1417.19238     767.4922     468.1812
   1417.17712     771.0432     468.7185   1417.17712     771.0432     468.7185
   1417.16187     770.1331     469.8768   1417.16187     770.1331     469.8768
   1417.14661     771.6017     470.9486   1417.14661     771.6017     470.9486
   1417.13135     772.2007     471.2337   1417.13135     772.2007     471.2337
   1417.11609     772.1892     471.2515   1417.11609     772.1892     471.2515
   1417.10083     773.8770     472.1588   1417.10083     773.8770     472.1588
   1417.08557     775.0859     472.6099   1417.08557     775.0859     472.6099
   1417.07031     774.1371     473.4104   1417.07031     774.1371     473.4104
   1417.05505     775.7060     473.7506   1417.05505     775.7060     473.7506
   1417.03979     776.7338     474.3137   1417.03979     776.7338     474.3137
   1417.02454     776.9872     475.0638   1417.02454     776.9872     475.0638
   1417.00928     778.2866     475.8475   1417.00928     778.2866     475.8475
   1416.99402     778.3964     476.6302   1416.99402     778.3964     476.6302
   1416.97876     779.1901     477.0349   1416.97876     779.1901     477.0349
   1416.96350     779.8705     476.8102   1416.96350     779.8705     476.8102
   1416.94824     780.7513     477.5935   1416.94824     780.7513     477.5935
   1416.93298     781.2086     479.1025   1416.93298     781.2086     479.1025
   1416.91772     781.6116     478.4658   1416.91772     781.6116     478.4658
   1416.90247     781.3670     478.5212   1416.90247     781.3670     478.5212
   1416.88721     782.4979     479.7698   1416.88721     782.4979     479.7698
   1416.87195     782.3898     480.5930   1416.87195     782.3898     480.5930
   1416.85669     783.6124     480.8379   1416.85669     783.6124     480.8379
   1416.84143     784.4691     481.8475   1416.84143     784.4691     481.8475
   1416.82617     785.3865     481.6680   1416.82617     785.3865     481.6680
   1416.81091     785.2642     481.5301   1416.81091     785.2642     481.5301
   1416.79565     785.4807     482.3988   1416.79565     785.4807     482.3988
   1416.78040     785.4235     482.2526   1416.78040     785.4235     482.2526
   1416.76514     786.3041     482.4575   1416.76514     786.3041     482.4575
   1416.74988     787.3403     483.2909   1416.74988     787.3403     483.2909
   1416.73462     787.1092     483.6367   1416.73462     787.1092     483.6367
   1416.71936     787.0457     483.4183   1416.71936     787.0457     483.4183
   1416.70410     788.2605     484.4924   1416.70410     788.2605     484.4924
   1416.68884     788.1400     485.1644   1416.68884     788.1400     485.1644
   1416.67358     788.0513     484.9922   1416.67358     788.0513     484.9922
   1416.65833     788.9336     485.4956   1416.65833     788.9336     485.4956
   1416.64307     789.4307     485.0449   1416.64307     789.4307     485.0449
   1416.62781     790.5070     485.6918   1416.62781     790.5070     485.6918
   1416.61255     788.9420     487.0052   1416.61255     788.9420     487.0052
   1416.59729     788.6202     486.9843   1416.59729     788.6202     486.9843
   1416.58203     788.9174     486.9742   1416.58203     788.9174     486.9742
   1416.56677     789.7604     486.5350   1416.56677     789.7604     486.5350
   1416.55151     789.7237     486.6458   1416.55151     789.7237     486.6458
   1416.53625     789.6511     487.1320   1416.53625     789.6511     487.1320
   1416.52100     791.0245     487.4898   1416.52100     791.0245     487.4898
   1416.50574     789.1559     487.6462   1416.50574     789.1559     487.6462
   1416.49048     790.8525     487.2260   1416.49048     790.8525     487.2260
   1416.47522     790.8508     488.1314   1416.47522     790.8508     488.1314
   1416.45996     791.1730     487.5253   1416.45996     791.1730     487.5253
   1416.44470     790.2079     487.8091   1416.44470     790.2079     487.8091
   1416.42944     789.9537     487.7161   1416.42944     789.9537     487.7161
   1416.41418     789.6428     487.7191   1416.41418     789.6428     487.7191
   1416.39893     790.2983     487.9928   1416.39893     790.2983     487.9928
   1416.38367     790.4948     488.3012   1416.38367     790.4948     488.3012
   1416.36841     790.5524     488.0981   1416.36841     790.5524     488.0981
   1416.35315     789.6500     487.2195   1416.35315     789.6500     487.2195
   1416.33789     790.0576     487.0116   1416.33789     790.0576     487.0116
   1416.32263     789.4161     487.7038   1416.32263     789.4161     487.7038
   1416.30737     789.2083     487.4585   1416.30737     789.2083     487.4585
   1416.29211     788.8809     487.8024   1416.29211     788.8809     487.8024
   1416.27686     788.3260     487.6038   1416.27686     788.3260     487.6038
   1416.26160     788.2050     487.8863   1416.26160     788.2050     487.8863
   1416.24634     788.6254     487.8546   1416.24634     788.6254     487.8546
   1416.23108     788.6536     486.5884   1416.23108     788.6536     486.5884
   1416.21582     788.5858     487.4642   1416.21582     788.5858     487.4642
   1416.20056     788.0743     487.3833   1416.20056     788.0743     487.3833
   1416.18530     787.6522     487.0652   1416.18530     787.6522     487.0652
   1416.17004     787.2140     487.1121   1416.17004     787.2140     487.1121
   1416.15479     786.0940     485.7913   1416.15479     786.0940     485.7913
   1416.13953     786.1593     487.0635   1416.13953     786.1593     487.0635
   1416.12427     785.9589     486.4289   1416.12427     785.9589     486.4289
   1416.10901     785.1322     486.8651   1416.10901     785.1322     486.8651
   1416.09375     785.3464     486.5792   1416.09375     785.3464     486.5792
   1416.07849     783.4598     486.1891   1416.07849     783.4598     486.1891
   1416.06323     783.8030     485.8531   1416.06323     783.8030     485.8531
   1416.04797     783.9141     486.1250   1416.04797     783.9141     486.1250
   1416.03271     783.1871     486.0564   1416.03271     783.1871     486.0564
   1416.01746     781.7490     485.6868   1416.01746     781.7490     485.6868
   1416.00220     783.7792     485.4957   1416.00220     783.7792     485.4957
   1415.98694     782.5356     484.7936   1415.98694     782.5356     484.7936
   1415.97168     780.6191     484.6555   1415.97168     780.6191     484.6555
   1415.95642     780.7537     484.7510   1415.95642     780.7537     484.7510
   1415.94116     780.3585     484.2633   1415.94116     780.3585     484.2633
   1415.92590     780.1982     483.9355   1415.92590     780.1982     483.9355
   1415.91064     779.1652     483.3636   1415.91064     779.1652     483.3636
   1415.89539     777.9916     483.0437   1415.89539     777.9916     483.0437
   1415.88013     778.2116     483.3217   1415.88013     778.2116     483.3217
   1415.86487     777.3281     483.3154   1415.86487     777.3281     483.3154
   1415.84961     777.0091     483.8489   1415.84961     777.0091     483.8489
   1415.83435     775.5564     482.5292   1415.83435     775.5564     482.5292
   1415.81909     774.7628     482.6877   1415.81909     774.7628     482.6877
   1415.80383     774.9453     482.5390   1415.80383     774.9453     482.5390
   1415.78857     774.5892     481.8030   1415.78857     774.5892     481.8030
   1415.77332     773.8030     480.8658   1415.77332     773.8030     480.8658
   1415.75806     772.7475     481.0695   1415.75806     772.7475     481.0695
   1415.74280     770.6449     480.4333   1415.74280     770.6449     480.4333
   1415.72754     772.0070     479.9500   1415.72754     772.0070     479.9500
   1415.71228     768.6994     480.0630   1415.71228     768.6994     480.0630
   1415.69702     768.7709     480.0423   1415.69702     768.7709     480.0423
   1415.68176     767.4404     480.4480   1415.68176     767.4404     480.4480
   1415.66650     766.4525     478.6786   1415.66650     766.4525     478.6786
   1415.65125     766.7523     479.5587   1415.65125     766.7523     479.5587
   1415.63599     766.8666     479.0626   1415.63599     766.8666     479.0626
   1415.62073     764.6903     478.7820   1415.62073     764.6903     478.7820
   1415.60547     763.9875     477.9933   1415.60547     763.9875     477.9933
   1415.59021     763.1636     477.7135   1415.59021     763.1636     477.7135
   1415.57495     762.4731     477.2133   1415.57495     762.4731     477.2133
   1415.55969     761.5608     476.3251   1415.55969     761.5608     476.3251
   1415.54443     760.5239     476.6658   1415.54443     760.5239     476.6658
   1415.52917     758.9624     476.7321   1415.52917     758.9624     476.7321
   1415.51392     758.5230     476.0742   1415.51392     758.5230     476.0742
   1415.49866     757.4490     475.7189   1415.49866     757.4490     475.7189
   1415.48340     757.4290     474.8821   1415.48340     757.4290     474.8821
   1415.46814     756.6437     473.9272   1415.46814     756.6437     473.9272
   1415.45288     755.1437     474.1549   1415.45288     755.1437     474.1549
   1415.43762     753.1277     474.0340   1415.43762     753.1277     474.0340
   1415.42236     752.0337     473.2315   1415.42236     752.0337     473.2315
   1415.40710     751.9260     472.6980   1415.40710     751.9260     472.6980
   1415.39185     750.3921     472.2060   1415.39185     750.3921     472.2060
   1415.37659     748.6688     471.7958   1415.37659     748.6688     471.7958
   1415.36133     748.1189     472.0202   1415.36133     748.1189     472.0202
   1415.34607     746.0104     471.0825   1415.34607     746.0104     471.0825
   1415.33081     745.3769     470.8836   1415.33081     745.3769     470.8836
   1415.31555     743.6179     470.3958   1415.31555     743.6179     470.3958
   1415.30029     741.0209     469.6064   1415.30029     741.0209     469.6064
   1415.28503     741.5320     468.3056   1415.28503     741.5320     468.3056
   1415.26978     739.1195     468.9418   1415.26978     739.1195     468.9418
   1415.25452     739.6755     467.6083   1415.25452     739.6755     467.6083
   1415.23926     737.9914     467.0105   1415.23926     737.9914     467.0105
   1415.22400     738.1082     466.9218   1415.22400     738.1082     466.9218
   1415.20874     735.9027     466.4128   1415.20874     735.9027     466.4128
   1415.19348     733.8477     466.1211   1415.19348     733.8477     466.1211
   1415.17822     733.8828     465.4811   1415.17822     733.8828     465.4811
   1415.16296     731.7645     464.2433   1415.16296     731.7645     464.2433
   1415.14771     729.3038     463.8398   1415.14771     729.3038     463.8398
   1415.13245     729.4385     463.7313   1415.13245     729.4385     463.7313
   1415.11719     726.9589     463.1941   1415.11719     726.9589     463.1941
   1415.10193     725.2467     462.1103   1415.10193     725.2467     462.1103
   1415.08667     724.3806     462.0753   1415.08667     724.3806     462.0753
   1415.07141     722.8165     460.5215   1415.07141     722.8165     460.5215
   1415.05615     721.5115     460.0061   1415.05615     721.5115     460.0061
   1415.04089     720.0821     459.6975   1415.04089     720.0821     459.6975
   1415.02563     717.2377     458.9591   1415.02563     717.2377     458.9591
   1415.01038     716.4885     458.3719   1415.01038     716.4885     458.3719
   1414.99512     713.9245     457.1410   1414.99512     713.9245     457.1410
   1414.97986     712.8666     457.4519   1414.97986     712.8666     457.4519
   1414.96460     712.5423     455.6052   1414.96460     712.5423     455.6052
   1414.94934     709.4438     455.3505   1414.94934     709.4438     455.3505
   1414.93408     707.8926     454.0551   1414.93408     707.8926     454.0551
   1414.91882     707.0151     454.1924   1414.91882     707.0151     454.1924
   1414.90356     704.7418     452.7899   1414.90356     704.7418     452.7899
   1414.88831     702.0137     452.1261   1414.88831     702.0137     452.1261
   1414.87305     700.7079     450.9693   1414.87305     700.7079     450.9693
   1414.85779     698.8144     450.6319   1414.85779     698.8144     450.6319
   1414.84253     696.8421     450.3328   1414.84253     696.8421     450.3328
   1414.82727     696.5038     448.6792   1414.82727     696.5038     448.6792
   1414.81201     694.9319     447.6977   1414.81201     694.9319     447.6977
   1414.79675     691.9466     446.9932   1414.79675     691.9466     446.9932
   1414.78149     691.1782     446.1640   1414.78149     691.1782     446.1640
   1414.76624     688.3871     445.9658   1414.76624     688.3871     445.9658
   1414.75098     686.3411     443.5622   1414.75098     686.3411     443.5622
   1414.73572     683.6763     443.2092   1414.73572     683.6763     443.2092
   1414.72046     682.5020     442.3523   1414.72046     682.5020     442.3523
   1414.70520     680.7998     441.5302   1414.70520     680.7998     441.5302
   1414.68994     679.5807     440.2301   1414.68994     679.5807     440.2301
   1414.67468     675.6992     439.6867   1414.67468     675.6992     439.6867
   1414.65942     674.7695     438.0247   1414.65942     674.7695     438.0247
   1414.64417     673.0206     437.5354   1414.64417     673.0206     437.5354
   1414.62891     670.0165     435.8924   1414.62891     670.0165     435.8924
   1414.61365     668.1177     435.3256   1414.61365     668.1177     435.3256
   1414.59839     665.2699     434.0349   1414.59839     665.2699     434.0349
   1414.58313     665.5592     433.1390   1414.58313     665.5592     433.1390
   1414.56787     661.3203     431.7310   1414.56787     661.3203     431.7310
   1414.55261     659.2909     431.0789   1414.55261     659.2909     431.0789
   1414.53735     657.0871     430.2896   1414.53735     657.0871     430.2896
   1414.52209     654.9677     428.7985   1414.52209     654.9677     428.7985
   1414.50684     652.6813     427.5108   1414.50684     652.6813     427.5108
   1414.49158     650.6537     426.6019   1414.49158     650.6537     426.6019
   1414.47632     647.5028     425.2426   1414.47632     647.5028     425.2426
   1414.46106     645.5456     424.2038   1414.46106     645.5456     424.2038
   1414.44580     643.8857     422.7451   1414.44580     643.8857     422.7451
   1414.43054     641.4453     421.2256   1414.43054     641.4453     421.2256
   1414.41528     638.9376     419.8884   1414.41528     638.9376     419.8884
   1414.40002     636.5284     418.6802   1414.40002     636.5284     418.6802
   1414.38477     633.2143     417.6464   1414.38477     633.2143     417.6464
   1414.36951     631.4547     416.4672   1414.36951     631.4547     416.4672
   1414.35425     628.8151     415.3799   1414.35425     628.8151     415.3799
   1414.33899     628.1005     413.9912   1414.33899     628.1005     413.9912
   1414.32373     624.1787     412.2421   1414.32373     624.1787     412.2421
   1414.30847     621.9955     411.4950   1414.30847     621.9955     411.4950
   1414.29321     618.6769     409.8969   1414.29321     618.6769     409.8969
   1414.27795     615.9008     408.6772   1414.27795     615.9008     408.6772
   1414.26270     613.7549     407.8531   1414.26270     613.7549     407.8531
   1414.24744     611.5627     405.9831   1414.24744     611.5627     405.9831
   1414.23218     608.6485     404.6372   1414.23218     608.6485     404.6372
   1414.21692     606.1011     403.1719   1414.21692     606.1011     403.1719
   1414.20166     604.1263     401.7875   1414.20166     604.1263     401.7875
   1414.18640     601.0070     400.7965   1414.18640     601.0070     400.7965
   1414.17114     598.4424     398.3470   1414.17114     598.4424     398.3470
   1414.15588     595.0123     398.4475   1414.15588     595.0123     398.4475
   1414.14062     594.2151     396.9779   1414.14062     594.2151     396.9779
   1414.12537     590.3557     394.3248   1414.12537     590.3557     394.3248
   1414.11011     588.4107     393.8084   1414.11011     588.4107     393.8084
   1414.09485     584.6401     392.0541   1414.09485     584.6401     392.0541
   1414.07959     581.6982     389.9729   1414.07959     581.6982     389.9729
   1414.06433     580.1024     389.4878   1414.06433     580.1024     389.4878
   1414.04907     575.9401     387.5504   1414.04907     575.9401     387.5504
   1414.03381     574.8162     385.5412   1414.03381     574.8162     385.5412
   1414.01855     571.6309     384.6401   1414.01855     571.6309     384.6401
   1414.00330     585.5726     389.4575   1414.00330     585.5726     389.4575
   1413.98804     566.0499     381.8478   1413.98804     566.0499     381.8478
   1413.97278     562.0029     379.4279   1413.97278     562.0029     379.4279
   1413.95752     559.4166     377.7345   1413.95752     559.4166     377.7345
   1413.94226     556.6517     376.3934   1413.94226     556.6517     376.3934
   1413.92700     554.2616     374.5752   1413.92700     554.2616     374.5752
   1413.91174     551.5041     373.5752   1413.91174     551.5041     373.5752
   1413.89648     548.3895     371.9015   1413.89648     548.3895     371.9015
   1413.88123     545.5878     371.1800   1413.88123     545.5878     371.1800
   1413.86597     542.3527     368.9386   1413.86597     542.3527     368.9386
   1413.85071     539.7907     367.7255   1413.85071     539.7907     367.7255
   1413.83545     536.4456     365.3405   1413.83545     536.4456     365.3405
   1413.82019     533.8585     364.1990   1413.82019     533.8585     364.1990
   1413.80493     530.7206     362.2846   1413.80493     530.7206     362.2846
   1413.78967     527.8157     360.2617   1413.78967     527.8157     360.2617
   1413.77441     524.7640     359.0323   1413.77441     524.7640     359.0323
   1413.75916     522.5441     357.8865   1413.75916     522.5441     357.8865
   1413.74390     518.8370     355.7235   1413.74390     518.8370     355.7235
   1413.72864     516.6309     354.0270   1413.72864     516.6309     354.0270
   1413.71338     513.6967     352.7316   1413.71338     513.6967     352.7316
   1413.69812     511.4085     351.2156   1413.69812     511.4085     351.2156
   1413.68286     507.4881     349.1603   1413.68286     507.4881     349.1603
   1413.66760     505.2717     347.2388   1413.66760     505.2717     347.2388
   1413.65234     501.6350     345.5604   1413.65234     501.6350     345.5604
   1413.63708     498.8026     344.3525   1413.63708     498.8026     344.3525
   1413.62183     496.8365     343.4767   1413.62183     496.8365     343.4767
   1413.60657     493.7391     340.7264   1413.60657     493.7391     340.7264
   1413.59131     490.9959     339.6549   1413.59131     490.9959     339.6549
   1413.57605     487.7419     338.2554   1413.57605     487.7419     338.2554
   1413.56079     484.6466     336.5858   1413.56079     484.6466     336.5858
   1413.54553     481.4929     335.0307   1413.54553     481.4929     335.0307
   1413.53027     479.6082     332.5594   1413.53027     479.6082     332.5594
   1413.51501     476.8672     331.0812   1413.51501     476.8672     331.0812
   1413.49976     474.2724     330.3565   1413.49976     474.2724     330.3565
   1413.48450     471.2148     328.0407   1413.48450     471.2148     328.0407
   1413.46924     468.2245     326.3845   1413.46924     468.2245     326.3845
   1413.45398     464.7249     324.5954   1413.45398     464.7249     324.5954
   1413.43872     462.6372     323.6127   1413.43872     462.6372     323.6127
   1413.42346     459.9987     321.0668   1413.42346     459.9987     321.0668
   1413.40820     456.9443     320.2551   1413.40820     456.9443     320.2551
   1413.39294     454.5942     318.8678   1413.39294     454.5942     318.8678
   1413.37769     451.7971     316.7855   1413.37769     451.7971     316.7855
   1413.36243     449.5824     315.6197   1413.36243     449.5824     315.6197
   1413.34717     446.7481     313.9576   1413.34717     446.7481     313.9576
   1413.33191     444.2165     312.4951   1413.33191     444.2165     312.4951
   1413.31665     440.7630     311.1703   1413.31665     440.7630     311.1703
   1413.30139     438.2566     309.6153   1413.30139     438.2566     309.6153
   1413.28613     436.1797     307.6677   1413.28613     436.1797     307.6677
   1413.27087     434.1110     306.3958   1413.27087     434.1110     306.3958
   1413.25562     430.9777     304.9431   1413.25562     430.9777     304.9431
   1413.24036     428.3733     303.2690   1413.24036     428.3733     303.2690
   1413.22510     426.5101     302.1366   1413.22510     426.5101     302.1366
   1413.20984     423.7920     300.8748   1413.20984     423.7920     300.8748
   1413.19458     421.7675     299.7636   1413.19458     421.7675     299.7636
   1413.17932     419.0622     297.6241   1413.17932     419.0622     297.6241
   1413.16406     417.3996     295.4310   1413.16406     417.3996     295.4310
   1413.14880     414.1754     294.8078   1413.14880     414.1754     294.8078
   1413.13354     412.1844     293.2149   1413.13354     412.1844     293.2149
   1413.11829     409.8609     292.3288   1413.11829     409.8609     292.3288
   1413.10303     407.5461     290.7554   1413.10303     407.5461     290.7554
   1413.08777     405.7837     289.5019   1413.08777     405.7837     289.5019
   1413.07251     403.4833     288.0805   1413.07251     403.4833     288.0805
   1413.05725     400.5768     287.1735   1413.05725     400.5768     287.1735
   1413.04199     399.0012     285.3523   1413.04199     399.0012     285.3523
   1413.02673     397.0244     283.9204   1413.02673     397.0244     283.9204
   1413.01147     394.7516     282.9409   1413.01147     394.7516     282.9409
   1412.99622     392.4504     281.5379   1412.99622     392.4504     281.5379
   1412.98096     390.7904     280.2710   1412.98096     390.7904     280.2710
   1412.96570     388.7281     279.4837   1412.96570     388.7281     279.4837
   1412.95044     387.1309     278.0698   1412.95044     387.1309     278.0698
   1412.93518     385.2261     276.9543   1412.93518     385.2261     276.9543
   1412.91992     382.9675     276.2197   1412.91992     382.9675     276.2197
   1412.90466     381.8165     274.7512   1412.90466     381.8165     274.7512
   1412.88940     379.8316     274.0115   1412.88940     379.8316     274.0115
   1412.87415     378.2242     272.3970   1412.87415     378.2242     272.3970
   1412.85889     376.7055     271.6980   1412.85889     376.7055     271.6980
   1412.84363     375.0095     271.3880   1412.84363     375.0095     271.3880
   1412.82837     373.3551     270.0544   1412.82837     373.3551     270.0544
   1412.81311     372.0528     269.2173   1412.81311     372.0528     269.2173
   1412.79785     370.3306     268.6029   1412.79785     370.3306     268.6029
   1412.78259     368.8471     267.4786   1412.78259     368.8471     267.4786
   1412.76733     367.3878     266.6528   1412.76733     367.3878     266.6528
   1412.75208     366.1842     265.6689   1412.75208     366.1842     265.6689
   1412.73682     365.1774     265.1068   1412.73682     365.1774     265.1068
   1412.72156     363.7079     264.2704   1412.72156     363.7079     264.2704
   1412.70630     362.3304     263.4268   1412.70630     362.3304     263.4268
   1412.69104     361.3579     262.7059   1412.69104     361.3579     262.7059
   1412.67578     360.7043     262.2452   1412.67578     360.7043     262.2452
   1412.66052     359.9743     261.9365   1412.66052     359.9743     261.9365
   1412.64526     358.7603     260.5499   1412.64526     358.7603     260.5499
   1412.63000     357.7689     260.1233   1412.63000     357.7689     260.1233
   1412.61475     356.4784     260.1026   1412.61475     356.4784     260.1026
   1412.59949     356.1864     259.0943   1412.59949     356.1864     259.0943
   1412.58423     355.1075     258.4095   1412.58423     355.1075     258.4095
   1412.56897     354.3990     258.5316   1412.56897     354.3990     258.5316
   1412.55371     353.4428     258.2002   1412.55371     353.4428     258.2002
   1412.53845     353.4225     257.7242   1412.53845     353.4225     257.7242
   1412.52319     352.4216     257.1035   1412.52319     352.4216     257.1035
   1412.50793     352.9507     257.0898   1412.50793     352.9507     257.0898
   1412.49268     351.9977     256.7524   1412.49268     351.9977     256.7524
   1412.47742     350.9476     256.1124   1412.47742     350.9476     256.1124
   1412.46216     351.0586     256.3629   1412.46216     351.0586     256.3629
   1412.44690     350.4097     256.1115   1412.44690     350.4097     256.1115
   1412.43164     349.9232     256.0849   1412.43164     349.9232     256.0849
   1412.41638     349.8752     255.7286   1412.41638     349.8752     255.7286
   1412.40112     349.8989     255.6659   1412.40112     349.8989     255.6659
   1412.38586     349.6439     255.2777   1412.38586     349.6439     255.2777
   1412.37061     349.6778     256.1597   1412.37061     349.6778     256.1597
   1412.35535     349.8380     256.1784   1412.35535     349.8380     256.1784
   1412.34009     349.6039     256.0566   1412.34009     349.6039     256.0566
   1412.32483     349.4435     256.1188   1412.32483     349.4435     256.1188
   1412.30957     350.4991     256.8438   1412.30957     350.4991     256.8438
   1412.29431     350.0834     256.2241   1412.29431     350.0834     256.2241
   1412.27905     350.9065     256.8692   1412.27905     350.9065     256.8692
   1412.26379     350.9161     257.1726   1412.26379     350.9161     257.1726
   1412.24854     351.7851     257.5316   1412.24854     351.7851     257.5316
   1412.23328     351.5235     257.6742   1412.23328     351.5235     257.6742
   1412.21802     351.9831     258.0861   1412.21802     351.9831     258.0861
   1412.20276     352.2471     258.3680   1412.20276     352.2471     258.3680