#     FILENAME=!Skynet_57528_lach-cc-185_20577_21008.cyb.fits
#     BASENAME=Skynet_57528_lach-cc-185_20577_21008
#     SRC_NAME=lach-cc-185
#     OBSERVER=ccmadison16_9505
#     DATE_OBS=2016-05-20T18:50:15.620
#        OBSID=20577
#      SCANNUM=21008
#          MJD=57528.7859
#          UTC=67904
#     SCANTYPE=track
#     DATAMODE=HIRES
#     TUNEFREQ=1420.0000
# Actual_FREQ1=1420.0000
# Actual_FREQ2=1420.0000
#    LO1Tuning=6870.000
#     RFFILTER=1355_1435
#        OBSBW=-15.6250
#        NCHAN=1024 
#        FOCUS=37.0489
#           RA=05:57:02.36
#          DEC=24:38:17.85
#      RA(hrs)=5.950700
#     DEC(deg)=24.638300
#    AZIM(deg)=151.273
#    ELEV(deg)=74.544
#     IFattens=10.00, 9.00
#      WARNING=None
#    TCAL_XL1=7.9635
#    TCAL_YR1=9.1340
#    TCAL_XL2=7.9635
#    TCAL_YR2=9.1340
#     TRX_XL1=11.7060
#     TRX_YR1=11.7060
#     TRX_XL2=11.7060
#     TRX_YR2=11.7060
#        TAVE=1.0000
#Freq1(MHz)          XL1          YR1  Freq2(MHz)          XL2          YR2 

   1427.81250     376.6632     342.0522   1427.81250     376.6632     342.0522
   1427.79724     377.3553     343.7413   1427.79724     377.3553     343.7413
   1427.78198     377.7500     344.6655   1427.78198     377.7500     344.6655
   1427.76672     378.6855     345.9830   1427.76672     378.6855     345.9830
   1427.75146     379.3056     347.7069   1427.75146     379.3056     347.7069
   1427.73621     380.5550     349.5009   1427.73621     380.5550     349.5009
   1427.72095     381.6221     350.1476   1427.72095     381.6221     350.1476
   1427.70569     382.2018     351.7374   1427.70569     382.2018     351.7374
   1427.69043     382.8429     353.2085   1427.69043     382.8429     353.2085
   1427.67517     384.4006     355.6841   1427.67517     384.4006     355.6841
   1427.65991     385.4152     356.8398   1427.65991     385.4152     356.8398
   1427.64465     386.5128     358.6181   1427.64465     386.5128     358.6181
   1427.62939     387.8444     360.0166   1427.62939     387.8444     360.0166
   1427.61414     388.3024     361.6667   1427.61414     388.3024     361.6667
   1427.59888     389.8547     363.1718   1427.59888     389.8547     363.1718
   1427.58362     391.6347     365.3010   1427.58362     391.6347     365.3010
   1427.56836     392.9450     367.2738   1427.56836     392.9450     367.2738
   1427.55310     394.2640     368.7032   1427.55310     394.2640     368.7032
   1427.53784     395.9776     370.6090   1427.53784     395.9776     370.6090
   1427.52258     396.9408     372.2220   1427.52258     396.9408     372.2220
   1427.50732     399.3928     374.1514   1427.50732     399.3928     374.1514
   1427.49207     400.2282     376.4819   1427.49207     400.2282     376.4819
   1427.47681     401.7140     377.5775   1427.47681     401.7140     377.5775
   1427.46155     404.8616     379.9472   1427.46155     404.8616     379.9472
   1427.44629     405.5088     381.6139   1427.44629     405.5088     381.6139
   1427.43103     407.1584     383.9713   1427.43103     407.1584     383.9713
   1427.41577     409.7717     386.1360   1427.41577     409.7717     386.1360
   1427.40051     411.1673     388.2942   1427.40051     411.1673     388.2942
   1427.38525     412.3955     389.9436   1427.38525     412.3955     389.9436
   1427.37000     414.7232     392.1352   1427.37000     414.7232     392.1352
   1427.35474     417.2115     393.7081   1427.35474     417.2115     393.7081
   1427.33948     418.7928     395.5275   1427.33948     418.7928     395.5275
   1427.32422     421.3100     398.3689   1427.32422     421.3100     398.3689
   1427.30896     423.9608     400.2860   1427.30896     423.9608     400.2860
   1427.29370     425.8942     402.2376   1427.29370     425.8942     402.2376
   1427.27844     427.7780     404.5464   1427.27844     427.7780     404.5464
   1427.26318     430.6919     406.6341   1427.26318     430.6919     406.6341
   1427.24792     432.7604     408.6527   1427.24792     432.7604     408.6527
   1427.23267     435.0043     411.2582   1427.23267     435.0043     411.2582
   1427.21741     437.3285     413.2055   1427.21741     437.3285     413.2055
   1427.20215     440.4098     415.7878   1427.20215     440.4098     415.7878
   1427.18689     441.3853     418.2367   1427.18689     441.3853     418.2367
   1427.17163     445.1853     419.7751   1427.17163     445.1853     419.7751
   1427.15637     447.4011     422.8776   1427.15637     447.4011     422.8776
   1427.14111     449.7375     424.1151   1427.14111     449.7375     424.1151
   1427.12585     451.9308     426.4761   1427.12585     451.9308     426.4761
   1427.11060     454.6363     429.0130   1427.11060     454.6363     429.0130
   1427.09534     457.8932     431.3032   1427.09534     457.8932     431.3032
   1427.08008     460.5272     433.1662   1427.08008     460.5272     433.1662
   1427.06482     462.6934     435.5577   1427.06482     462.6934     435.5577
   1427.04956     465.5102     437.7383   1427.04956     465.5102     437.7383
   1427.03430     468.7213     439.9344   1427.03430     468.7213     439.9344
   1427.01904     471.1408     441.4283   1427.01904     471.1408     441.4283
   1427.00378     473.5713     444.4537   1427.00378     473.5713     444.4537
   1426.98853     476.8610     446.6226   1426.98853     476.8610     446.6226
   1426.97327     479.0518     449.6862   1426.97327     479.0518     449.6862
   1426.95801     482.2944     451.2773   1426.95801     482.2944     451.2773
   1426.94275     485.2133     452.9188   1426.94275     485.2133     452.9188
   1426.92749     488.5506     454.3259   1426.92749     488.5506     454.3259
   1426.91223     490.9247     457.9542   1426.91223     490.9247     457.9542
   1426.89697     494.7188     460.3417   1426.89697     494.7188     460.3417
   1426.88171     496.1784     462.0818   1426.88171     496.1784     462.0818
   1426.86646     499.7893     464.6382   1426.86646     499.7893     464.6382
   1426.85120     503.3300     466.5020   1426.85120     503.3300     466.5020
   1426.83594     506.5061     469.0693   1426.83594     506.5061     469.0693
   1426.82068     508.9011     470.8742   1426.82068     508.9011     470.8742
   1426.80542     511.5103     473.4550   1426.80542     511.5103     473.4550
   1426.79016     515.9766     476.2103   1426.79016     515.9766     476.2103
   1426.77490     518.0984     477.2191   1426.77490     518.0984     477.2191
   1426.75964     521.6849     480.6182   1426.75964     521.6849     480.6182
   1426.74438     523.7880     482.9604   1426.74438     523.7880     482.9604
   1426.72913     528.2981     484.2675   1426.72913     528.2981     484.2675
   1426.71387     530.6918     486.2907   1426.71387     530.6918     486.2907
   1426.69861     533.8195     488.8561   1426.69861     533.8195     488.8561
   1426.68335     536.4788     491.1158   1426.68335     536.4788     491.1158
   1426.66809     540.2950     492.8505   1426.66809     540.2950     492.8505
   1426.65283     543.3631     495.2606   1426.65283     543.3631     495.2606
   1426.63757     545.7972     497.5285   1426.63757     545.7972     497.5285
   1426.62231     550.7169     507.5705   1426.62231     550.7169     507.5705
   1426.60706     553.0212     501.2786   1426.60706     553.0212     501.2786
   1426.59180     555.1616     503.8229   1426.59180     555.1616     503.8229
   1426.57654     558.6338     506.1646   1426.57654     558.6338     506.1646
   1426.56128     561.9109     506.5819   1426.56128     561.9109     506.5819
   1426.54602     564.0115     509.2592   1426.54602     564.0115     509.2592
   1426.53076     568.5871     511.1861   1426.53076     568.5871     511.1861
   1426.51550     570.9310     513.5663   1426.51550     570.9310     513.5663
   1426.50024     573.2367     515.2515   1426.50024     573.2367     515.2515
   1426.48499     577.4892     518.3458   1426.48499     577.4892     518.3458
   1426.46973     580.6530     519.2640   1426.46973     580.6530     519.2640
   1426.45447     584.4493     520.9979   1426.45447     584.4493     520.9979
   1426.43921     586.4574     523.7527   1426.43921     586.4574     523.7527
   1426.42395     590.4493     525.3261   1426.42395     590.4493     525.3261
   1426.40869     592.4075     526.5995   1426.40869     592.4075     526.5995
   1426.39343     595.5859     528.7527   1426.39343     595.5859     528.7527
   1426.37817     598.6245     530.5188   1426.37817     598.6245     530.5188
   1426.36292     601.0480     533.3473   1426.36292     601.0480     533.3473
   1426.34766     604.2262     533.8765   1426.34766     604.2262     533.8765
   1426.33240     607.6876     535.3738   1426.33240     607.6876     535.3738
   1426.31714     610.9937     537.0280   1426.31714     610.9937     537.0280
   1426.30188     613.4755     539.1083   1426.30188     613.4755     539.1083
   1426.28662     617.0013     540.7606   1426.28662     617.0013     540.7606
   1426.27136     619.5294     543.8901   1426.27136     619.5294     543.8901
   1426.25610     622.9523     544.4726   1426.25610     622.9523     544.4726
   1426.24084     626.0261     547.1182   1426.24084     626.0261     547.1182
   1426.22559     629.4041     548.7110   1426.22559     629.4041     548.7110
   1426.21033     631.3897     550.1627   1426.21033     631.3897     550.1627
   1426.19507     634.4760     551.5414   1426.19507     634.4760     551.5414
   1426.17981     637.2833     552.8979   1426.17981     637.2833     552.8979
   1426.16455     639.6448     555.4696   1426.16455     639.6448     555.4696
   1426.14929     641.5962     556.5016   1426.14929     641.5962     556.5016
   1426.13403     644.0483     558.5983   1426.13403     644.0483     558.5983
   1426.11877     647.5885     559.9666   1426.11877     647.5885     559.9666
   1426.10352     649.8238     561.8087   1426.10352     649.8238     561.8087
   1426.08826     653.1395     563.0807   1426.08826     653.1395     563.0807
   1426.07300     654.3839     564.4501   1426.07300     654.3839     564.4501
   1426.05774     658.2893     565.9907   1426.05774     658.2893     565.9907
   1426.04248     660.1837     566.9694   1426.04248     660.1837     566.9694
   1426.02722     663.2133     568.4210   1426.02722     663.2133     568.4210
   1426.01196     665.9916     570.6314   1426.01196     665.9916     570.6314
   1425.99670     669.1318     571.6141   1425.99670     669.1318     571.6141
   1425.98145     671.9000     573.7695   1425.98145     671.9000     573.7695
   1425.96619     672.4319     574.4170   1425.96619     672.4319     574.4170
   1425.95093     676.4858     575.6636   1425.95093     676.4858     575.6636
   1425.93567     679.7310     576.5201   1425.93567     679.7310     576.5201
   1425.92041     680.9639     578.1301   1425.92041     680.9639     578.1301
   1425.90515     682.7026     580.5223   1425.90515     682.7026     580.5223
   1425.88989     685.6625     581.9338   1425.88989     685.6625     581.9338
   1425.87463     686.7305     583.7919   1425.87463     686.7305     583.7919
   1425.85938     689.5639     583.4310   1425.85938     689.5639     583.4310
   1425.84412     692.2636     585.6353   1425.84412     692.2636     585.6353
   1425.82886     695.3290     587.1847   1425.82886     695.3290     587.1847
   1425.81360     695.5894     588.5519   1425.81360     695.5894     588.5519
   1425.79834     698.0918     588.9869   1425.79834     698.0918     588.9869
   1425.78308     699.8948     590.4357   1425.78308     699.8948     590.4357
   1425.76782     703.2344     591.1625   1425.76782     703.2344     591.1625
   1425.75256     705.0132     591.8659   1425.75256     705.0132     591.8659
   1425.73730     707.5851     592.7291   1425.73730     707.5851     592.7291
   1425.72205     708.2608     593.3067   1425.72205     708.2608     593.3067
   1425.70679     711.1112     594.4412   1425.70679     711.1112     594.4412
   1425.69153     713.2103     596.3203   1425.69153     713.2103     596.3203
   1425.67627     715.1125     597.5589   1425.67627     715.1125     597.5589
   1425.66101     716.7115     598.6536   1425.66101     716.7115     598.6536
   1425.64575     718.6437     599.3896   1425.64575     718.6437     599.3896
   1425.63049     719.7308     599.3204   1425.63049     719.7308     599.3204
   1425.61523     721.1149     601.3919   1425.61523     721.1149     601.3919
   1425.59998     723.0443     601.9597   1425.59998     723.0443     601.9597
   1425.58472     725.1074     603.4470   1425.58472     725.1074     603.4470
   1425.56946     726.9423     604.2231   1425.56946     726.9423     604.2231
   1425.55420     728.2817     605.2766   1425.55420     728.2817     605.2766
   1425.53894     729.9790     606.2828   1425.53894     729.9790     606.2828
   1425.52368     730.8586     606.2008   1425.52368     730.8586     606.2008
   1425.50842     732.4383     606.4302   1425.50842     732.4383     606.4302
   1425.49316     733.7696     607.1912   1425.49316     733.7696     607.1912
   1425.47791     735.1879     608.8180   1425.47791     735.1879     608.8180
   1425.46265     738.3408     609.3401   1425.46265     738.3408     609.3401
   1425.44739     738.3406     610.5841   1425.44739     738.3406     610.5841
   1425.43213     738.9769     612.0202   1425.43213     738.9769     612.0202
   1425.41687     741.2885     612.0920   1425.41687     741.2885     612.0920
   1425.40161     742.9149     612.5412   1425.40161     742.9149     612.5412
   1425.38635     744.9048     612.6920   1425.38635     744.9048     612.6920
   1425.37109     745.5667     613.0646   1425.37109     745.5667     613.0646
   1425.35583     746.8751     614.0372   1425.35583     746.8751     614.0372
   1425.34058     747.2457     615.0965   1425.34058     747.2457     615.0965
   1425.32532     748.9278     616.5384   1425.32532     748.9278     616.5384
   1425.31006     750.1188     615.4916   1425.31006     750.1188     615.4916
   1425.29480     749.8785     616.6549   1425.29480     749.8785     616.6549
   1425.27954     752.1940     617.5791   1425.27954     752.1940     617.5791
   1425.26428     752.1548     618.0800   1425.26428     752.1548     618.0800
   1425.24902     754.5374     618.1342   1425.24902     754.5374     618.1342
   1425.23376     753.8186     619.3706   1425.23376     753.8186     619.3706
   1425.21851     755.8860     620.1940   1425.21851     755.8860     620.1940
   1425.20325     756.5779     619.6192   1425.20325     756.5779     619.6192
   1425.18799     758.7646     619.7114   1425.18799     758.7646     619.7114
   1425.17273     759.2776     620.6448   1425.17273     759.2776     620.6448
   1425.15747     759.6663     620.7069   1425.15747     759.6663     620.7069
   1425.14221     760.2936     620.9795   1425.14221     760.2936     620.9795
   1425.12695     760.1635     620.7521   1425.12695     760.1635     620.7521
   1425.11169     762.3391     622.1628   1425.11169     762.3391     622.1628
   1425.09644     760.6739     621.2807   1425.09644     760.6739     621.2807
   1425.08118     763.2151     622.0377   1425.08118     763.2151     622.0377
   1425.06592     763.8898     622.6485   1425.06592     763.8898     622.6485
   1425.05066     763.6164     623.0114   1425.05066     763.6164     623.0114
   1425.03540     763.5294     623.6982   1425.03540     763.5294     623.6982
   1425.02014     765.7792     623.0118   1425.02014     765.7792     623.0118
   1425.00488     765.9202     623.6149   1425.00488     765.9202     623.6149
   1424.98962     766.3043     624.4128   1424.98962     766.3043     624.4128
   1424.97437     766.7097     624.2638   1424.97437     766.7097     624.2638
   1424.95911     766.3171     624.2484   1424.95911     766.3171     624.2484
   1424.94385     767.2979     624.4266   1424.94385     767.2979     624.4266
   1424.92859     767.3086     623.8021   1424.92859     767.3086     623.8021
   1424.91333     766.7167     624.3539   1424.91333     766.7167     624.3539
   1424.89807     768.4560     624.0549   1424.89807     768.4560     624.0549
   1424.88281     768.2839     624.8397   1424.88281     768.2839     624.8397
   1424.86755     768.2490     624.3570   1424.86755     768.2490     624.3570
   1424.85229     768.1964     624.8441   1424.85229     768.1964     624.8441
   1424.83704     768.7266     624.4892   1424.83704     768.7266     624.4892
   1424.82178     768.7995     625.1431   1424.82178     768.7995     625.1431
   1424.80652     768.9858     625.1302   1424.80652     768.9858     625.1302
   1424.79126     769.8043     625.1458   1424.79126     769.8043     625.1458
   1424.77600     768.4955     624.5811   1424.77600     768.4955     624.5811
   1424.76074     768.9603     625.2039   1424.76074     768.9603     625.2039
   1424.74548     769.6434     623.5029   1424.74548     769.6434     623.5029
   1424.73022     769.2377     624.7607   1424.73022     769.2377     624.7607
   1424.71497     769.8223     624.3156   1424.71497     769.8223     624.3156
   1424.69971     771.1632     624.4440   1424.69971     771.1632     624.4440
   1424.68445     769.6431     624.4584   1424.68445     769.6431     624.4584
   1424.66919     771.1174     624.2916   1424.66919     771.1174     624.2916
   1424.65393     769.6485     624.0684   1424.65393     769.6485     624.0684
   1424.63867     769.5101     622.4797   1424.63867     769.5101     622.4797
   1424.62341     770.7512     623.7980   1424.62341     770.7512     623.7980
   1424.60815     770.8672     624.2519   1424.60815     770.8672     624.2519
   1424.59290     769.6018     623.3345   1424.59290     769.6018     623.3345
   1424.57764     769.1836     623.1318   1424.57764     769.1836     623.1318
   1424.56238     769.1038     622.7620   1424.56238     769.1038     622.7620
   1424.54712     768.4013     622.3760   1424.54712     768.4013     622.3760
   1424.53186     769.9894     622.7058   1424.53186     769.9894     622.7058
   1424.51660     769.6159     621.8145   1424.51660     769.6159     621.8145
   1424.50134     768.4124     622.7032   1424.50134     768.4124     622.7032
   1424.48608     769.1554     621.5145   1424.48608     769.1554     621.5145
   1424.47083     768.7128     621.3990   1424.47083     768.7128     621.3990
   1424.45557     768.1607     621.1339   1424.45557     768.1607     621.1339
   1424.44031     767.4727     620.6456   1424.44031     767.4727     620.6456
   1424.42505     767.9484     620.4850   1424.42505     767.9484     620.4850
   1424.40979     767.6227     620.1817   1424.40979     767.6227     620.1817
   1424.39453     766.7567     619.9293   1424.39453     766.7567     619.9293
   1424.37927     767.1077     619.4391   1424.37927     767.1077     619.4391
   1424.36401     765.7229     618.1526   1424.36401     765.7229     618.1526
   1424.34875     766.4885     618.1923   1424.34875     766.4885     618.1923
   1424.33350     765.8610     617.5734   1424.33350     765.8610     617.5734
   1424.31824     765.7477     618.1661   1424.31824     765.7477     618.1661
   1424.30298     766.2256     617.7888   1424.30298     766.2256     617.7888
   1424.28772     764.9637     616.9721   1424.28772     764.9637     616.9721
   1424.27246     764.4559     615.3613   1424.27246     764.4559     615.3613
   1424.25720     764.3034     616.3569   1424.25720     764.3034     616.3569
   1424.24194     762.7263     615.6973   1424.24194     762.7263     615.6973
   1424.22668     763.1100     614.7396   1424.22668     763.1100     614.7396
   1424.21143     763.1859     614.6352   1424.21143     763.1859     614.6352
   1424.19617     762.8670     614.0223   1424.19617     762.8670     614.0223
   1424.18091     762.4693     613.3458   1424.18091     762.4693     613.3458
   1424.16565     761.4766     613.5958   1424.16565     761.4766     613.5958
   1424.15039     760.7920     611.6918   1424.15039     760.7920     611.6918
   1424.13513     761.2623     611.7103   1424.13513     761.2623     611.7103
   1424.11987     760.2626     612.2023   1424.11987     760.2626     612.2023
   1424.10461     760.0120     610.7813   1424.10461     760.0120     610.7813
   1424.08936     759.2360     610.6261   1424.08936     759.2360     610.6261
   1424.07410     759.1451     610.2813   1424.07410     759.1451     610.2813
   1424.05884     760.0844     609.0485   1424.05884     760.0844     609.0485
   1424.04358     757.9214     608.4850   1424.04358     757.9214     608.4850
   1424.02832     757.7972     608.0884   1424.02832     757.7972     608.0884
   1424.01306     758.1306     606.0834   1424.01306     758.1306     606.0834
   1423.99780     756.6562     607.5197   1423.99780     756.6562     607.5197
   1423.98254     756.0847     606.2647   1423.98254     756.0847     606.2647
   1423.96729     756.4174     605.5542   1423.96729     756.4174     605.5542
   1423.95203     754.9916     604.0071   1423.95203     754.9916     604.0071
   1423.93677     755.4249     603.9485   1423.93677     755.4249     603.9485
   1423.92151     753.7093     604.0212   1423.92151     753.7093     604.0212
   1423.90625     753.0118     604.1035   1423.90625     753.0118     604.1035
   1423.89099     753.2292     602.4661   1423.89099     753.2292     602.4661
   1423.87573     754.1032     601.9287   1423.87573     754.1032     601.9287
   1423.86047     751.7533     600.8753   1423.86047     751.7533     600.8753
   1423.84521     751.2500     600.2274   1423.84521     751.2500     600.2274
   1423.82996     750.6473     600.2062   1423.82996     750.6473     600.2062
   1423.81470     750.1231     598.4276   1423.81470     750.1231     598.4276
   1423.79944     749.6898     598.1665   1423.79944     749.6898     598.1665
   1423.78418     751.1106     596.9545   1423.78418     751.1106     596.9545
   1423.76892     749.0759     596.7661   1423.76892     749.0759     596.7661
   1423.75366     749.0267     595.4388   1423.75366     749.0267     595.4388
   1423.73840     748.9023     595.5025   1423.73840     748.9023     595.5025
   1423.72314     747.0259     594.0880   1423.72314     747.0259     594.0880
   1423.70789     747.0491     593.2195   1423.70789     747.0491     593.2195
   1423.69263     746.8551     592.9802   1423.69263     746.8551     592.9802
   1423.67737     746.4852     591.8973   1423.67737     746.4852     591.8973
   1423.66211     747.0310     591.3410   1423.66211     747.0310     591.3410
   1423.64685     746.1830     591.2087   1423.64685     746.1830     591.2087
   1423.63159     744.7122     589.5836   1423.63159     744.7122     589.5836
   1423.61633     745.4096     588.8216   1423.61633     745.4096     588.8216
   1423.60107     743.6778     587.5844   1423.60107     743.6778     587.5844
   1423.58582     743.6006     586.8152   1423.58582     743.6006     586.8152
   1423.57056     743.4286     586.6536   1423.57056     743.4286     586.6536
   1423.55530     742.4927     586.5575   1423.55530     742.4927     586.5575
   1423.54004     742.2891     585.5896   1423.54004     742.2891     585.5896
   1423.52478     741.4167     584.7846   1423.52478     741.4167     584.7846
   1423.50952     740.5214     583.5564   1423.50952     740.5214     583.5564
   1423.49426     739.3857     582.1751   1423.49426     739.3857     582.1751
   1423.47900     740.5617     582.1885   1423.47900     740.5617     582.1885
   1423.46375     739.0323     579.9789   1423.46375     739.0323     579.9789
   1423.44849     739.0785     579.4095   1423.44849     739.0785     579.4095
   1423.43323     739.1221     578.6987   1423.43323     739.1221     578.6987
   1423.41797     738.3978     577.7448   1423.41797     738.3978     577.7448
   1423.40271     738.4176     576.7140   1423.40271     738.4176     576.7140
   1423.38745     738.1788     577.0496   1423.38745     738.1788     577.0496
   1423.37219     737.4708     575.9054   1423.37219     737.4708     575.9054
   1423.35693     737.0348     574.5580   1423.35693     737.0348     574.5580
   1423.34167     736.1193     574.3906   1423.34167     736.1193     574.3906
   1423.32642     736.3391     573.5208   1423.32642     736.3391     573.5208
   1423.31116     734.8255     572.3998   1423.31116     734.8255     572.3998
   1423.29590     735.4398     570.7573   1423.29590     735.4398     570.7573
   1423.28064     733.5306     570.1025   1423.28064     733.5306     570.1025
   1423.26538     733.1212     569.0812   1423.26538     733.1212     569.0812
   1423.25012     734.3234     568.6190   1423.25012     734.3234     568.6190
   1423.23486     733.7852     567.1072   1423.23486     733.7852     567.1072
   1423.21960     733.5294     566.7806   1423.21960     733.5294     566.7806
   1423.20435     731.9219     564.8512   1423.20435     731.9219     564.8512
   1423.18909     731.4557     564.7821   1423.18909     731.4557     564.7821
   1423.17383     731.4727     564.3788   1423.17383     731.4727     564.3788
   1423.15857     731.5898     563.1754   1423.15857     731.5898     563.1754
   1423.14331     730.8846     561.8344   1423.14331     730.8846     561.8344
   1423.12805     729.8896     561.6344   1423.12805     729.8896     561.6344
   1423.11279     730.1367     561.0755   1423.11279     730.1367     561.0755
   1423.09753     729.5485     559.3599   1423.09753     729.5485     559.3599
   1423.08228     729.7041     558.2456   1423.08228     729.7041     558.2456
   1423.06702     730.1155     557.5013   1423.06702     730.1155     557.5013
   1423.05176     727.5756     557.0270   1423.05176     727.5756     557.0270
   1423.03650     728.9971     556.7080   1423.03650     728.9971     556.7080
   1423.02124     728.2369     554.5815   1423.02124     728.2369     554.5815
   1423.00598     727.1550     552.9515   1423.00598     727.1550     552.9515
   1422.99072     728.1218     552.8425   1422.99072     728.1218     552.8425
   1422.97546     727.4868     552.2093   1422.97546     727.4868     552.2093
   1422.96021     726.8633     551.7747   1422.96021     726.8633     551.7747
   1422.94495     727.3983     550.4191   1422.94495     727.3983     550.4191
   1422.92969     726.8178     549.3205   1422.92969     726.8178     549.3205
   1422.91443     725.0825     547.5593   1422.91443     725.0825     547.5593
   1422.89917     726.2499     547.6169   1422.89917     726.2499     547.6169
   1422.88391     725.2702     545.4349   1422.88391     725.2702     545.4349
   1422.86865     724.7120     545.3770   1422.86865     724.7120     545.3770
   1422.85339     724.6813     543.8876   1422.85339     724.6813     543.8876
   1422.83813     724.3938     543.8226   1422.83813     724.3938     543.8226
   1422.82288     725.4039     542.9380   1422.82288     725.4039     542.9380
   1422.80762     723.4371     541.4940   1422.80762     723.4371     541.4940
   1422.79236     724.7939     540.5710   1422.79236     724.7939     540.5710
   1422.77710     724.0148     539.9935   1422.77710     724.0148     539.9935
   1422.76184     722.9254     539.2334   1422.76184     722.9254     539.2334
   1422.74658     721.4579     538.3448   1422.74658     721.4579     538.3448
   1422.73132     723.0848     536.4036   1422.73132     723.0848     536.4036
   1422.71606     723.1801     535.7502   1422.71606     723.1801     535.7502
   1422.70081     722.6060     534.8984   1422.70081     722.6060     534.8984
   1422.68555     721.8518     533.4297   1422.68555     721.8518     533.4297
   1422.67029     722.1777     532.3895   1422.67029     722.1777     532.3895
   1422.65503     721.3831     532.2311   1422.65503     721.3831     532.2311
   1422.63977     720.5878     531.7350   1422.63977     720.5878     531.7350
   1422.62451     721.9553     529.8054   1422.62451     721.9553     529.8054
   1422.60925     721.1024     528.9879   1422.60925     721.1024     528.9879
   1422.59399     721.4457     528.0176   1422.59399     721.4457     528.0176
   1422.57874     720.5775     527.3820   1422.57874     720.5775     527.3820
   1422.56348     721.3121     526.1646   1422.56348     721.3121     526.1646
   1422.54822     720.2170     525.1606   1422.54822     720.2170     525.1606
   1422.53296     719.6143     524.9349   1422.53296     719.6143     524.9349
   1422.51770     719.9963     524.2098   1422.51770     719.9963     524.2098
   1422.50244     719.4947     523.1577   1422.50244     719.4947     523.1577
   1422.48718     719.1829     521.2412   1422.48718     719.1829     521.2412
   1422.47192     719.9178     521.3264   1422.47192     719.9178     521.3264
   1422.45667     718.5434     521.0018   1422.45667     718.5434     521.0018
   1422.44141     718.4827     518.6741   1422.44141     718.4827     518.6741
   1422.42615     718.7894     518.4296   1422.42615     718.7894     518.4296
   1422.41089     717.7803     517.1930   1422.41089     717.7803     517.1930
   1422.39563     718.3702     515.5714   1422.39563     718.3702     515.5714
   1422.38037     718.0073     514.6967   1422.38037     718.0073     514.6967
   1422.36511     718.4834     514.5268   1422.36511     718.4834     514.5268
   1422.34985     718.4664     513.4113   1422.34985     718.4664     513.4113
   1422.33459     718.0229     512.9355   1422.33459     718.0229     512.9355
   1422.31934     717.5551     511.2385   1422.31934     717.5551     511.2385
   1422.30408     717.7038     510.8428   1422.30408     717.7038     510.8428
   1422.28882     716.7466     509.5002   1422.28882     716.7466     509.5002
   1422.27356     717.7518     509.2649   1422.27356     717.7518     509.2649
   1422.25830     716.4324     508.8882   1422.25830     716.4324     508.8882
   1422.24304     716.2031     507.6066   1422.24304     716.2031     507.6066
   1422.22778     717.0964     506.4951   1422.22778     717.0964     506.4951
   1422.21252     717.3632     504.6781   1422.21252     717.3632     504.6781
   1422.19727     716.7984     504.2383   1422.19727     716.7984     504.2383
   1422.18201     716.3414     502.4471   1422.18201     716.3414     502.4471
   1422.16675     717.3578     503.0335   1422.16675     717.3578     503.0335
   1422.15149     715.6700     501.8782   1422.15149     715.6700     501.8782
   1422.13623     715.7938     500.9347   1422.13623     715.7938     500.9347
   1422.12097     717.5327     500.1614   1422.12097     717.5327     500.1614
   1422.10571     716.2804     499.0299   1422.10571     716.2804     499.0299
   1422.09045     716.6179     497.4391   1422.09045     716.6179     497.4391
   1422.07520     715.4686     497.8059   1422.07520     715.4686     497.8059
   1422.05994     716.0754     496.0495   1422.05994     716.0754     496.0495
   1422.04468     715.3019     495.2581   1422.04468     715.3019     495.2581
   1422.02942     715.2699     495.5388   1422.02942     715.2699     495.5388
   1422.01416     715.2207     493.5198   1422.01416     715.2207     493.5198
   1421.99890     715.2128     493.3008   1421.99890     715.2128     493.3008
   1421.98364     716.4271     491.7193   1421.98364     716.4271     491.7193
   1421.96838     715.0938     491.6695   1421.96838     715.0938     491.6695
   1421.95312     713.9438     490.6586   1421.95312     713.9438     490.6586
   1421.93787     714.7932     489.9057   1421.93787     714.7932     489.9057
   1421.92261     715.0366     488.4879   1421.92261     715.0366     488.4879
   1421.90735     716.0587     486.7043   1421.90735     716.0587     486.7043
   1421.89209     714.8395     486.5936   1421.89209     714.8395     486.5936
   1421.87683     715.8287     486.2968   1421.87683     715.8287     486.2968
   1421.86157     715.3445     484.9039   1421.86157     715.3445     484.9039
   1421.84631     714.5461     483.9928   1421.84631     714.5461     483.9928
   1421.83105     714.0795     483.5607   1421.83105     714.0795     483.5607
   1421.81580     714.9871     483.0107   1421.81580     714.9871     483.0107
   1421.80054     714.3632     482.4272   1421.80054     714.3632     482.4272
   1421.78528     714.9904     480.8038   1421.78528     714.9904     480.8038
   1421.77002     713.5757     480.2331   1421.77002     713.5757     480.2331
   1421.75476     713.8761     479.0103   1421.75476     713.8761     479.0103
   1421.73950     713.6857     478.4634   1421.73950     713.6857     478.4634
   1421.72424     714.5649     477.3622   1421.72424     714.5649     477.3622
   1421.70898     714.8202     476.4268   1421.70898     714.8202     476.4268
   1421.69373     713.9864     475.9366   1421.69373     713.9864     475.9366
   1421.67847     713.3558     475.4985   1421.67847     713.3558     475.4985
   1421.66321     713.9459     473.9991   1421.66321     713.9459     473.9991
   1421.64795     713.5908     473.9072   1421.64795     713.5908     473.9072
   1421.63269     712.4471     472.6238   1421.63269     712.4471     472.6238
   1421.61743     712.9192     471.7769   1421.61743     712.9192     471.7769
   1421.60217     713.7191     470.8814   1421.60217     713.7191     470.8814
   1421.58691     713.2648     469.5154   1421.58691     713.2648     469.5154
   1421.57166     713.8547     469.0537   1421.57166     713.8547     469.0537
   1421.55640     712.4711     467.8532   1421.55640     712.4711     467.8532
   1421.54114     712.8110     467.8284   1421.54114     712.8110     467.8284
   1421.52588     714.2595     466.7721   1421.52588     714.2595     466.7721
   1421.51062     712.9772     466.1884   1421.51062     712.9772     466.1884
   1421.49536     712.6615     465.2656   1421.49536     712.6615     465.2656
   1421.48010     711.9376     463.9993   1421.48010     711.9376     463.9993
   1421.46484     711.8389     464.0349   1421.46484     711.8389     464.0349
   1421.44958     710.3467     462.4548   1421.44958     710.3467     462.4548
   1421.43433     711.4085     462.3464   1421.43433     711.4085     462.3464
   1421.41907     712.1921     461.4148   1421.41907     712.1921     461.4148
   1421.40381     710.5443     459.9896   1421.40381     710.5443     459.9896
   1421.38855     711.2393     460.0194   1421.38855     711.2393     460.0194
   1421.37329     711.8040     458.8078   1421.37329     711.8040     458.8078
   1421.35803     711.3519     458.5380   1421.35803     711.3519     458.5380
   1421.34277     710.5294     457.4900   1421.34277     710.5294     457.4900
   1421.32751     711.1998     456.6051   1421.32751     711.1998     456.6051
   1421.31226     711.4898     456.5773   1421.31226     711.4898     456.5773
   1421.29700     709.7965     455.4077   1421.29700     709.7965     455.4077
   1421.28174     710.5597     454.4314   1421.28174     710.5597     454.4314
   1421.26648     708.8627     453.0227   1421.26648     708.8627     453.0227
   1421.25122     709.3665     452.8468   1421.25122     709.3665     452.8468
   1421.23596     710.0496     452.3134   1421.23596     710.0496     452.3134
   1421.22070     709.0756     450.7827   1421.22070     709.0756     450.7827
   1421.20544     708.7469     451.0272   1421.20544     708.7469     451.0272
   1421.19019     708.5059     449.4857   1421.19019     708.5059     449.4857
   1421.17493     708.5382     449.0570   1421.17493     708.5382     449.0570
   1421.15967     708.7828     447.9611   1421.15967     708.7828     447.9611
   1421.14441     708.0543     447.6268   1421.14441     708.0543     447.6268
   1421.12915     707.8816     446.5076   1421.12915     707.8816     446.5076
   1421.11389     708.9858     446.4460   1421.11389     708.9858     446.4460
   1421.09863     707.3934     445.3619   1421.09863     707.3934     445.3619
   1421.08337     707.7862     444.9408   1421.08337     707.7862     444.9408
   1421.06812     706.7791     443.5346   1421.06812     706.7791     443.5346
   1421.05286     706.9039     442.9092   1421.05286     706.9039     442.9092
   1421.03760     707.3728     442.2510   1421.03760     707.3728     442.2510
   1421.02234     706.9788     441.1558   1421.02234     706.9788     441.1558
   1421.00708     706.6886     440.9220   1421.00708     706.6886     440.9220
   1420.99182     706.8195     440.7302   1420.99182     706.8195     440.7302
   1420.97656     707.1329     439.6600   1420.97656     707.1329     439.6600
   1420.96130     706.8197     439.2101   1420.96130     706.8197     439.2101
   1420.94604     706.2751     438.3615   1420.94604     706.2751     438.3615
   1420.93079     704.6335     438.2746   1420.93079     704.6335     438.2746
   1420.91553     704.7925     436.4992   1420.91553     704.7925     436.4992
   1420.90027     706.0078     435.6598   1420.90027     706.0078     435.6598
   1420.88501     705.6385     435.5533   1420.88501     705.6385     435.5533
   1420.86975     705.2423     434.7676   1420.86975     705.2423     434.7676
   1420.85449     706.5037     434.7946   1420.85449     706.5037     434.7946
   1420.83923     704.7657     433.4016   1420.83923     704.7657     433.4016
   1420.82397     706.3784     433.5702   1420.82397     706.3784     433.5702
   1420.80872     705.9175     432.2283   1420.80872     705.9175     432.2283
   1420.79346     704.5690     432.2169   1420.79346     704.5690     432.2169
   1420.77820     704.7866     431.6410   1420.77820     704.7866     431.6410
   1420.76294     705.3176     431.3650   1420.76294     705.3176     431.3650
   1420.74768     706.8286     430.8030   1420.74768     706.8286     430.8030
   1420.73242     705.9762     430.4121   1420.73242     705.9762     430.4121
   1420.71716     706.7044     429.6586   1420.71716     706.7044     429.6586
   1420.70190     706.8928     429.1225   1420.70190     706.8928     429.1225
   1420.68665     705.2054     429.0006   1420.68665     705.2054     429.0006
   1420.67139     704.4707     428.1875   1420.67139     704.4707     428.1875
   1420.65613     706.9141     428.2221   1420.65613     706.9141     428.2221
   1420.64087     705.8535     426.9519   1420.64087     705.8535     426.9519
   1420.62561     706.1094     426.7880   1420.62561     706.1094     426.7880
   1420.61035     706.6374     426.9836   1420.61035     706.6374     426.9836
   1420.59509     707.0979     426.1222   1420.59509     707.0979     426.1222
   1420.57983     708.1817     426.0044   1420.57983     708.1817     426.0044
   1420.56458     708.8334     426.5966   1420.56458     708.8334     426.5966
   1420.54932     709.8939     426.9114   1420.54932     709.8939     426.9114
   1420.53406     712.0370     428.0089   1420.53406     712.0370     428.0089
   1420.51880     714.8221     428.5057   1420.51880     714.8221     428.5057
   1420.50354     717.3093     429.3659   1420.50354     717.3093     429.3659
   1420.48828     719.8047     430.9431   1420.48828     719.8047     430.9431
   1420.47302     723.4838     433.4153   1420.47302     723.4838     433.4153
   1420.45776     729.0621     435.8822   1420.45776     729.0621     435.8822
   1420.44250     736.3659     438.8087   1420.44250     736.3659     438.8087
   1420.42725     745.7751     443.5504   1420.42725     745.7751     443.5504
   1420.41199     760.0308     451.6090   1420.41199     760.0308     451.6090
   1420.39673     783.2379     463.8183   1420.39673     783.2379     463.8183
   1420.38147     815.6354     482.0237   1420.38147     815.6354     482.0237
   1420.36621     852.2815     502.4052   1420.36621     852.2815     502.4052
   1420.35095     919.3408     540.5002   1420.35095     919.3408     540.5002
   1420.33569    1049.4047     613.9754   1420.33569    1049.4047     613.9754
   1420.32043    1298.7333     757.5541   1420.32043    1298.7333     757.5541
   1420.30518    1855.1575    1075.3065   1420.30518    1855.1575    1075.3065
   1420.28992    2419.2288    1398.1451   1420.28992    2419.2288    1398.1451
   1420.27466    2749.5532    1583.3043   1420.27466    2749.5532    1583.3043
   1420.25940    2829.5615    1630.7097   1420.25940    2829.5615    1630.7097
   1420.24414    2753.3103    1581.1417   1420.24414    2753.3103    1581.1417
   1420.22888    2438.0815    1404.9927   1420.22888    2438.0815    1404.9927
   1420.21362    1924.9169    1104.7208   1420.21362    1924.9169    1104.7208
   1420.19836    1311.5745     761.8456   1420.19836    1311.5745     761.8456
   1420.18311     945.0796     551.4170   1420.18311     945.0796     551.4170
   1420.16785     810.0339     473.6210   1420.16785     810.0339     473.6210
   1420.15259     757.1093     443.0897   1420.15259     757.1093     443.0897
   1420.13733     731.1540     427.9868   1420.13733     731.1540     427.9868
   1420.12207     718.7832     420.2365   1420.12207     718.7832     420.2365
   1420.10681     711.1923     415.6588   1420.10681     711.1923     415.6588
   1420.09155     704.5112     411.4825   1420.09155     704.5112     411.4825
   1420.07629     702.2427     409.8948   1420.07629     702.2427     409.8948
   1420.06104     698.0528     408.3843   1420.06104     698.0528     408.3843
   1420.04578     698.6821     406.8073   1420.04578     698.6821     406.8073
   1420.03052     697.5450     406.3056   1420.03052     697.5450     406.3056
   1420.01526     696.6351     405.7221   1420.01526     696.6351     405.7221
   1420.00000     697.5187     406.4924   1420.00000     697.5187     406.4924
   1419.98474     698.4026     407.2626   1419.98474     698.4026     407.2626
   1419.96948     698.4987     404.7294   1419.96948     698.4987     404.7294
   1419.95422     694.9008     402.9346   1419.95422     694.9008     402.9346
   1419.93896     694.5094     402.5356   1419.93896     694.5094     402.5356
   1419.92371     694.5579     402.2561   1419.92371     694.5579     402.2561
   1419.90845     693.7030     401.4040   1419.90845     693.7030     401.4040
   1419.89319     694.8583     401.4039   1419.89319     694.8583     401.4039
   1419.87793     693.1058     400.5399   1419.87793     693.1058     400.5399
   1419.86267     693.6607     400.9338   1419.86267     693.6607     400.9338
   1419.84741     693.3171     400.2425   1419.84741     693.3171     400.2425
   1419.83215     692.2122     400.4724   1419.83215     692.2122     400.4724
   1419.81689     693.2687     399.3979   1419.81689     693.2687     399.3979
   1419.80164     693.3274     399.9489   1419.80164     693.3274     399.9489
   1419.78638     692.5875     399.1531   1419.78638     692.5875     399.1531
   1419.77112     693.3207     398.3109   1419.77112     693.3207     398.3109
   1419.75586     693.4525     397.8021   1419.75586     693.4525     397.8021
   1419.74060     693.7609     398.6761   1419.74060     693.7609     398.6761
   1419.72534     693.0765     398.6868   1419.72534     693.0765     398.6868
   1419.71008     693.1932     398.4385   1419.71008     693.1932     398.4385
   1419.69482     692.5677     397.4032   1419.69482     692.5677     397.4032
   1419.67957     692.0053     398.0378   1419.67957     692.0053     398.0378
   1419.66431     692.1124     397.4486   1419.66431     692.1124     397.4486
   1419.64905     692.9425     397.0945   1419.64905     692.9425     397.0945
   1419.63379     693.0465     396.9102   1419.63379     693.0465     396.9102
   1419.61853     693.5813     396.6034   1419.61853     693.5813     396.6034
   1419.60327     693.3472     396.8952   1419.60327     693.3472     396.8952
   1419.58801     693.5403     396.6607   1419.58801     693.5403     396.6607
   1419.57275     693.9156     396.5948   1419.57275     693.9156     396.5948
   1419.55750     694.5815     396.1467   1419.55750     694.5815     396.1467
   1419.54224     695.2430     395.9743   1419.54224     695.2430     395.9743
   1419.52698     694.1562     395.8170   1419.52698     694.1562     395.8170
   1419.51172     694.3430     396.3127   1419.51172     694.3430     396.3127
   1419.49646     694.6481     396.6209   1419.49646     694.6481     396.6209
   1419.48120     694.6456     396.2292   1419.48120     694.6456     396.2292
   1419.46594     695.3285     396.2759   1419.46594     695.3285     396.2759
   1419.45068     695.6920     395.6548   1419.45068     695.6920     395.6548
   1419.43542     697.4849     396.3513   1419.43542     697.4849     396.3513
   1419.42017     696.7495     395.5040   1419.42017     696.7495     395.5040
   1419.40491     695.6624     395.4306   1419.40491     695.6624     395.4306
   1419.38965     696.1201     395.8982   1419.38965     696.1201     395.8982
   1419.37439     697.1122     396.1463   1419.37439     697.1122     396.1463
   1419.35913     697.2938     395.7740   1419.35913     697.2938     395.7740
   1419.34387     697.7127     395.4999   1419.34387     697.7127     395.4999
   1419.32861     697.6179     396.0109   1419.32861     697.6179     396.0109
   1419.31335     698.7813     396.9426   1419.31335     698.7813     396.9426
   1419.29810     698.6450     396.0806   1419.29810     698.6450     396.0806
   1419.28284     698.3118     396.2573   1419.28284     698.3118     396.2573
   1419.26758     699.6212     396.3701   1419.26758     699.6212     396.3701
   1419.25232     699.7690     396.3362   1419.25232     699.7690     396.3362
   1419.23706     698.8914     396.3056   1419.23706     698.8914     396.3056
   1419.22180     701.8251     396.3625   1419.22180     701.8251     396.3625
   1419.20654     700.1390     396.4370   1419.20654     700.1390     396.4370
   1419.19128     700.4261     396.7497   1419.19128     700.4261     396.7497
   1419.17603     701.2148     396.9746   1419.17603     701.2148     396.9746
   1419.16077     701.8776     397.2606   1419.16077     701.8776     397.2606
   1419.14551     702.9711     397.9633   1419.14551     702.9711     397.9633
   1419.13025     702.8450     397.4152   1419.13025     702.8450     397.4152
   1419.11499     703.2074     398.0681   1419.11499     703.2074     398.0681
   1419.09973     703.1743     398.2468   1419.09973     703.1743     398.2468
   1419.08447     705.1500     398.1524   1419.08447     705.1500     398.1524
   1419.06921     705.0261     398.4102   1419.06921     705.0261     398.4102
   1419.05396     704.6729     398.8089   1419.05396     704.6729     398.8089
   1419.03870     705.4317     399.3778   1419.03870     705.4317     399.3778
   1419.02344     705.1761     399.5171   1419.02344     705.1761     399.5171
   1419.00818     707.8023     399.6727   1419.00818     707.8023     399.6727
   1418.99292     706.0163     399.8240   1418.99292     706.0163     399.8240
   1418.97766     707.0497     400.2356   1418.97766     707.0497     400.2356
   1418.96240     707.5025     400.1203   1418.96240     707.5025     400.1203
   1418.94714     708.6778     400.3073   1418.94714     708.6778     400.3073
   1418.93188     709.4124     401.0671   1418.93188     709.4124     401.0671
   1418.91663     709.4893     401.4543   1418.91663     709.4893     401.4543
   1418.90137     710.8500     401.8218   1418.90137     710.8500     401.8218
   1418.88611     711.5804     402.2574   1418.88611     711.5804     402.2574
   1418.87085     711.9744     402.2789   1418.87085     711.9744     402.2789
   1418.85559     710.8994     402.3539   1418.85559     710.8994     402.3539
   1418.84033     713.2281     402.9721   1418.84033     713.2281     402.9721
   1418.82507     713.4764     403.2423   1418.82507     713.4764     403.2423
   1418.80981     714.2673     403.7897   1418.80981     714.2673     403.7897
   1418.79456     714.9260     403.9660   1418.79456     714.9260     403.9660
   1418.77930     715.5032     404.3293   1418.77930     715.5032     404.3293
   1418.76404     714.2892     405.4459   1418.76404     714.2892     405.4459
   1418.74878     717.5091     405.2443   1418.74878     717.5091     405.2443
   1418.73352     716.9002     405.7966   1418.73352     716.9002     405.7966
   1418.71826     716.7784     406.0030   1418.71826     716.7784     406.0030
   1418.70300     717.9528     407.1461   1418.70300     717.9528     407.1461
   1418.68774     719.2749     407.1161   1418.68774     719.2749     407.1161
   1418.67249     719.4905     407.7749   1418.67249     719.4905     407.7749
   1418.65723     720.2015     408.2986   1418.65723     720.2015     408.2986
   1418.64197     721.4440     408.8898   1418.64197     721.4440     408.8898
   1418.62671     722.5176     410.0232   1418.62671     722.5176     410.0232
   1418.61145     722.5787     410.0017   1418.61145     722.5787     410.0017
   1418.59619     723.3853     410.0620   1418.59619     723.3853     410.0620
   1418.58093     723.1270     411.0947   1418.58093     723.1270     411.0947
   1418.56567     724.3669     411.2288   1418.56567     724.3669     411.2288
   1418.55042     725.6475     412.1683   1418.55042     725.6475     412.1683
   1418.53516     726.7125     412.8052   1418.53516     726.7125     412.8052
   1418.51990     725.5883     413.2520   1418.51990     725.5883     413.2520
   1418.50464     727.6017     413.7876   1418.50464     727.6017     413.7876
   1418.48938     728.4139     414.1813   1418.48938     728.4139     414.1813
   1418.47412     729.0385     414.5026   1418.47412     729.0385     414.5026
   1418.45886     729.6028     416.0419   1418.45886     729.6028     416.0419
   1418.44360     730.5241     415.8146   1418.44360     730.5241     415.8146
   1418.42834     732.2235     416.6994   1418.42834     732.2235     416.6994
   1418.41309     732.2123     416.9792   1418.41309     732.2123     416.9792
   1418.39783     732.1675     418.4043   1418.39783     732.1675     418.4043
   1418.38257     733.4319     418.7868   1418.38257     733.4319     418.7868
   1418.36731     733.7927     419.2890   1418.36731     733.7927     419.2890
   1418.35205     734.2581     420.8430   1418.35205     734.2581     420.8430
   1418.33679     735.7877     420.5676   1418.33679     735.7877     420.5676
   1418.32153     736.8536     421.4553   1418.32153     736.8536     421.4553
   1418.30627     738.2430     422.3237   1418.30627     738.2430     422.3237
   1418.29102     739.8705     422.8581   1418.29102     739.8705     422.8581
   1418.27576     740.3002     423.8763   1418.27576     740.3002     423.8763
   1418.26050     740.4131     424.3721   1418.26050     740.4131     424.3721
   1418.24524     742.6285     424.9831   1418.24524     742.6285     424.9831
   1418.22998     742.0654     425.2192   1418.22998     742.0654     425.2192
   1418.21472     743.0056     426.4310   1418.21472     743.0056     426.4310
   1418.19946     743.4741     427.4721   1418.19946     743.4741     427.4721
   1418.18420     744.3928     427.7756   1418.18420     744.3928     427.7756
   1418.16895     745.8984     428.9004   1418.16895     745.8984     428.9004
   1418.15369     746.0143     430.3523   1418.15369     746.0143     430.3523
   1418.13843     747.0491     430.0232   1418.13843     747.0491     430.0232
   1418.12317     747.5187     431.3488   1418.12317     747.5187     431.3488
   1418.10791     748.4718     432.9290   1418.10791     748.4718     432.9290
   1418.09265     750.6653     432.8168   1418.09265     750.6653     432.8168
   1418.07739     750.4753     433.7449   1418.07739     750.4753     433.7449
   1418.06213     751.6838     434.5060   1418.06213     751.6838     434.5060
   1418.04688     752.4056     435.3396   1418.04688     752.4056     435.3396
   1418.03162     753.5380     436.1479   1418.03162     753.5380     436.1479
   1418.01636     754.1683     436.8227   1418.01636     754.1683     436.8227
   1418.00110     753.7759     437.6580   1418.00110     753.7759     437.6580
   1417.98584     756.7537     438.5448   1417.98584     756.7537     438.5448
   1417.97058     757.6619     439.2712   1417.97058     757.6619     439.2712
   1417.95532     758.1183     440.4892   1417.95532     758.1183     440.4892
   1417.94006     758.8000     440.9670   1417.94006     758.8000     440.9670
   1417.92480     759.7465     441.9537   1417.92480     759.7465     441.9537
   1417.90955     761.4044     442.9309   1417.90955     761.4044     442.9309
   1417.89429     761.1807     443.5868   1417.89429     761.1807     443.5868
   1417.87903     761.2980     444.9007   1417.87903     761.2980     444.9007
   1417.86377     762.5619     445.7048   1417.86377     762.5619     445.7048
   1417.84851     764.0917     446.2588   1417.84851     764.0917     446.2588
   1417.83325     765.0276     448.0714   1417.83325     765.0276     448.0714
   1417.81799     765.2171     448.3495   1417.81799     765.2171     448.3495
   1417.80273     766.0847     449.2594   1417.80273     766.0847     449.2594
   1417.78748     767.2980     450.8138   1417.78748     767.2980     450.8138
   1417.77222     767.7136     451.7631   1417.77222     767.7136     451.7631
   1417.75696     770.2257     452.6962   1417.75696     770.2257     452.6962
   1417.74170     771.4983     452.6514   1417.74170     771.4983     452.6514
   1417.72644     770.9050     453.4609   1417.72644     770.9050     453.4609
   1417.71118     771.7618     455.0512   1417.71118     771.7618     455.0512
   1417.69592     772.8414     455.8029   1417.69592     772.8414     455.8029
   1417.68066     773.8181     457.6638   1417.68066     773.8181     457.6638
   1417.66541     774.5925     457.5549   1417.66541     774.5925     457.5549
   1417.65015     775.3702     459.2602   1417.65015     775.3702     459.2602
   1417.63489     776.3218     459.5386   1417.63489     776.3218     459.5386
   1417.61963     778.1765     460.4193   1417.61963     778.1765     460.4193
   1417.60437     777.1547     462.4341   1417.60437     777.1547     462.4341
   1417.58911     778.1758     462.7001   1417.58911     778.1758     462.7001
   1417.57385     779.4944     464.0185   1417.57385     779.4944     464.0185
   1417.55859     779.5234     464.8962   1417.55859     779.5234     464.8962
   1417.54333     780.7194     465.9526   1417.54333     780.7194     465.9526
   1417.52808     782.3349     466.8977   1417.52808     782.3349     466.8977
   1417.51282     782.4156     468.2185   1417.51282     782.4156     468.2185
   1417.49756     783.1022     468.8997   1417.49756     783.1022     468.8997
   1417.48230     784.4575     469.7651   1417.48230     784.4575     469.7651
   1417.46704     784.7936     470.0005   1417.46704     784.7936     470.0005
   1417.45178     785.5110     471.1440   1417.45178     785.5110     471.1440
   1417.43652     785.2379     472.3986   1417.43652     785.2379     472.3986
   1417.42126     786.2773     474.3112   1417.42126     786.2773     474.3112
   1417.40601     788.1351     474.9598   1417.40601     788.1351     474.9598
   1417.39075     789.7111     475.9436   1417.39075     789.7111     475.9436
   1417.37549     789.4562     476.4259   1417.37549     789.4562     476.4259
   1417.36023     788.6826     477.5098   1417.36023     788.6826     477.5098
   1417.34497     791.5089     478.5593   1417.34497     791.5089     478.5593
   1417.32971     791.4937     479.7915   1417.32971     791.4937     479.7915
   1417.31445     792.3242     480.9279   1417.31445     792.3242     480.9279
   1417.29919     792.8331     482.1816   1417.29919     792.8331     482.1816
   1417.28394     794.2802     482.4221   1417.28394     794.2802     482.4221
   1417.26868     793.8047     483.5992   1417.26868     793.8047     483.5992
   1417.25342     794.4149     485.4868   1417.25342     794.4149     485.4868
   1417.23816     795.9598     485.4586   1417.23816     795.9598     485.4586
   1417.22290     796.3115     486.6808   1417.22290     796.3115     486.6808
   1417.20764     797.0344     488.3798   1417.20764     797.0344     488.3798
   1417.19238     796.9850     489.2958   1417.19238     796.9850     489.2958
   1417.17712     797.3945     489.7487   1417.17712     797.3945     489.7487
   1417.16187     799.1281     490.9233   1417.16187     799.1281     490.9233
   1417.14661     797.6030     491.2903   1417.14661     797.6030     491.2903
   1417.13135     798.7272     492.4070   1417.13135     798.7272     492.4070
   1417.11609     799.5107     493.8834   1417.11609     799.5107     493.8834
   1417.10083     800.1818     494.9194   1417.10083     800.1818     494.9194
   1417.08557     800.0859     495.2050   1417.08557     800.0859     495.2050
   1417.07031     801.1721     496.4094   1417.07031     801.1721     496.4094
   1417.05505     802.8643     497.3885   1417.05505     802.8643     497.3885
   1417.03979     801.1710     496.7832   1417.03979     801.1710     496.7832
   1417.02454     803.3475     498.5832   1417.02454     803.3475     498.5832
   1417.00928     802.2764     499.8544   1417.00928     802.2764     499.8544
   1416.99402     802.9508     500.1741   1416.99402     802.9508     500.1741
   1416.97876     804.6408     500.9637   1416.97876     804.6408     500.9637
   1416.96350     804.6745     502.2711   1416.96350     804.6745     502.2711
   1416.94824     803.6266     503.4165   1416.94824     803.6266     503.4165
   1416.93298     805.5995     503.3816   1416.93298     805.5995     503.3816
   1416.91772     804.3307     505.2529   1416.91772     804.3307     505.2529
   1416.90247     805.3239     504.8333   1416.90247     805.3239     504.8333
   1416.88721     806.6970     507.1376   1416.88721     806.6970     507.1376
   1416.87195     805.5617     506.7532   1416.87195     805.5617     506.7532
   1416.85669     805.4262     507.7319   1416.85669     805.4262     507.7319
   1416.84143     807.2099     507.7301   1416.84143     807.2099     507.7301
   1416.82617     806.0936     508.9720   1416.82617     806.0936     508.9720
   1416.81091     806.8820     509.4439   1416.81091     806.8820     509.4439
   1416.79565     806.8404     509.5912   1416.79565     806.8404     509.5912
   1416.78040     806.3234     511.1548   1416.78040     806.3234     511.1548
   1416.76514     805.6470     510.4231   1416.76514     805.6470     510.4231
   1416.74988     806.2598     512.3187   1416.74988     806.2598     512.3187
   1416.73462     806.6626     512.0767   1416.73462     806.6626     512.0767
   1416.71936     806.5128     513.0485   1416.71936     806.5128     513.0485
   1416.70410     806.7759     513.6978   1416.70410     806.7759     513.6978
   1416.68884     805.7682     513.9915   1416.68884     805.7682     513.9915
   1416.67358     807.9698     514.9214   1416.67358     807.9698     514.9214
   1416.65833     806.7175     515.5272   1416.65833     806.7175     515.5272
   1416.64307     806.8425     516.3212   1416.64307     806.8425     516.3212
   1416.62781     805.3474     516.8183   1416.62781     805.3474     516.8183
   1416.61255     805.5641     516.6771   1416.61255     805.5641     516.6771
   1416.59729     805.0858     516.9325   1416.59729     805.0858     516.9325
   1416.58203     807.1152     518.5823   1416.58203     807.1152     518.5823
   1416.56677     805.9391     518.3768   1416.56677     805.9391     518.3768
   1416.55151     806.7067     518.6158   1416.55151     806.7067     518.6158
   1416.53625     805.5467     519.7203   1416.53625     805.5467     519.7203
   1416.52100     805.9294     519.4680   1416.52100     805.9294     519.4680
   1416.50574     805.2098     519.3446   1416.50574     805.2098     519.3446
   1416.49048     806.5471     520.0625   1416.49048     806.5471     520.0625
   1416.47522     804.8439     520.4714   1416.47522     804.8439     520.4714
   1416.45996     805.3090     520.8115   1416.45996     805.3090     520.8115
   1416.44470     803.8730     521.5519   1416.44470     803.8730     521.5519
   1416.42944     803.5129     521.4337   1416.42944     803.5129     521.4337
   1416.41418     804.4222     522.4211   1416.41418     804.4222     522.4211
   1416.39893     803.8147     522.2646   1416.39893     803.8147     522.2646
   1416.38367     804.1963     521.9573   1416.38367     804.1963     521.9573
   1416.36841     801.4470     521.1620   1416.36841     801.4470     521.1620
   1416.35315     802.4462     522.3623   1416.35315     802.4462     522.3623
   1416.33789     801.8183     522.7731   1416.33789     801.8183     522.7731
   1416.32263     800.3039     522.8998   1416.32263     800.3039     522.8998
   1416.30737     800.9500     522.8870   1416.30737     800.9500     522.8870
   1416.29211     800.6793     523.7388   1416.29211     800.6793     523.7388
   1416.27686     799.4742     523.1142   1416.27686     799.4742     523.1142
   1416.26160     799.5604     522.4174   1416.26160     799.5604     522.4174
   1416.24634     798.7430     523.6677   1416.24634     798.7430     523.6677
   1416.23108     799.3470     523.1000   1416.23108     799.3470     523.1000
   1416.21582     798.3970     523.8862   1416.21582     798.3970     523.8862
   1416.20056     796.8555     523.7405   1416.20056     796.8555     523.7405
   1416.18530     796.1541     524.1968   1416.18530     796.1541     524.1968
   1416.17004     796.0297     522.7642   1416.17004     796.0297     522.7642
   1416.15479     796.0189     523.5098   1416.15479     796.0189     523.5098
   1416.13953     795.9225     522.6277   1416.13953     795.9225     522.6277
   1416.12427     796.0064     523.1895   1416.12427     796.0064     523.1895
   1416.10901     794.3583     522.3727   1416.10901     794.3583     522.3727
   1416.09375     793.4238     523.1898   1416.09375     793.4238     523.1898
   1416.07849     793.0115     522.8547   1416.07849     793.0115     522.8547
   1416.06323     793.2642     522.3044   1416.06323     793.2642     522.3044
   1416.04797     791.6539     522.7304   1416.04797     791.6539     522.7304
   1416.03271     791.1917     522.8320   1416.03271     791.1917     522.8320
   1416.01746     790.8629     522.6174   1416.01746     790.8629     522.6174
   1416.00220     789.0300     523.0058   1416.00220     789.0300     523.0058
   1415.98694     788.4752     523.3116   1415.98694     788.4752     523.3116
   1415.97168     787.3727     521.6326   1415.97168     787.3727     521.6326
   1415.95642     787.4990     521.1243   1415.95642     787.4990     521.1243
   1415.94116     785.6636     522.0131   1415.94116     785.6636     522.0131
   1415.92590     784.8633     522.0566   1415.92590     784.8633     522.0566
   1415.91064     784.4133     520.8958   1415.91064     784.4133     520.8958
   1415.89539     784.7334     521.2924   1415.89539     784.7334     521.2924
   1415.88013     782.7634     520.4137   1415.88013     782.7634     520.4137
   1415.86487     781.3844     521.4107   1415.86487     781.3844     521.4107
   1415.84961     782.3645     521.2012   1415.84961     782.3645     521.2012
   1415.83435     781.2701     520.4476   1415.83435     781.2701     520.4476
   1415.81909     779.9382     519.6779   1415.81909     779.9382     519.6779
   1415.80383     781.0607     520.2916   1415.80383     781.0607     520.2916
   1415.78857     778.7141     519.8804   1415.78857     778.7141     519.8804
   1415.77332     777.2654     519.1174   1415.77332     777.2654     519.1174
   1415.75806     777.0692     519.4966   1415.75806     777.0692     519.4966
   1415.74280     775.3814     518.5013   1415.74280     775.3814     518.5013
   1415.72754     775.1957     518.5828   1415.72754     775.1957     518.5828
   1415.71228     775.0353     519.1674   1415.71228     775.0353     519.1674
   1415.69702     772.4177     518.2582   1415.69702     772.4177     518.2582
   1415.68176     772.5789     517.7466   1415.68176     772.5789     517.7466
   1415.66650     771.8234     517.6134   1415.66650     771.8234     517.6134
   1415.65125     770.3442     517.2432   1415.65125     770.3442     517.2432
   1415.63599     768.9315     517.4594   1415.63599     768.9315     517.4594
   1415.62073     768.2100     516.8399   1415.62073     768.2100     516.8399
   1415.60547     768.1512     516.3345   1415.60547     768.1512     516.3345
   1415.59021     766.0750     516.7374   1415.59021     766.0750     516.7374
   1415.57495     764.8787     515.5843   1415.57495     764.8787     515.5843
   1415.55969     764.4747     515.7255   1415.55969     764.4747     515.7255
   1415.54443     763.6136     515.1965   1415.54443     763.6136     515.1965
   1415.52917     763.2691     514.3406   1415.52917     763.2691     514.3406
   1415.51392     762.2919     514.1877   1415.51392     762.2919     514.1877
   1415.49866     760.5414     514.6710   1415.49866     760.5414     514.6710
   1415.48340     759.8041     513.8539   1415.48340     759.8041     513.8539
   1415.46814     758.1476     514.4280   1415.46814     758.1476     514.4280
   1415.45288     758.1853     513.5502   1415.45288     758.1853     513.5502
   1415.43762     757.4230     512.4318   1415.43762     757.4230     512.4318
   1415.42236     755.5491     512.3945   1415.42236     755.5491     512.3945
   1415.40710     753.4934     512.2426   1415.40710     753.4934     512.2426
   1415.39185     754.1321     511.1852   1415.39185     754.1321     511.1852
   1415.37659     752.9089     510.8916   1415.37659     752.9089     510.8916
   1415.36133     751.0049     511.3271   1415.36133     751.0049     511.3271
   1415.34607     749.8867     510.2295   1415.34607     749.8867     510.2295
   1415.33081     750.2578     509.7896   1415.33081     750.2578     509.7896
   1415.31555     748.2087     509.9519   1415.31555     748.2087     509.9519
   1415.30029     745.4858     508.9224   1415.30029     745.4858     508.9224
   1415.28503     745.2274     508.7538   1415.28503     745.2274     508.7538
   1415.26978     744.3369     507.8293   1415.26978     744.3369     507.8293
   1415.25452     742.1453     507.7448   1415.25452     742.1453     507.7448
   1415.23926     742.1287     506.8027   1415.23926     742.1287     506.8027
   1415.22400     740.2820     506.3550   1415.22400     740.2820     506.3550
   1415.20874     738.8279     507.1323   1415.20874     738.8279     507.1323
   1415.19348     737.5527     505.4200   1415.19348     737.5527     505.4200
   1415.17822     738.1733     505.3039   1415.17822     738.1733     505.3039
   1415.16296     734.2358     505.1824   1415.16296     734.2358     505.1824
   1415.14771     734.7803     504.2177   1415.14771     734.7803     504.2177
   1415.13245     732.2714     503.1074   1415.13245     732.2714     503.1074
   1415.11719     730.6913     502.9259   1415.11719     730.6913     502.9259
   1415.10193     728.8258     502.5346   1415.10193     728.8258     502.5346
   1415.08667     727.4673     501.3363   1415.08667     727.4673     501.3363
   1415.07141     726.9319     501.3087   1415.07141     726.9319     501.3087
   1415.05615     725.5156     500.2034   1415.05615     725.5156     500.2034
   1415.04089     723.9332     498.8187   1415.04089     723.9332     498.8187
   1415.02563     723.1592     499.5008   1415.02563     723.1592     499.5008
   1415.01038     721.7787     499.2891   1415.01038     721.7787     499.2891
   1414.99512     720.2897     497.3865   1414.99512     720.2897     497.3865
   1414.97986     718.0654     497.0570   1414.97986     718.0654     497.0570
   1414.96460     716.7793     496.7972   1414.96460     716.7793     496.7972
   1414.94934     714.5787     495.9644   1414.94934     714.5787     495.9644
   1414.93408     713.1315     495.5524   1414.93408     713.1315     495.5524
   1414.91882     712.4309     495.1211   1414.91882     712.4309     495.1211
   1414.90356     711.2262     493.8659   1414.90356     711.2262     493.8659
   1414.88831     708.3812     492.6947   1414.88831     708.3812     492.6947
   1414.87305     707.4583     493.1007   1414.87305     707.4583     493.1007
   1414.85779     704.9993     491.8404   1414.85779     704.9993     491.8404
   1414.84253     703.1534     491.3472   1414.84253     703.1534     491.3472
   1414.82727     702.6654     490.8783   1414.82727     702.6654     490.8783
   1414.81201     701.4864     490.0943   1414.81201     701.4864     490.0943
   1414.79675     699.5023     489.1010   1414.79675     699.5023     489.1010
   1414.78149     698.4850     488.1989   1414.78149     698.4850     488.1989
   1414.76624     695.7607     486.9355   1414.76624     695.7607     486.9355
   1414.75098     694.6015     485.8380   1414.75098     694.6015     485.8380
   1414.73572     691.4281     484.9584   1414.73572     691.4281     484.9584
   1414.72046     690.1823     484.1516   1414.72046     690.1823     484.1516
   1414.70520     688.0831     483.9696   1414.70520     688.0831     483.9696
   1414.68994     686.7923     482.8010   1414.68994     686.7923     482.8010
   1414.67468     684.0884     481.8712   1414.67468     684.0884     481.8712
   1414.65942     681.9351     480.3141   1414.65942     681.9351     480.3141
   1414.64417     680.5963     479.1122   1414.64417     680.5963     479.1122
   1414.62891     679.3898     479.1434   1414.62891     679.3898     479.1434
   1414.61365     677.0038     477.3776   1414.61365     677.0038     477.3776
   1414.59839     675.1767     477.7064   1414.59839     675.1767     477.7064
   1414.58313     674.0779     475.9597   1414.58313     674.0779     475.9597
   1414.56787     670.6595     475.3853   1414.56787     670.6595     475.3853
   1414.55261     670.0101     473.9002   1414.55261     670.0101     473.9002
   1414.53735     666.9191     472.9543   1414.53735     666.9191     472.9543
   1414.52209     664.6192     471.7333   1414.52209     664.6192     471.7333
   1414.50684     664.3092     470.8057   1414.50684     664.3092     470.8057
   1414.49158     660.9316     469.5545   1414.49158     660.9316     469.5545
   1414.47632     658.4051     467.9545   1414.47632     658.4051     467.9545
   1414.46106     656.9298     468.0901   1414.46106     656.9298     468.0901
   1414.44580     653.9989     466.4059   1414.44580     653.9989     466.4059
   1414.43054     653.2294     464.6411   1414.43054     653.2294     464.6411
   1414.41528     649.9183     463.2801   1414.41528     649.9183     463.2801
   1414.40002     648.2792     463.3049   1414.40002     648.2792     463.3049
   1414.38477     645.5522     461.1732   1414.38477     645.5522     461.1732
   1414.36951     644.2576     460.6591   1414.36951     644.2576     460.6591
   1414.35425     640.9314     459.5255   1414.35425     640.9314     459.5255
   1414.33899     638.4863     458.1166   1414.33899     638.4863     458.1166
   1414.32373     637.1969     457.0436   1414.32373     637.1969     457.0436
   1414.30847     634.8154     455.5648   1414.30847     634.8154     455.5648
   1414.29321     632.5973     454.7180   1414.29321     632.5973     454.7180
   1414.27795     630.2907     452.4219   1414.27795     630.2907     452.4219
   1414.26270     628.4584     451.8200   1414.26270     628.4584     451.8200
   1414.24744     625.2278     449.4706   1414.24744     625.2278     449.4706
   1414.23218     623.0359     448.2658   1414.23218     623.0359     448.2658
   1414.21692     620.4803     447.9294   1414.21692     620.4803     447.9294
   1414.20166     619.2803     446.4621   1414.20166     619.2803     446.4621
   1414.18640     616.4713     445.3364   1414.18640     616.4713     445.3364
   1414.17114     614.3903     444.2168   1414.17114     614.3903     444.2168
   1414.15588     611.3409     443.0779   1414.15588     611.3409     443.0779
   1414.14062     609.0626     440.8855   1414.14062     609.0626     440.8855
   1414.12537     606.8841     439.1223   1414.12537     606.8841     439.1223
   1414.11011     603.4423     438.8341   1414.11011     603.4423     438.8341
   1414.09485     601.4482     437.1215   1414.09485     601.4482     437.1215
   1414.07959     598.5381     435.3447   1414.07959     598.5381     435.3447
   1414.06433     595.8221     434.1646   1414.06433     595.8221     434.1646
   1414.04907     593.9904     432.5526   1414.04907     593.9904     432.5526
   1414.03381     590.3987     431.4608   1414.03381     590.3987     431.4608
   1414.01855     587.8386     429.2578   1414.01855     587.8386     429.2578
   1414.00330     598.4048     433.8986   1414.00330     598.4048     433.8986
   1413.98804     583.0591     426.1988   1413.98804     583.0591     426.1988
   1413.97278     581.4836     425.2516   1413.97278     581.4836     425.2516
   1413.95752     577.2145     423.4666   1413.95752     577.2145     423.4666
   1413.94226     575.9293     422.2742   1413.94226     575.9293     422.2742
   1413.92700     573.3060     420.3750   1413.92700     573.3060     420.3750
   1413.91174     569.9948     419.3604   1413.91174     569.9948     419.3604
   1413.89648     566.6295     417.1218   1413.89648     566.6295     417.1218
   1413.88123     565.3033     416.0210   1413.88123     565.3033     416.0210
   1413.86597     561.5966     414.7718   1413.86597     561.5966     414.7718
   1413.85071     559.7128     412.7542   1413.85071     559.7128     412.7542
   1413.83545     556.2674     411.2256   1413.83545     556.2674     411.2256
   1413.82019     554.1913     408.4803   1413.82019     554.1913     408.4803
   1413.80493     551.1521     408.0806   1413.80493     551.1521     408.0806
   1413.78967     548.9816     406.7002   1413.78967     548.9816     406.7002
   1413.77441     546.5766     404.8112   1413.77441     546.5766     404.8112
   1413.75916     543.4311     403.5097   1413.75916     543.4311     403.5097
   1413.74390     540.9426     402.3067   1413.74390     540.9426     402.3067
   1413.72864     538.3021     400.2362   1413.72864     538.3021     400.2362
   1413.71338     535.5124     399.0369   1413.71338     535.5124     399.0369
   1413.69812     532.7205     397.0884   1413.69812     532.7205     397.0884
   1413.68286     529.8073     395.4165   1413.68286     529.8073     395.4165
   1413.66760     527.0232     393.8067   1413.66760     527.0232     393.8067
   1413.65234     524.4959     392.3639   1413.65234     524.4959     392.3639
   1413.63708     522.2471     390.7345   1413.63708     522.2471     390.7345
   1413.62183     519.0760     389.0746   1413.62183     519.0760     389.0746
   1413.60657     515.3751     387.3839   1413.60657     515.3751     387.3839
   1413.59131     513.2693     386.0075   1413.59131     513.2693     386.0075
   1413.57605     510.4567     384.7248   1413.57605     510.4567     384.7248
   1413.56079     508.3511     382.9429   1413.56079     508.3511     382.9429
   1413.54553     505.4460     380.9854   1413.54553     505.4460     380.9854
   1413.53027     502.5530     379.6177   1413.53027     502.5530     379.6177
   1413.51501     499.8362     377.6880   1413.51501     499.8362     377.6880
   1413.49976     497.9828     376.2927   1413.49976     497.9828     376.2927
   1413.48450     494.5016     375.2657   1413.48450     494.5016     375.2657
   1413.46924     492.5481     374.0250   1413.46924     492.5481     374.0250
   1413.45398     489.3499     372.5370   1413.45398     489.3499     372.5370
   1413.43872     486.5039     370.5476   1413.43872     486.5039     370.5476
   1413.42346     483.8626     368.9827   1413.42346     483.8626     368.9827
   1413.40820     481.8202     367.8777   1413.40820     481.8202     367.8777
   1413.39294     478.4792     366.4758   1413.39294     478.4792     366.4758
   1413.37769     476.0768     364.6217   1413.37769     476.0768     364.6217
   1413.36243     473.2271     363.3606   1413.36243     473.2271     363.3606
   1413.34717     471.3046     361.4977   1413.34717     471.3046     361.4977
   1413.33191     468.9248     360.3784   1413.33191     468.9248     360.3784
   1413.31665     466.5357     358.5649   1413.31665     466.5357     358.5649
   1413.30139     463.3875     357.4855   1413.30139     463.3875     357.4855
   1413.28613     460.9088     356.3205   1413.28613     460.9088     356.3205
   1413.27087     458.5982     355.0398   1413.27087     458.5982     355.0398
   1413.25562     455.1544     353.3578   1413.25562     455.1544     353.3578
   1413.24036     453.5630     352.1365   1413.24036     453.5630     352.1365
   1413.22510     451.1339     351.1695   1413.22510     451.1339     351.1695
   1413.20984     448.6410     349.7793   1413.20984     448.6410     349.7793
   1413.19458     446.2890     349.2178   1413.19458     446.2890     349.2178
   1413.17932     444.9482     347.5103   1413.17932     444.9482     347.5103
   1413.16406     441.6964     346.1469   1413.16406     441.6964     346.1469
   1413.14880     439.1631     344.8292   1413.14880     439.1631     344.8292
   1413.13354     437.1901     343.9116   1413.13354     437.1901     343.9116
   1413.11829     434.9780     343.1128   1413.11829     434.9780     343.1128
   1413.10303     432.9503     341.6704   1413.10303     432.9503     341.6704
   1413.08777     431.2357     340.9274   1413.08777     431.2357     340.9274
   1413.07251     428.0258     339.8267   1413.07251     428.0258     339.8267
   1413.05725     426.7862     338.0454   1413.05725     426.7862     338.0454
   1413.04199     424.9259     337.1425   1413.04199     424.9259     337.1425
   1413.02673     422.6277     337.1557   1413.02673     422.6277     337.1557
   1413.01147     420.4420     335.3650   1413.01147     420.4420     335.3650
   1412.99622     418.5406     334.8706   1412.99622     418.5406     334.8706
   1412.98096     416.5211     333.9598   1412.98096     416.5211     333.9598
   1412.96570     414.7526     332.9507   1412.96570     414.7526     332.9507
   1412.95044     412.9456     332.0168   1412.95044     412.9456     332.0168
   1412.93518     411.0845     331.3927   1412.93518     411.0845     331.3927
   1412.91992     407.9031     330.2663   1412.91992     407.9031     330.2663
   1412.90466     407.4655     329.6096   1412.90466     407.4655     329.6096
   1412.88940     405.8383     329.2901   1412.88940     405.8383     329.2901
   1412.87415     403.3197     328.6941   1412.87415     403.3197     328.6941
   1412.85889     402.1199     327.7077   1412.85889     402.1199     327.7077
   1412.84363     400.2939     327.6404   1412.84363     400.2939     327.6404
   1412.82837     399.2487     326.9335   1412.82837     399.2487     326.9335
   1412.81311     397.1109     326.3995   1412.81311     397.1109     326.3995
   1412.79785     396.0592     326.1108   1412.79785     396.0592     326.1108
   1412.78259     393.9121     324.9206   1412.78259     393.9121     324.9206
   1412.76733     392.4763     324.9737   1412.76733     392.4763     324.9737
   1412.75208     392.2651     324.5819   1412.75208     392.2651     324.5819
   1412.73682     390.2551     324.0677   1412.73682     390.2551     324.0677
   1412.72156     389.1804     324.2629   1412.72156     389.1804     324.2629
   1412.70630     388.1734     323.8256   1412.70630     388.1734     323.8256
   1412.69104     386.7569     323.8358   1412.69104     386.7569     323.8358
   1412.67578     385.1223     323.6622   1412.67578     385.1223     323.6622
   1412.66052     384.7148     323.4096   1412.66052     384.7148     323.4096
   1412.64526     382.8858     322.7818   1412.64526     382.8858     322.7818
   1412.63000     382.9133     323.6017   1412.63000     382.9133     323.6017
   1412.61475     381.4003     323.4703   1412.61475     381.4003     323.4703
   1412.59949     380.6834     324.1581   1412.59949     380.6834     324.1581
   1412.58423     380.1239     324.2639   1412.58423     380.1239     324.2639
   1412.56897     379.5220     323.6995   1412.56897     379.5220     323.6995
   1412.55371     378.1797     324.6537   1412.55371     378.1797     324.6537
   1412.53845     378.3601     324.5389   1412.53845     378.3601     324.5389
   1412.52319     376.5762     324.9666   1412.52319     376.5762     324.9666
   1412.50793     376.6630     324.8440   1412.50793     376.6630     324.8440
   1412.49268     376.2913     325.3817   1412.49268     376.2913     325.3817
   1412.47742     375.2564     325.5184   1412.47742     375.2564     325.5184
   1412.46216     375.6429     326.6818   1412.46216     375.6429     326.6818
   1412.44690     374.4733     327.1729   1412.44690     374.4733     327.1729
   1412.43164     374.9492     327.7950   1412.43164     374.9492     327.7950
   1412.41638     374.2839     328.6828   1412.41638     374.2839     328.6828
   1412.40112     373.8774     328.6937   1412.40112     373.8774     328.6937
   1412.38586     373.9720     329.5835   1412.38586     373.9720     329.5835
   1412.37061     373.8246     329.6900   1412.37061     373.8246     329.6900
   1412.35535     374.6030     331.1737   1412.35535     374.6030     331.1737
   1412.34009     373.8358     331.7511   1412.34009     373.8358     331.7511
   1412.32483     373.8683     332.8253   1412.32483     373.8683     332.8253
   1412.30957     373.2833     333.8354   1412.30957     373.2833     333.8354
   1412.29431     373.8369     334.5486   1412.29431     373.8369     334.5486
   1412.27905     374.0943     334.8462   1412.27905     374.0943     334.8462
   1412.26379     374.6425     336.8949   1412.26379     374.6425     336.8949
   1412.24854     374.9743     337.3448   1412.24854     374.9743     337.3448
   1412.23328     375.5794     339.1931   1412.23328     375.5794     339.1931
   1412.21802     375.0022     339.7245   1412.21802     375.0022     339.7245
   1412.20276     376.3488     341.1417   1412.20276     376.3488     341.1417