#     FILENAME=!Skynet_57528_lach-cc-226_20641_21032.cyb.fits
#     BASENAME=Skynet_57528_lach-cc-226_20641_21032
#     SRC_NAME=lach-cc-226
#     OBSERVER=ccmadison16_9505
#     DATE_OBS=2016-05-20T19:40:18.250
#        OBSID=20641
#      SCANNUM=21032
#          MJD=57528.8207
#          UTC=70908
#     SCANTYPE=track
#     DATAMODE=HIRES
#     TUNEFREQ=1420.0000
# Actual_FREQ1=1420.0000
# Actual_FREQ2=1420.0000
#    LO1Tuning=6870.000
#     RFFILTER=1355_1435
#        OBSBW=-15.6250
#        NCHAN=1024 
#        FOCUS=37.1148
#           RA=07:15:34.57
#          DEC=-11:36:34.80
#      RA(hrs)=7.259600
#     DEC(deg)=-11.609700
#    AZIM(deg)=160.769
#    ELEV(deg)=37.851
#     IFattens=10.00, 9.00
#      WARNING=None
#    TCAL_XL1=7.9635
#    TCAL_YR1=9.1340
#    TCAL_XL2=7.9635
#    TCAL_YR2=9.1340
#     TRX_XL1=11.7060
#     TRX_YR1=11.7060
#     TRX_XL2=11.7060
#     TRX_YR2=11.7060
#        TAVE=1.0000
#Freq1(MHz)          XL1          YR1  Freq2(MHz)          XL2          YR2 

   1427.81250     357.7017     277.5840   1427.81250     357.7017     277.5840
   1427.79724     358.8315     278.2859   1427.79724     358.8315     278.2859
   1427.78198     358.6402     278.4073   1427.78198     358.6402     278.4073
   1427.76672     359.5752     278.8529   1427.76672     359.5752     278.8529
   1427.75146     360.6536     279.6601   1427.75146     360.6536     279.6601
   1427.73621     361.0494     280.0195   1427.73621     361.0494     280.0195
   1427.72095     362.5422     281.0213   1427.72095     362.5422     281.0213
   1427.70569     363.0437     281.4529   1427.70569     363.0437     281.4529
   1427.69043     364.6555     282.3457   1427.69043     364.6555     282.3457
   1427.67517     366.3347     283.0362   1427.67517     366.3347     283.0362
   1427.65991     367.1822     284.0162   1427.65991     367.1822     284.0162
   1427.64465     368.1687     285.1324   1427.64465     368.1687     285.1324
   1427.62939     369.3296     286.0610   1427.62939     369.3296     286.0610
   1427.61414     370.0456     286.6232   1427.61414     370.0456     286.6232
   1427.59888     371.8822     287.5184   1427.59888     371.8822     287.5184
   1427.58362     373.5540     289.2592   1427.58362     373.5540     289.2592
   1427.56836     375.2329     289.6609   1427.56836     375.2329     289.6609
   1427.55310     376.1531     290.9565   1427.55310     376.1531     290.9565
   1427.53784     377.6074     292.1865   1427.53784     377.6074     292.1865
   1427.52258     378.6996     292.8295   1427.52258     378.6996     292.8295
   1427.50732     380.6934     294.0089   1427.50732     380.6934     294.0089
   1427.49207     382.7445     295.8773   1427.49207     382.7445     295.8773
   1427.47681     384.0210     296.6424   1427.47681     384.0210     296.6424
   1427.46155     385.7852     298.1837   1427.46155     385.7852     298.1837
   1427.44629     388.1464     299.3210   1427.44629     388.1464     299.3210
   1427.43103     389.7736     300.7789   1427.43103     389.7736     300.7789
   1427.41577     391.7824     301.7839   1427.41577     391.7824     301.7839
   1427.40051     393.7275     304.0871   1427.40051     393.7275     304.0871
   1427.38525     395.6199     305.5174   1427.38525     395.6199     305.5174
   1427.37000     397.5484     306.4911   1427.37000     397.5484     306.4911
   1427.35474     399.2015     307.8858   1427.35474     399.2015     307.8858
   1427.33948     401.6935     309.4038   1427.33948     401.6935     309.4038
   1427.32422     403.6769     311.7681   1427.32422     403.6769     311.7681
   1427.30896     405.7694     312.8613   1427.30896     405.7694     312.8613
   1427.29370     408.4207     314.9719   1427.29370     408.4207     314.9719
   1427.27844     410.1381     316.4733   1427.27844     410.1381     316.4733
   1427.26318     412.2570     318.3169   1427.26318     412.2570     318.3169
   1427.24792     414.9349     319.8520   1427.24792     414.9349     319.8520
   1427.23267     416.5692     321.3275   1427.23267     416.5692     321.3275
   1427.21741     419.4949     323.4033   1427.21741     419.4949     323.4033
   1427.20215     421.2083     325.3452   1427.20215     421.2083     325.3452
   1427.18689     423.8392     326.9255   1427.18689     423.8392     326.9255
   1427.17163     425.8788     329.0866   1427.17163     425.8788     329.0866
   1427.15637     428.5447     331.0406   1427.15637     428.5447     331.0406
   1427.14111     431.3493     332.9974   1427.14111     431.3493     332.9974
   1427.12585     433.9263     335.2357   1427.12585     433.9263     335.2357
   1427.11060     436.5225     336.8602   1427.11060     436.5225     336.8602
   1427.09534     439.4468     339.1127   1427.09534     439.4468     339.1127
   1427.08008     440.5714     340.9333   1427.08008     440.5714     340.9333
   1427.06482     444.5912     342.7759   1427.06482     444.5912     342.7759
   1427.04956     446.4928     345.1314   1427.04956     446.4928     345.1314
   1427.03430     449.3967     347.0993   1427.03430     449.3967     347.0993
   1427.01904     451.7760     349.5211   1427.01904     451.7760     349.5211
   1427.00378     454.5737     351.2711   1427.00378     454.5737     351.2711
   1426.98853     457.0443     354.1666   1426.98853     457.0443     354.1666
   1426.97327     459.3598     356.0688   1426.97327     459.3598     356.0688
   1426.95801     462.1427     358.3864   1426.95801     462.1427     358.3864
   1426.94275     465.2840     360.5392   1426.94275     465.2840     360.5392
   1426.92749     468.2527     362.9962   1426.92749     468.2527     362.9962
   1426.91223     470.6333     365.0322   1426.91223     470.6333     365.0322
   1426.89697     473.4901     367.3225   1426.89697     473.4901     367.3225
   1426.88171     476.7404     369.4918   1426.88171     476.7404     369.4918
   1426.86646     479.5067     371.9061   1426.86646     479.5067     371.9061
   1426.85120     482.2109     373.9496   1426.85120     482.2109     373.9496
   1426.83594     483.8357     376.8111   1426.83594     483.8357     376.8111
   1426.82068     487.6553     378.9352   1426.82068     487.6553     378.9352
   1426.80542     491.2164     381.7834   1426.80542     491.2164     381.7834
   1426.79016     492.9966     383.9509   1426.79016     492.9966     383.9509
   1426.77490     496.7509     386.0869   1426.77490     496.7509     386.0869
   1426.75964     499.0794     388.2643   1426.75964     499.0794     388.2643
   1426.74438     501.4097     390.9508   1426.74438     501.4097     390.9508
   1426.72913     504.7758     393.1485   1426.72913     504.7758     393.1485
   1426.71387     507.6339     396.1135   1426.71387     507.6339     396.1135
   1426.69861     510.7067     398.4266   1426.69861     510.7067     398.4266
   1426.68335     512.7612     400.0881   1426.68335     512.7612     400.0881
   1426.66809     515.9183     403.5706   1426.66809     515.9183     403.5706
   1426.65283     519.4403     405.5706   1426.65283     519.4403     405.5706
   1426.63757     521.7882     407.6272   1426.63757     521.7882     407.6272
   1426.62231     526.3275     411.5664   1426.62231     526.3275     411.5664
   1426.60706     527.2896     413.0780   1426.60706     527.2896     413.0780
   1426.59180     530.3975     415.9138   1426.59180     530.3975     415.9138
   1426.57654     532.6296     417.9171   1426.57654     532.6296     417.9171
   1426.56128     536.3775     420.3899   1426.56128     536.3775     420.3899
   1426.54602     537.9492     422.5480   1426.54602     537.9492     422.5480
   1426.53076     540.9182     425.4562   1426.53076     540.9182     425.4562
   1426.51550     544.0377     427.6859   1426.51550     544.0377     427.6859
   1426.50024     547.3599     430.2957   1426.50024     547.3599     430.2957
   1426.48499     548.8767     433.1342   1426.48499     548.8767     433.1342
   1426.46973     551.8774     435.0976   1426.46973     551.8774     435.0976
   1426.45447     554.7819     437.9179   1426.45447     554.7819     437.9179
   1426.43921     557.3348     440.1822   1426.43921     557.3348     440.1822
   1426.42395     561.0500     443.0221   1426.42395     561.0500     443.0221
   1426.40869     563.1136     445.0196   1426.40869     563.1136     445.0196
   1426.39343     565.7222     447.9471   1426.39343     565.7222     447.9471
   1426.37817     568.5689     450.8269   1426.37817     568.5689     450.8269
   1426.36292     571.0314     453.6425   1426.36292     571.0314     453.6425
   1426.34766     574.5477     455.6865   1426.34766     574.5477     455.6865
   1426.33240     576.7561     458.1694   1426.33240     576.7561     458.1694
   1426.31714     579.7089     460.1906   1426.31714     579.7089     460.1906
   1426.30188     582.4868     463.0177   1426.30188     582.4868     463.0177
   1426.28662     585.2668     465.0261   1426.28662     585.2668     465.0261
   1426.27136     587.9234     467.8012   1426.27136     587.9234     467.8012
   1426.25610     590.0031     469.7176   1426.25610     590.0031     469.7176
   1426.24084     592.2659     472.8870   1426.24084     592.2659     472.8870
   1426.22559     594.6797     475.6937   1426.22559     594.6797     475.6937
   1426.21033     596.4040     478.0528   1426.21033     596.4040     478.0528
   1426.19507     599.5641     480.5106   1426.19507     599.5641     480.5106
   1426.17981     602.2195     482.2056   1426.17981     602.2195     482.2056
   1426.16455     604.2961     485.1277   1426.16455     604.2961     485.1277
   1426.14929     606.8519     487.3608   1426.14929     606.8519     487.3608
   1426.13403     609.9349     489.4518   1426.13403     609.9349     489.4518
   1426.11877     612.8092     492.4106   1426.11877     612.8092     492.4106
   1426.10352     613.8640     494.2466   1426.10352     613.8640     494.2466
   1426.08826     617.5366     496.8241   1426.08826     617.5366     496.8241
   1426.07300     619.0095     497.9192   1426.07300     619.0095     497.9192
   1426.05774     620.5649     501.5923   1426.05774     620.5649     501.5923
   1426.04248     622.3020     502.9396   1426.04248     622.3020     502.9396
   1426.02722     625.9173     505.9108   1426.02722     625.9173     505.9108
   1426.01196     627.2459     508.3155   1426.01196     627.2459     508.3155
   1425.99670     629.7281     511.8241   1425.99670     629.7281     511.8241
   1425.98145     631.9404     512.8207   1425.98145     631.9404     512.8207
   1425.96619     633.2292     516.3162   1425.96619     633.2292     516.3162
   1425.95093     636.3511     517.5969   1425.95093     636.3511     517.5969
   1425.93567     637.9835     520.5140   1425.93567     637.9835     520.5140
   1425.92041     639.3187     522.7214   1425.92041     639.3187     522.7214
   1425.90515     642.4541     524.9516   1425.90515     642.4541     524.9516
   1425.88989     644.6760     527.6886   1425.88989     644.6760     527.6886
   1425.87463     645.3129     529.4366   1425.87463     645.3129     529.4366
   1425.85938     648.0805     530.9702   1425.85938     648.0805     530.9702
   1425.84412     650.1695     533.6390   1425.84412     650.1695     533.6390
   1425.82886     650.9214     535.9268   1425.82886     650.9214     535.9268
   1425.81360     654.0159     538.5918   1425.81360     654.0159     538.5918
   1425.79834     655.8117     540.0955   1425.79834     655.8117     540.0955
   1425.78308     657.8505     542.2048   1425.78308     657.8505     542.2048
   1425.76782     657.8640     544.9056   1425.76782     657.8640     544.9056
   1425.75256     660.7695     547.2158   1425.75256     660.7695     547.2158
   1425.73730     661.5154     549.2312   1425.73730     661.5154     549.2312
   1425.72205     663.9903     550.2590   1425.72205     663.9903     550.2590
   1425.70679     665.4589     553.2372   1425.70679     665.4589     553.2372
   1425.69153     667.5613     555.6565   1425.69153     667.5613     555.6565
   1425.67627     669.2687     556.5963   1425.67627     669.2687     556.5963
   1425.66101     670.2665     559.7073   1425.66101     670.2665     559.7073
   1425.64575     672.9241     561.7476   1425.64575     672.9241     561.7476
   1425.63049     674.0534     564.1404   1425.63049     674.0534     564.1404
   1425.61523     675.1366     564.3872   1425.61523     675.1366     564.3872
   1425.59998     676.5798     567.7866   1425.59998     676.5798     567.7866
   1425.58472     677.2793     570.3215   1425.58472     677.2793     570.3215
   1425.56946     679.1329     571.2479   1425.56946     679.1329     571.2479
   1425.55420     680.6794     573.8839   1425.55420     680.6794     573.8839
   1425.53894     682.3263     575.7183   1425.53894     682.3263     575.7183
   1425.52368     683.2013     578.3948   1425.52368     683.2013     578.3948
   1425.50842     684.8942     578.8351   1425.50842     684.8942     578.8351
   1425.49316     685.9898     582.2340   1425.49316     685.9898     582.2340
   1425.47791     686.0435     582.6201   1425.47791     686.0435     582.6201
   1425.46265     688.8150     584.2788   1425.46265     688.8150     584.2788
   1425.44739     689.3217     586.4020   1425.44739     689.3217     586.4020
   1425.43213     690.8531     588.9878   1425.43213     690.8531     588.9878
   1425.41687     692.5368     590.3958   1425.41687     692.5368     590.3958
   1425.40161     693.9901     593.4352   1425.40161     693.9901     593.4352
   1425.38635     693.2545     594.0320   1425.38635     693.2545     594.0320
   1425.37109     694.7512     594.7608   1425.37109     694.7512     594.7608
   1425.35583     695.4714     597.8271   1425.35583     695.4714     597.8271
   1425.34058     697.5636     599.2872   1425.34058     697.5636     599.2872
   1425.32532     698.6237     601.3532   1425.32532     698.6237     601.3532
   1425.31006     698.9167     602.9816   1425.31006     698.9167     602.9816
   1425.29480     700.5788     604.7109   1425.29480     700.5788     604.7109
   1425.27954     700.5348     605.6608   1425.27954     700.5348     605.6608
   1425.26428     701.8184     608.0247   1425.26428     701.8184     608.0247
   1425.24902     702.2401     609.5145   1425.24902     702.2401     609.5145
   1425.23376     703.3694     610.5969   1425.23376     703.3694     610.5969
   1425.21851     703.8773     612.3949   1425.21851     703.8773     612.3949
   1425.20325     704.3149     614.5729   1425.20325     704.3149     614.5729
   1425.18799     704.6427     615.7810   1425.18799     704.6427     615.7810
   1425.17273     706.7595     617.9526   1425.17273     706.7595     617.9526
   1425.15747     706.7644     618.9404   1425.15747     706.7644     618.9404
   1425.14221     707.0259     620.2440   1425.14221     707.0259     620.2440
   1425.12695     709.6027     622.3856   1425.12695     709.6027     622.3856
   1425.11169     708.5804     623.5951   1425.11169     708.5804     623.5951
   1425.09644     709.7636     624.4984   1425.09644     709.7636     624.4984
   1425.08118     709.9118     626.0225   1425.08118     709.9118     626.0225
   1425.06592     712.1498     628.1257   1425.06592     712.1498     628.1257
   1425.05066     710.4048     629.9780   1425.05066     710.4048     629.9780
   1425.03540     711.8201     629.8832   1425.03540     711.8201     629.8832
   1425.02014     712.5537     632.2012   1425.02014     712.5537     632.2012
   1425.00488     712.8895     633.9337   1425.00488     712.8895     633.9337
   1424.98962     713.0214     634.8619   1424.98962     713.0214     634.8619
   1424.97437     715.0278     635.6149   1424.97437     715.0278     635.6149
   1424.95911     713.1943     637.9701   1424.95911     713.1943     637.9701
   1424.94385     714.8685     638.5909   1424.94385     714.8685     638.5909
   1424.92859     715.2108     640.7969   1424.92859     715.2108     640.7969
   1424.91333     715.1945     641.1414   1424.91333     715.1945     641.1414
   1424.89807     715.7757     642.0562   1424.89807     715.7757     642.0562
   1424.88281     716.8314     643.2252   1424.88281     716.8314     643.2252
   1424.86755     716.7407     645.1616   1424.86755     716.7407     645.1616
   1424.85229     717.6595     645.6893   1424.85229     717.6595     645.6893
   1424.83704     717.2776     646.4131   1424.83704     717.2776     646.4131
   1424.82178     717.6245     649.0168   1424.82178     717.6245     649.0168
   1424.80652     716.9960     648.9878   1424.80652     716.9960     648.9878
   1424.79126     718.1113     650.4477   1424.79126     718.1113     650.4477
   1424.77600     717.3732     652.0870   1424.77600     717.3732     652.0870
   1424.76074     718.2932     652.6063   1424.76074     718.2932     652.6063
   1424.74548     719.1432     652.3915   1424.74548     719.1432     652.3915
   1424.73022     719.0883     654.9575   1424.73022     719.0883     654.9575
   1424.71497     719.2158     654.5647   1424.71497     719.2158     654.5647
   1424.69971     718.9442     657.4250   1424.69971     718.9442     657.4250
   1424.68445     720.0188     657.5978   1424.68445     720.0188     657.5978
   1424.66919     719.5940     658.4551   1424.66919     719.5940     658.4551
   1424.65393     720.0351     659.3839   1424.65393     720.0351     659.3839
   1424.63867     719.5960     658.9935   1424.63867     719.5960     658.9935
   1424.62341     720.4432     661.2820   1424.62341     720.4432     661.2820
   1424.60815     720.2054     663.0753   1424.60815     720.2054     663.0753
   1424.59290     720.2529     662.3000   1424.59290     720.2529     662.3000
   1424.57764     719.6368     664.4890   1424.57764     719.6368     664.4890
   1424.56238     720.4561     664.6838   1424.56238     720.4561     664.6838
   1424.54712     719.3498     664.7169   1424.54712     719.3498     664.7169
   1424.53186     720.6767     665.1691   1424.53186     720.6767     665.1691
   1424.51660     720.4481     666.4677   1424.51660     720.4481     666.4677
   1424.50134     720.4584     667.2930   1424.50134     720.4584     667.2930
   1424.48608     719.9564     668.0440   1424.48608     719.9564     668.0440
   1424.47083     720.3121     669.8070   1424.47083     720.3121     669.8070
   1424.45557     720.0037     669.1507   1424.45557     720.0037     669.1507
   1424.44031     721.1145     670.3026   1424.44031     721.1145     670.3026
   1424.42505     719.4988     670.9856   1424.42505     719.4988     670.9856
   1424.40979     720.4327     671.9245   1424.40979     720.4327     671.9245
   1424.39453     720.8541     671.3340   1424.39453     720.8541     671.3340
   1424.37927     720.4822     672.9247   1424.37927     720.4822     672.9247
   1424.36401     720.9761     671.9067   1424.36401     720.9761     671.9067
   1424.34875     720.1698     673.8901   1424.34875     720.1698     673.8901
   1424.33350     720.8568     672.4726   1424.33350     720.8568     672.4726
   1424.31824     719.7834     674.9373   1424.31824     719.7834     674.9373
   1424.30298     720.0246     673.7382   1424.30298     720.0246     673.7382
   1424.28772     720.1838     675.1578   1424.28772     720.1838     675.1578
   1424.27246     720.7402     675.4965   1424.27246     720.7402     675.4965
   1424.25720     720.9024     676.6343   1424.25720     720.9024     676.6343
   1424.24194     719.5991     675.1388   1424.24194     719.5991     675.1388
   1424.22668     718.6718     675.5414   1424.22668     718.6718     675.5414
   1424.21143     719.1736     677.2614   1424.21143     719.1736     677.2614
   1424.19617     719.2426     677.1768   1424.19617     719.2426     677.1768
   1424.18091     719.5859     677.2961   1424.18091     719.5859     677.2961
   1424.16565     718.1854     679.0927   1424.16565     718.1854     679.0927
   1424.15039     717.9874     676.9108   1424.15039     717.9874     676.9108
   1424.13513     720.3710     677.4520   1424.13513     720.3710     677.4520
   1424.11987     719.7537     678.9785   1424.11987     719.7537     678.9785
   1424.10461     718.3889     677.5269   1424.10461     718.3889     677.5269
   1424.08936     717.9480     677.3205   1424.08936     717.9480     677.3205
   1424.07410     718.9203     678.7786   1424.07410     718.9203     678.7786
   1424.05884     717.6378     679.0309   1424.05884     717.6378     679.0309
   1424.04358     718.7604     678.1920   1424.04358     718.7604     678.1920
   1424.02832     717.3836     679.0015   1424.02832     717.3836     679.0015
   1424.01306     717.9025     678.8027   1424.01306     717.9025     678.8027
   1423.99780     717.8846     679.7366   1423.99780     717.8846     679.7366
   1423.98254     716.5062     679.0444   1423.98254     716.5062     679.0444
   1423.96729     716.9630     678.3523   1423.96729     716.9630     678.3523
   1423.95203     716.8284     679.2212   1423.95203     716.8284     679.2212
   1423.93677     716.1643     679.3660   1423.93677     716.1643     679.3660
   1423.92151     715.3157     678.9396   1423.92151     715.3157     678.9396
   1423.90625     716.2017     679.1387   1423.90625     716.2017     679.1387
   1423.89099     715.0231     678.2477   1423.89099     715.0231     678.2477
   1423.87573     715.7078     680.0874   1423.87573     715.7078     680.0874
   1423.86047     715.9760     677.7903   1423.86047     715.9760     677.7903
   1423.84521     715.5931     677.4453   1423.84521     715.5931     677.4453
   1423.82996     715.1145     678.4157   1423.82996     715.1145     678.4157
   1423.81470     714.4586     678.4683   1423.81470     714.4586     678.4683
   1423.79944     715.1852     677.3403   1423.79944     715.1852     677.3403
   1423.78418     714.7165     676.6051   1423.78418     714.7165     676.6051
   1423.76892     713.9805     677.8668   1423.76892     713.9805     677.8668
   1423.75366     715.2907     677.4332   1423.75366     715.2907     677.4332
   1423.73840     714.1399     675.6876   1423.73840     714.1399     675.6876
   1423.72314     712.0931     676.4082   1423.72314     712.0931     676.4082
   1423.70789     713.0724     675.9888   1423.70789     713.0724     675.9888
   1423.69263     712.8102     675.2355   1423.69263     712.8102     675.2355
   1423.67737     713.0914     674.1540   1423.67737     713.0914     674.1540
   1423.66211     711.8799     674.4088   1423.66211     711.8799     674.4088
   1423.64685     711.8652     673.5759   1423.64685     711.8652     673.5759
   1423.63159     712.2339     673.4034   1423.63159     712.2339     673.4034
   1423.61633     711.8961     672.6929   1423.61633     711.8961     672.6929
   1423.60107     710.5649     672.3886   1423.60107     710.5649     672.3886
   1423.58582     712.1191     672.1816   1423.58582     712.1191     672.1816
   1423.57056     712.1631     671.0833   1423.57056     712.1631     671.0833
   1423.55530     710.9534     671.1816   1423.55530     710.9534     671.1816
   1423.54004     709.5323     670.4594   1423.54004     709.5323     670.4594
   1423.52478     710.9896     669.6866   1423.52478     710.9896     669.6866
   1423.50952     710.9698     669.4180   1423.50952     710.9698     669.4180
   1423.49426     709.9677     668.4534   1423.49426     709.9677     668.4534
   1423.47900     709.7047     667.8239   1423.47900     709.7047     667.8239
   1423.46375     708.5015     667.4492   1423.46375     708.5015     667.4492
   1423.44849     709.3192     665.8930   1423.44849     709.3192     665.8930
   1423.43323     709.0723     666.6371   1423.43323     709.0723     666.6371
   1423.41797     707.8911     664.2065   1423.41797     707.8911     664.2065
   1423.40271     708.6504     664.9907   1423.40271     708.6504     664.9907
   1423.38745     708.2883     662.7991   1423.38745     708.2883     662.7991
   1423.37219     709.1452     663.5303   1423.37219     709.1452     663.5303
   1423.35693     708.3953     662.6082   1423.35693     708.3953     662.6082
   1423.34167     707.4348     660.4760   1423.34167     707.4348     660.4760
   1423.32642     707.3691     660.9820   1423.32642     707.3691     660.9820
   1423.31116     707.0224     659.2444   1423.31116     707.0224     659.2444
   1423.29590     705.8127     658.4570   1423.29590     705.8127     658.4570
   1423.28064     706.0917     658.1547   1423.28064     706.0917     658.1547
   1423.26538     706.6285     656.1431   1423.26538     706.6285     656.1431
   1423.25012     705.7310     656.7605   1423.25012     705.7310     656.7605
   1423.23486     705.5884     654.6127   1423.23486     705.5884     654.6127
   1423.21960     704.7837     654.2886   1423.21960     704.7837     654.2886
   1423.20435     704.4443     654.3968   1423.20435     704.4443     654.3968
   1423.18909     703.9394     653.1297   1423.18909     703.9394     653.1297
   1423.17383     703.9531     651.2302   1423.17383     703.9531     651.2302
   1423.15857     703.8922     649.9276   1423.15857     703.8922     649.9276
   1423.14331     703.3101     649.8751   1423.14331     703.3101     649.8751
   1423.12805     703.1840     648.8220   1423.12805     703.1840     648.8220
   1423.11279     703.9838     647.8723   1423.11279     703.9838     647.8723
   1423.09753     703.9163     645.1368   1423.09753     703.9163     645.1368
   1423.08228     702.8106     646.4298   1423.08228     702.8106     646.4298
   1423.06702     702.3300     645.0961   1423.06702     702.3300     645.0961
   1423.05176     702.5750     642.2875   1423.05176     702.5750     642.2875
   1423.03650     701.1222     643.9984   1423.03650     701.1222     643.9984
   1423.02124     702.3944     640.7210   1423.02124     702.3944     640.7210
   1423.00598     702.2419     639.4474   1423.00598     702.2419     639.4474
   1422.99072     702.5789     640.1349   1422.99072     702.5789     640.1349
   1422.97546     700.8968     639.4276   1422.97546     700.8968     639.4276
   1422.96021     700.3660     637.0087   1422.96021     700.3660     637.0087
   1422.94495     700.5611     636.4114   1422.94495     700.5611     636.4114
   1422.92969     700.9606     634.8014   1422.92969     700.9606     634.8014
   1422.91443     699.8094     633.5173   1422.91443     699.8094     633.5173
   1422.89917     699.5468     631.7631   1422.89917     699.5468     631.7631
   1422.88391     698.6525     631.6472   1422.88391     698.6525     631.6472
   1422.86865     699.6216     630.4216   1422.86865     699.6216     630.4216
   1422.85339     697.8389     627.8843   1422.85339     697.8389     627.8843
   1422.83813     698.8923     627.1874   1422.83813     698.8923     627.1874
   1422.82288     697.8987     626.3229   1422.82288     697.8987     626.3229
   1422.80762     698.2145     624.7050   1422.80762     698.2145     624.7050
   1422.79236     698.4874     623.2661   1422.79236     698.4874     623.2661
   1422.77710     696.9338     623.1671   1422.77710     696.9338     623.1671
   1422.76184     697.4016     620.6593   1422.76184     697.4016     620.6593
   1422.74658     697.2447     620.6816   1422.74658     697.2447     620.6816
   1422.73132     696.2496     618.9647   1422.73132     696.2496     618.9647
   1422.71606     696.1489     617.5560   1422.71606     696.1489     617.5560
   1422.70081     695.4666     616.5632   1422.70081     695.4666     616.5632
   1422.68555     696.0640     614.8250   1422.68555     696.0640     614.8250
   1422.67029     695.4001     613.5847   1422.67029     695.4001     613.5847
   1422.65503     694.5742     612.6395   1422.65503     694.5742     612.6395
   1422.63977     694.9568     611.2900   1422.63977     694.9568     611.2900
   1422.62451     694.4208     610.3557   1422.62451     694.4208     610.3557
   1422.60925     695.4001     607.9536   1422.60925     695.4001     607.9536
   1422.59399     694.2328     607.3113   1422.59399     694.2328     607.3113
   1422.57874     693.9160     605.5524   1422.57874     693.9160     605.5524
   1422.56348     692.9710     604.8657   1422.56348     692.9710     604.8657
   1422.54822     693.9443     603.1021   1422.54822     693.9443     603.1021
   1422.53296     693.5227     601.2567   1422.53296     693.5227     601.2567
   1422.51770     692.5297     600.4205   1422.51770     692.5297     600.4205
   1422.50244     692.7019     599.4586   1422.50244     692.7019     599.4586
   1422.48718     693.0688     596.7426   1422.48718     693.0688     596.7426
   1422.47192     692.0732     596.0915   1422.47192     692.0732     596.0915
   1422.45667     691.8035     595.0295   1422.45667     691.8035     595.0295
   1422.44141     691.9700     594.0450   1422.44141     691.9700     594.0450
   1422.42615     690.7625     592.5726   1422.42615     690.7625     592.5726
   1422.41089     691.4091     590.4043   1422.41089     691.4091     590.4043
   1422.39563     690.6193     588.5384   1422.39563     690.6193     588.5384
   1422.38037     690.3773     588.7153   1422.38037     690.3773     588.7153
   1422.36511     690.0613     586.9229   1422.36511     690.0613     586.9229
   1422.34985     691.4707     585.0489   1422.34985     691.4707     585.0489
   1422.33459     689.5364     584.1644   1422.33459     689.5364     584.1644
   1422.31934     689.2289     582.4697   1422.31934     689.2289     582.4697
   1422.30408     689.6336     581.3062   1422.30408     689.6336     581.3062
   1422.28882     687.9706     578.9235   1422.28882     687.9706     578.9235
   1422.27356     687.9155     577.8885   1422.27356     687.9155     577.8885
   1422.25830     687.4072     576.9070   1422.25830     687.4072     576.9070
   1422.24304     688.4237     576.1765   1422.24304     688.4237     576.1765
   1422.22778     687.5720     573.9394   1422.22778     687.5720     573.9394
   1422.21252     688.4658     573.8096   1422.21252     688.4658     573.8096
   1422.19727     687.1743     571.7823   1422.19727     687.1743     571.7823
   1422.18201     687.2888     570.4811   1422.18201     687.2888     570.4811
   1422.16675     687.6176     569.4044   1422.16675     687.6176     569.4044
   1422.15149     688.1163     567.8114   1422.15149     688.1163     567.8114
   1422.13623     686.7360     567.3389   1422.13623     686.7360     567.3389
   1422.12097     685.4797     564.8586   1422.12097     685.4797     564.8586
   1422.10571     686.2041     563.9003   1422.10571     686.2041     563.9003
   1422.09045     684.5418     560.9262   1422.09045     684.5418     560.9262
   1422.07520     685.3603     560.7298   1422.07520     685.3603     560.7298
   1422.05994     685.2698     559.4668   1422.05994     685.2698     559.4668
   1422.04468     685.3136     557.8121   1422.04468     685.3136     557.8121
   1422.02942     685.6613     556.5024   1422.02942     685.6613     556.5024
   1422.01416     685.0519     555.4715   1422.01416     685.0519     555.4715
   1421.99890     684.8954     553.9554   1421.99890     684.8954     553.9554
   1421.98364     683.8726     552.5532   1421.98364     683.8726     552.5532
   1421.96838     683.7656     551.8467   1421.96838     683.7656     551.8467
   1421.95312     683.6509     549.9230   1421.95312     683.6509     549.9230
   1421.93787     684.5969     548.7073   1421.93787     684.5969     548.7073
   1421.92261     682.8557     546.4898   1421.92261     682.8557     546.4898
   1421.90735     682.1277     545.3035   1421.90735     682.1277     545.3035
   1421.89209     682.5149     544.9518   1421.89209     682.5149     544.9518
   1421.87683     681.6028     542.6594   1421.87683     681.6028     542.6594
   1421.86157     681.6703     541.4656   1421.86157     681.6703     541.4656
   1421.84631     681.3098     540.5256   1421.84631     681.3098     540.5256
   1421.83105     680.5735     539.0488   1421.83105     680.5735     539.0488
   1421.81580     681.1801     537.0836   1421.81580     681.1801     537.0836
   1421.80054     680.7747     536.7731   1421.80054     680.7747     536.7731
   1421.78528     679.6287     535.2957   1421.78528     679.6287     535.2957
   1421.77002     680.6730     533.4690   1421.77002     680.6730     533.4690
   1421.75476     680.4702     533.5577   1421.75476     680.4702     533.5577
   1421.73950     679.8851     530.7316   1421.73950     679.8851     530.7316
   1421.72424     678.9093     529.7348   1421.72424     678.9093     529.7348
   1421.70898     678.6766     527.9769   1421.70898     678.6766     527.9769
   1421.69373     678.8489     526.4943   1421.69373     678.8489     526.4943
   1421.67847     677.6309     525.6581   1421.67847     677.6309     525.6581
   1421.66321     678.4075     525.7325   1421.66321     678.4075     525.7325
   1421.64795     678.2277     524.1476   1421.64795     678.2277     524.1476
   1421.63269     677.1203     521.8290   1421.63269     677.1203     521.8290
   1421.61743     676.9016     521.1263   1421.61743     676.9016     521.1263
   1421.60217     677.4327     519.2584   1421.60217     677.4327     519.2584
   1421.58691     677.2190     518.2162   1421.58691     677.2190     518.2162
   1421.57166     676.7636     516.7637   1421.57166     676.7636     516.7637
   1421.55640     677.1711     514.6132   1421.55640     677.1711     514.6132
   1421.54114     676.3181     513.7933   1421.54114     676.3181     513.7933
   1421.52588     676.7776     513.3138   1421.52588     676.7776     513.3138
   1421.51062     675.8752     511.6508   1421.51062     675.8752     511.6508
   1421.49536     674.2574     510.6095   1421.49536     674.2574     510.6095
   1421.48010     675.2221     508.6457   1421.48010     675.2221     508.6457
   1421.46484     675.2415     507.8299   1421.46484     675.2415     507.8299
   1421.44958     673.7101     506.3256   1421.44958     673.7101     506.3256
   1421.43433     674.3639     505.4526   1421.43433     674.3639     505.4526
   1421.41907     674.4661     504.7863   1421.41907     674.4661     504.7863
   1421.40381     674.1495     502.9904   1421.40381     674.1495     502.9904
   1421.38855     674.3190     502.1542   1421.38855     674.3190     502.1542
   1421.37329     673.2322     500.6066   1421.37329     673.2322     500.6066
   1421.35803     672.9445     499.3812   1421.35803     672.9445     499.3812
   1421.34277     672.7122     497.8647   1421.34277     672.7122     497.8647
   1421.32751     672.7110     497.3823   1421.32751     672.7110     497.3823
   1421.31226     671.8828     495.8094   1421.31226     671.8828     495.8094
   1421.29700     672.0649     494.6837   1421.29700     672.0649     494.6837
   1421.28174     671.8051     492.7266   1421.28174     671.8051     492.7266
   1421.26648     671.2311     492.2835   1421.26648     671.2311     492.2835
   1421.25122     672.4278     491.0187   1421.25122     672.4278     491.0187
   1421.23596     669.7116     489.6884   1421.23596     669.7116     489.6884
   1421.22070     670.3271     488.1090   1421.22070     670.3271     488.1090
   1421.20544     668.8624     488.3143   1421.20544     668.8624     488.3143
   1421.19019     669.5745     486.2660   1421.19019     669.5745     486.2660
   1421.17493     668.4548     484.7498   1421.17493     668.4548     484.7498
   1421.15967     668.9459     484.0813   1421.15967     668.9459     484.0813
   1421.14441     668.7294     482.4708   1421.14441     668.7294     482.4708
   1421.12915     667.9810     481.9889   1421.12915     667.9810     481.9889
   1421.11389     668.1540     481.2921   1421.11389     668.1540     481.2921
   1421.09863     667.3555     479.1596   1421.09863     667.3555     479.1596
   1421.08337     667.7776     478.1154   1421.08337     667.7776     478.1154
   1421.06812     668.4772     477.7337   1421.06812     668.4772     477.7337
   1421.05286     667.0540     476.4332   1421.05286     667.0540     476.4332
   1421.03760     667.2563     475.5010   1421.03760     667.2563     475.5010
   1421.02234     666.5903     474.1446   1421.02234     666.5903     474.1446
   1421.00708     666.5930     473.7961   1421.00708     666.5930     473.7961
   1420.99182     666.0002     472.3409   1420.99182     666.0002     472.3409
   1420.97656     666.3506     471.0846   1420.97656     666.3506     471.0846
   1420.96130     666.7551     470.4427   1420.96130     666.7551     470.4427
   1420.94604     665.5522     468.8813   1420.94604     665.5522     468.8813
   1420.93079     665.5350     468.8304   1420.93079     665.5350     468.8304
   1420.91553     664.5132     467.2231   1420.91553     664.5132     467.2231
   1420.90027     664.8275     466.4670   1420.90027     664.8275     466.4670
   1420.88501     664.1364     465.5139   1420.88501     664.1364     465.5139
   1420.86975     664.2294     464.2768   1420.86975     664.2294     464.2768
   1420.85449     663.6243     462.9333   1420.85449     663.6243     462.9333
   1420.83923     664.5228     462.7763   1420.83923     664.5228     462.7763
   1420.82397     663.9991     461.5558   1420.82397     663.9991     461.5558
   1420.80872     663.5608     460.3885   1420.80872     663.5608     460.3885
   1420.79346     664.0133     460.3559   1420.79346     664.0133     460.3559
   1420.77820     664.9646     459.5179   1420.77820     664.9646     459.5179
   1420.76294     664.1453     458.4719   1420.76294     664.1453     458.4719
   1420.74768     663.4859     458.4433   1420.74768     663.4859     458.4433
   1420.73242     664.3405     457.3411   1420.73242     664.3405     457.3411
   1420.71716     664.3108     456.2780   1420.71716     664.3108     456.2780
   1420.70190     663.8564     455.8121   1420.70190     663.8564     455.8121
   1420.68665     663.5926     454.6571   1420.68665     663.5926     454.6571
   1420.67139     663.2718     453.3301   1420.67139     663.2718     453.3301
   1420.65613     662.5239     452.4785   1420.65613     662.5239     452.4785
   1420.64087     662.8452     451.3822   1420.64087     662.8452     451.3822
   1420.62561     662.2653     450.7785   1420.62561     662.2653     450.7785
   1420.61035     663.9431     450.3196   1420.61035     663.9431     450.3196
   1420.59509     663.2805     449.1264   1420.59509     663.2805     449.1264
   1420.57983     664.9400     448.8783   1420.57983     664.9400     448.8783
   1420.56458     664.7833     448.9032   1420.56458     664.7833     448.9032
   1420.54932     665.3600     448.9017   1420.54932     665.3600     448.9017
   1420.53406     666.1993     449.2786   1420.53406     666.1993     449.2786
   1420.51880     667.9656     449.3683   1420.51880     667.9656     449.3683
   1420.50354     667.3942     448.7877   1420.50354     667.3942     448.7877
   1420.48828     667.7949     447.4735   1420.48828     667.7949     447.4735
   1420.47302     667.6501     446.4423   1420.47302     667.6501     446.4423
   1420.45776     665.2480     445.2219   1420.45776     665.2480     445.2219
   1420.44250     665.6556     442.7530   1420.44250     665.6556     442.7530
   1420.42725     664.4921     441.9137   1420.42725     664.4921     441.9137
   1420.41199     663.7602     441.7888   1420.41199     663.7602     441.7888
   1420.39673     663.7390     441.5669   1420.39673     663.7390     441.5669
   1420.38147     665.0688     440.6246   1420.38147     665.0688     440.6246
   1420.36621     665.5055     440.4384   1420.36621     665.5055     440.4384
   1420.35095     666.2035     440.1434   1420.35095     666.2035     440.1434
   1420.33569     668.0305     441.0348   1420.33569     668.0305     441.0348
   1420.32043     671.0912     443.0441   1420.32043     671.0912     443.0441
   1420.30518     677.2869     445.6666   1420.30518     677.2869     445.6666
   1420.28992     685.5292     449.7131   1420.28992     685.5292     449.7131
   1420.27466     696.8091     456.1473   1420.27466     696.8091     456.1473
   1420.25940     729.2669     474.8951   1420.25940     729.2669     474.8951
   1420.24414     836.0917     541.7175   1420.24414     836.0917     541.7175
   1420.22888    1154.2228     742.4468   1420.22888    1154.2228     742.4468
   1420.21362    1269.8560     813.9952   1420.21362    1269.8560     813.9952
   1420.19836    1090.6567     698.8941   1420.19836    1090.6567     698.8941
   1420.18311    1133.0895     724.7314   1420.18311    1133.0895     724.7314
   1420.16785    1500.6847     952.8973   1420.16785    1500.6847     952.8973
   1420.15259    1961.3873    1238.6539   1420.15259    1961.3873    1238.6539
   1420.13733    1883.2444    1191.1925   1420.13733    1883.2444    1191.1925
   1420.12207    1463.5146     927.3187   1420.12207    1463.5146     927.3187
   1420.10681    1053.5239     671.0836   1420.10681    1053.5239     671.0836
   1420.09155    1025.6173     652.5268   1420.09155    1025.6173     652.5268
   1420.07629    1225.6743     774.8998   1420.07629    1225.6743     774.8998
   1420.06104    1374.1836     869.3926   1420.06104    1374.1836     869.3926
   1420.04578    1417.2966     894.6328   1420.04578    1417.2966     894.6328
   1420.03052    1277.2434     805.6337   1420.03052    1277.2434     805.6337
   1420.01526    1152.6306     727.3123   1420.01526    1152.6306     727.3123
   1420.00000    1214.8627     765.0515   1420.00000    1214.8627     765.0515
   1419.98474    1277.0942     802.7907   1419.98474    1277.0942     802.7907
   1419.96948    1271.1372     796.9894   1419.96948    1271.1372     796.9894
   1419.95422    1236.4703     775.7576   1419.95422    1236.4703     775.7576
   1419.93896    1361.0144     850.7531   1419.93896    1361.0144     850.7531
   1419.92371    1503.4409     938.2737   1419.92371    1503.4409     938.2737
   1419.90845    1455.5438     906.2621   1419.90845    1455.5438     906.2621
   1419.89319    1308.1046     815.0066   1419.89319    1308.1046     815.0066
   1419.87793    1140.2396     712.5383   1419.87793    1140.2396     712.5383
   1419.86267     979.4877     613.6751   1419.86267     979.4877     613.6751
   1419.84741     860.8457     540.9141   1419.84741     860.8457     540.9141
   1419.83215     796.5728     501.1642   1419.83215     796.5728     501.1642
   1419.81689     753.6938     474.2612   1419.81689     753.6938     474.2612
   1419.80164     725.5194     457.9858   1419.80164     725.5194     457.9858
   1419.78638     707.1286     446.0882   1419.78638     707.1286     446.0882
   1419.77112     693.9332     437.2431   1419.77112     693.9332     437.2431
   1419.75586     685.4438     430.6461   1419.75586     685.4438     430.6461
   1419.74060     678.4261     426.7094   1419.74060     678.4261     426.7094
   1419.72534     674.2304     423.9059   1419.72534     674.2304     423.9059
   1419.71008     669.5050     420.5779   1419.71008     669.5050     420.5779
   1419.69482     667.0627     418.6411   1419.69482     667.0627     418.6411
   1419.67957     663.4433     415.5017   1419.67957     663.4433     415.5017
   1419.66431     661.7162     414.2433   1419.66431     661.7162     414.2433
   1419.64905     661.1991     412.8549   1419.64905     661.1991     412.8549
   1419.63379     659.0258     412.2768   1419.63379     659.0258     412.2768
   1419.61853     659.9781     412.2328   1419.61853     659.9781     412.2328
   1419.60327     659.6403     411.3574   1419.60327     659.6403     411.3574
   1419.58801     658.9578     411.2607   1419.58801     658.9578     411.2607
   1419.57275     659.4998     410.5611   1419.57275     659.4998     410.5611
   1419.55750     659.6542     410.2052   1419.55750     659.6542     410.2052
   1419.54224     660.0689     410.3813   1419.54224     660.0689     410.3813
   1419.52698     660.0080     410.0147   1419.52698     660.0080     410.0147
   1419.51172     660.5458     410.1313   1419.51172     660.5458     410.1313
   1419.49646     660.4761     409.4161   1419.49646     660.4761     409.4161
   1419.48120     662.0305     408.9729   1419.48120     662.0305     408.9729
   1419.46594     661.1129     408.8286   1419.46594     661.1129     408.8286
   1419.45068     662.0765     409.5989   1419.45068     662.0765     409.5989
   1419.43542     661.0267     408.7290   1419.43542     661.0267     408.7290
   1419.42017     661.5884     408.6421   1419.42017     661.5884     408.6421
   1419.40491     662.5600     408.1031   1419.40491     662.5600     408.1031
   1419.38965     663.5511     408.0909   1419.38965     663.5511     408.0909
   1419.37439     663.3030     408.3959   1419.37439     663.3030     408.3959
   1419.35913     664.3837     408.2452   1419.35913     664.3837     408.2452
   1419.34387     663.9552     408.2171   1419.34387     663.9552     408.2171
   1419.32861     664.0500     408.1507   1419.32861     664.0500     408.1507
   1419.31335     664.8864     408.4543   1419.31335     664.8864     408.4543
   1419.29810     666.6472     408.6682   1419.29810     666.6472     408.6682
   1419.28284     666.5845     408.3161   1419.28284     666.5845     408.3161
   1419.26758     666.1706     408.7340   1419.26758     666.1706     408.7340
   1419.25232     667.1265     408.8730   1419.25232     667.1265     408.8730
   1419.23706     666.0930     409.0317   1419.23706     666.0930     409.0317
   1419.22180     667.9963     408.7230   1419.22180     667.9963     408.7230
   1419.20654     668.1656     408.4201   1419.20654     668.1656     408.4201
   1419.19128     668.2290     408.8391   1419.19128     668.2290     408.8391
   1419.17603     669.9950     408.7486   1419.17603     669.9950     408.7486
   1419.16077     669.3587     409.2023   1419.16077     669.3587     409.2023
   1419.14551     670.5782     408.7731   1419.14551     670.5782     408.7731
   1419.13025     671.4864     409.0945   1419.13025     671.4864     409.0945
   1419.11499     671.3685     409.3591   1419.11499     671.3685     409.3591
   1419.09973     672.9707     409.1988   1419.09973     672.9707     409.1988
   1419.08447     673.1949     409.2846   1419.08447     673.1949     409.2846
   1419.06921     673.7075     409.6713   1419.06921     673.7075     409.6713
   1419.05396     674.3509     409.4655   1419.05396     674.3509     409.4655
   1419.03870     674.2433     408.8748   1419.03870     674.2433     408.8748
   1419.02344     675.2531     410.2241   1419.02344     675.2531     410.2241
   1419.00818     677.4597     410.2340   1419.00818     677.4597     410.2340
   1418.99292     676.8006     410.2506   1418.99292     676.8006     410.2506
   1418.97766     678.0265     410.3654   1418.97766     678.0265     410.3654
   1418.96240     677.7578     411.2296   1418.96240     677.7578     411.2296
   1418.94714     680.2733     410.6590   1418.94714     680.2733     410.6590
   1418.93188     679.7552     410.4837   1418.93188     679.7552     410.4837
   1418.91663     680.5412     411.3218   1418.91663     680.5412     411.3218
   1418.90137     681.5262     411.7878   1418.90137     681.5262     411.7878
   1418.88611     682.0238     411.6135   1418.88611     682.0238     411.6135
   1418.87085     683.2062     412.0565   1418.87085     683.2062     412.0565
   1418.85559     683.1336     412.1969   1418.85559     683.1336     412.1969
   1418.84033     684.6356     412.9132   1418.84033     684.6356     412.9132
   1418.82507     684.6592     413.4974   1418.82507     684.6592     413.4974
   1418.80981     686.2319     413.3542   1418.80981     686.2319     413.3542
   1418.79456     687.0970     413.1670   1418.79456     687.0970     413.1670
   1418.77930     687.1968     413.6336   1418.77930     687.1968     413.6336
   1418.76404     688.6017     414.0003   1418.76404     688.6017     414.0003
   1418.74878     688.0435     415.1968   1418.74878     688.0435     415.1968
   1418.73352     689.1285     414.4391   1418.73352     689.1285     414.4391
   1418.71826     691.0646     415.1683   1418.71826     691.0646     415.1683
   1418.70300     691.1611     415.4012   1418.70300     691.1611     415.4012
   1418.68774     694.0737     415.5064   1418.68774     694.0737     415.5064
   1418.67249     692.5031     416.4839   1418.67249     692.5031     416.4839
   1418.65723     695.3093     416.4577   1418.65723     695.3093     416.4577
   1418.64197     695.0745     416.8543   1418.64197     695.0745     416.8543
   1418.62671     695.2091     416.7879   1418.62671     695.2091     416.7879
   1418.61145     696.6818     417.8747   1418.61145     696.6818     417.8747
   1418.59619     697.5386     418.2878   1418.59619     697.5386     418.2878
   1418.58093     696.9372     418.4246   1418.58093     696.9372     418.4246
   1418.56567     698.4055     418.3637   1418.56567     698.4055     418.3637
   1418.55042     700.1700     419.6511   1418.55042     700.1700     419.6511
   1418.53516     701.3672     420.4696   1418.53516     701.3672     420.4696
   1418.51990     702.3543     420.4138   1418.51990     702.3543     420.4138
   1418.50464     703.2446     420.6768   1418.50464     703.2446     420.6768
   1418.48938     704.4526     420.9414   1418.48938     704.4526     420.9414
   1418.47412     706.2928     421.8928   1418.47412     706.2928     421.8928
   1418.45886     705.5464     422.2400   1418.45886     705.5464     422.2400
   1418.44360     708.0159     423.1237   1418.44360     708.0159     423.1237
   1418.42834     707.9545     422.7289   1418.42834     707.9545     422.7289
   1418.41309     709.0911     424.0361   1418.41309     709.0911     424.0361
   1418.39783     710.8350     423.8659   1418.39783     710.8350     423.8659
   1418.38257     711.3199     424.2596   1418.38257     711.3199     424.2596
   1418.36731     713.4509     424.7793   1418.36731     713.4509     424.7793
   1418.35205     713.1746     425.6490   1418.35205     713.1746     425.6490
   1418.33679     715.4766     425.7119   1418.33679     715.4766     425.7119
   1418.32153     715.6057     426.1455   1418.32153     715.6057     426.1455
   1418.30627     717.3793     427.6057   1418.30627     717.3793     427.6057
   1418.29102     718.4242     427.3400   1418.29102     718.4242     427.3400
   1418.27576     719.8546     428.0034   1418.27576     719.8546     428.0034
   1418.26050     720.3059     428.9883   1418.26050     720.3059     428.9883
   1418.24524     721.7304     429.5917   1418.24524     721.7304     429.5917
   1418.22998     723.1586     429.1921   1418.22998     723.1586     429.1921
   1418.21472     723.8585     430.8490   1418.21472     723.8585     430.8490
   1418.19946     724.4499     430.9489   1418.19946     724.4499     430.9489
   1418.18420     726.6070     431.2316   1418.18420     726.6070     431.2316
   1418.16895     727.1302     432.2906   1418.16895     727.1302     432.2906
   1418.15369     728.4419     432.7571   1418.15369     728.4419     432.7571
   1418.13843     729.5110     433.1970   1418.13843     729.5110     433.1970
   1418.12317     731.4827     433.6109   1418.12317     731.4827     433.6109
   1418.10791     730.7874     434.1276   1418.10791     730.7874     434.1276
   1418.09265     733.5361     435.3203   1418.09265     733.5361     435.3203
   1418.07739     733.0782     435.2702   1418.07739     733.0782     435.2702
   1418.06213     735.7234     436.7083   1418.06213     735.7234     436.7083
   1418.04688     736.2905     437.1599   1418.04688     736.2905     437.1599
   1418.03162     738.1264     438.0601   1418.03162     738.1264     438.0601
   1418.01636     737.5314     437.2956   1418.01636     737.5314     437.2956
   1418.00110     739.9778     438.9895   1418.00110     739.9778     438.9895
   1417.98584     741.7262     439.5848   1417.98584     741.7262     439.5848
   1417.97058     743.8243     439.9730   1417.97058     743.8243     439.9730
   1417.95532     743.8419     440.8466   1417.95532     743.8419     440.8466
   1417.94006     744.6512     441.2262   1417.94006     744.6512     441.2262
   1417.92480     746.4871     441.6273   1417.92480     746.4871     441.6273
   1417.90955     747.6624     441.9961   1417.90955     747.6624     441.9961
   1417.89429     748.1022     443.5862   1417.89429     748.1022     443.5862
   1417.87903     750.1094     443.8500   1417.87903     750.1094     443.8500
   1417.86377     751.7845     444.9657   1417.86377     751.7845     444.9657
   1417.84851     750.8602     445.7233   1417.84851     750.8602     445.7233
   1417.83325     754.1408     446.2493   1417.83325     754.1408     446.2493
   1417.81799     754.6959     446.5694   1417.81799     754.6959     446.5694
   1417.80273     756.8745     446.5203   1417.80273     756.8745     446.5203
   1417.78748     757.1385     447.7958   1417.78748     757.1385     447.7958
   1417.77222     759.3311     448.5375   1417.77222     759.3311     448.5375
   1417.75696     759.8950     449.5028   1417.75696     759.8950     449.5028
   1417.74170     760.6797     449.5669   1417.74170     760.6797     449.5669
   1417.72644     763.5585     451.0272   1417.72644     763.5585     451.0272
   1417.71118     762.3137     450.9086   1417.71118     762.3137     450.9086
   1417.69592     764.7109     451.6896   1417.69592     764.7109     451.6896
   1417.68066     765.0952     452.6143   1417.68066     765.0952     452.6143
   1417.66541     767.3116     452.6606   1417.66541     767.3116     452.6606
   1417.65015     767.4732     453.5338   1417.65015     767.4732     453.5338
   1417.63489     769.3203     454.0634   1417.63489     769.3203     454.0634
   1417.61963     770.6578     455.1962   1417.61963     770.6578     455.1962
   1417.60437     771.3541     455.2741   1417.60437     771.3541     455.2741
   1417.58911     771.7440     456.6682   1417.58911     771.7440     456.6682
   1417.57385     774.4584     456.8685   1417.57385     774.4584     456.8685
   1417.55859     775.7090     457.4120   1417.55859     775.7090     457.4120
   1417.54333     775.1193     457.9677   1417.54333     775.1193     457.9677
   1417.52808     778.2295     458.9880   1417.52808     778.2295     458.9880
   1417.51282     780.0565     460.5161   1417.51282     780.0565     460.5161
   1417.49756     780.5612     459.9388   1417.49756     780.5612     459.9388
   1417.48230     780.9827     460.2730   1417.48230     780.9827     460.2730
   1417.46704     782.2087     461.4692   1417.46704     782.2087     461.4692
   1417.45178     784.5596     462.5909   1417.45178     784.5596     462.5909
   1417.43652     785.2458     462.8137   1417.43652     785.2458     462.8137
   1417.42126     786.0995     463.6539   1417.42126     786.0995     463.6539
   1417.40601     787.7417     464.2515   1417.40601     787.7417     464.2515
   1417.39075     787.2557     464.4860   1417.39075     787.2557     464.4860
   1417.37549     789.6707     465.7115   1417.37549     789.6707     465.7115
   1417.36023     789.9249     466.0571   1417.36023     789.9249     466.0571
   1417.34497     790.5124     466.0217   1417.34497     790.5124     466.0217
   1417.32971     790.7665     466.9046   1417.32971     790.7665     466.9046
   1417.31445     792.6791     468.5981   1417.31445     792.6791     468.5981
   1417.29919     793.1451     468.3568   1417.29919     793.1451     468.3568
   1417.28394     794.8260     468.8136   1417.28394     794.8260     468.8136
   1417.26868     796.3815     469.7628   1417.26868     796.3815     469.7628
   1417.25342     796.6333     470.1824   1417.25342     796.6333     470.1824
   1417.23816     798.4943     470.6160   1417.23816     798.4943     470.6160
   1417.22290     799.9222     472.4076   1417.22290     799.9222     472.4076
   1417.20764     800.8178     471.8015   1417.20764     800.8178     471.8015
   1417.19238     800.8640     472.0423   1417.19238     800.8640     472.0423
   1417.17712     802.0222     472.7484   1417.17712     802.0222     472.7484
   1417.16187     804.1724     473.1433   1417.16187     804.1724     473.1433
   1417.14661     803.0688     474.0007   1417.14661     803.0688     474.0007
   1417.13135     805.6320     474.4986   1417.13135     805.6320     474.4986
   1417.11609     805.7265     474.5860   1417.11609     805.7265     474.5860
   1417.10083     807.4297     475.0555   1417.10083     807.4297     475.0555
   1417.08557     808.4059     476.6779   1417.08557     808.4059     476.6779
   1417.07031     808.4671     476.7895   1417.07031     808.4671     476.7895
   1417.05505     807.6635     476.7648   1417.05505     807.6635     476.7648
   1417.03979     810.4254     476.6289   1417.03979     810.4254     476.6289
   1417.02454     811.3556     478.3376   1417.02454     811.3556     478.3376
   1417.00928     811.2025     477.8463   1417.00928     811.2025     477.8463
   1416.99402     812.6637     479.0790   1416.99402     812.6637     479.0790
   1416.97876     813.8399     479.2955   1416.97876     813.8399     479.2955
   1416.96350     814.4715     479.7523   1416.96350     814.4715     479.7523
   1416.94824     814.6356     480.1667   1416.94824     814.6356     480.1667
   1416.93298     814.2892     481.3484   1416.93298     814.2892     481.3484
   1416.91772     816.5316     480.3541   1416.91772     816.5316     480.3541
   1416.90247     816.5829     481.0724   1416.90247     816.5829     481.0724
   1416.88721     817.3730     480.9140   1416.88721     817.3730     480.9140
   1416.87195     818.0596     480.9558   1416.87195     818.0596     480.9558
   1416.85669     819.2485     482.0388   1416.85669     819.2485     482.0388
   1416.84143     819.1113     482.1957   1416.84143     819.1113     482.1957
   1416.82617     819.0560     482.6203   1416.82617     819.0560     482.6203
   1416.81091     818.6820     483.1001   1416.81091     818.6820     483.1001
   1416.79565     820.9332     483.0324   1416.79565     820.9332     483.0324
   1416.78040     820.2736     483.9720   1416.78040     820.2736     483.9720
   1416.76514     821.6641     483.5857   1416.76514     821.6641     483.5857
   1416.74988     821.2661     483.7954   1416.74988     821.2661     483.7954
   1416.73462     823.1058     484.1689   1416.73462     823.1058     484.1689
   1416.71936     822.3070     484.6402   1416.71936     822.3070     484.6402
   1416.70410     822.1433     484.7739   1416.70410     822.1433     484.7739
   1416.68884     823.1342     484.7479   1416.68884     823.1342     484.7479
   1416.67358     822.3670     484.9709   1416.67358     822.3670     484.9709
   1416.65833     824.5009     485.2042   1416.65833     824.5009     485.2042
   1416.64307     823.1926     485.1586   1416.64307     823.1926     485.1586
   1416.62781     824.9006     485.2964   1416.62781     824.9006     485.2964
   1416.61255     824.5751     485.5928   1416.61255     824.5751     485.5928
   1416.59729     823.7656     485.6941   1416.59729     823.7656     485.6941
   1416.58203     824.4409     485.8405   1416.58203     824.4409     485.8405
   1416.56677     824.4026     485.8990   1416.56677     824.4026     485.8990
   1416.55151     824.0389     485.5934   1416.55151     824.0389     485.5934
   1416.53625     823.9576     485.4384   1416.53625     823.9576     485.4384
   1416.52100     825.1770     486.5186   1416.52100     825.1770     486.5186
   1416.50574     825.2624     486.3980   1416.50574     825.2624     486.3980
   1416.49048     824.2335     486.1581   1416.49048     824.2335     486.1581
   1416.47522     825.0068     486.5809   1416.47522     825.0068     486.5809
   1416.45996     825.4409     486.3521   1416.45996     825.4409     486.3521
   1416.44470     824.5992     485.6313   1416.44470     824.5992     485.6313
   1416.42944     825.1083     486.2011   1416.42944     825.1083     486.2011
   1416.41418     823.9603     485.8018   1416.41418     823.9603     485.8018
   1416.39893     824.9434     486.1818   1416.39893     824.9434     486.1818
   1416.38367     824.6829     485.6306   1416.38367     824.6829     485.6306
   1416.36841     823.6636     485.9043   1416.36841     823.6636     485.9043
   1416.35315     823.6852     486.0094   1416.35315     823.6852     486.0094
   1416.33789     824.8733     486.4675   1416.33789     824.8733     486.4675
   1416.32263     823.0577     486.1022   1416.32263     823.0577     486.1022
   1416.30737     823.1204     485.4460   1416.30737     823.1204     485.4460
   1416.29211     823.8541     485.5119   1416.29211     823.8541     485.5119
   1416.27686     822.1246     485.8253   1416.27686     822.1246     485.8253
   1416.26160     822.9480     485.4837   1416.26160     822.9480     485.4837
   1416.24634     825.0348     485.3851   1416.24634     825.0348     485.3851
   1416.23108     821.3240     485.1919   1416.23108     821.3240     485.1919
   1416.21582     823.3853     484.6680   1416.21582     823.3853     484.6680
   1416.20056     821.9046     485.2861   1416.20056     821.9046     485.2861
   1416.18530     821.0261     485.5574   1416.18530     821.0261     485.5574
   1416.17004     821.5129     485.2562   1416.17004     821.5129     485.2562
   1416.15479     820.5336     484.4529   1416.15479     820.5336     484.4529
   1416.13953     820.5478     484.0616   1416.13953     820.5478     484.0616
   1416.12427     819.7061     484.7448   1416.12427     819.7061     484.7448
   1416.10901     820.1083     484.2341   1416.10901     820.1083     484.2341
   1416.09375     819.7564     484.2136   1416.09375     819.7564     484.2136
   1416.07849     818.9611     483.1625   1416.07849     818.9611     483.1625
   1416.06323     818.3731     484.2791   1416.06323     818.3731     484.2791
   1416.04797     817.5413     482.9369   1416.04797     817.5413     482.9369
   1416.03271     817.5127     483.1656   1416.03271     817.5127     483.1656
   1416.01746     816.7967     483.1129   1416.01746     816.7967     483.1129
   1416.00220     816.0458     482.9105   1416.00220     816.0458     482.9105
   1415.98694     813.8564     482.7799   1415.98694     813.8564     482.7799
   1415.97168     814.5139     482.7958   1415.97168     814.5139     482.7958
   1415.95642     813.9988     482.2733   1415.95642     813.9988     482.2733
   1415.94116     812.9493     482.2880   1415.94116     812.9493     482.2880
   1415.92590     813.1507     482.3755   1415.92590     813.1507     482.3755
   1415.91064     812.0861     481.3665   1415.91064     812.0861     481.3665
   1415.89539     811.3837     481.4680   1415.89539     811.3837     481.4680
   1415.88013     810.1784     481.0190   1415.88013     810.1784     481.0190
   1415.86487     809.7439     481.4490   1415.86487     809.7439     481.4490
   1415.84961     810.2673     481.1769   1415.84961     810.2673     481.1769
   1415.83435     808.2335     480.8583   1415.83435     808.2335     480.8583
   1415.81909     808.2653     480.4272   1415.81909     808.2653     480.4272
   1415.80383     806.6919     480.5184   1415.80383     806.6919     480.5184
   1415.78857     806.0887     479.9958   1415.78857     806.0887     479.9958
   1415.77332     804.4761     480.2854   1415.77332     804.4761     480.2854
   1415.75806     806.3292     479.5979   1415.75806     806.3292     479.5979
   1415.74280     803.3572     479.4264   1415.74280     803.3572     479.4264
   1415.72754     801.2335     478.8923   1415.72754     801.2335     478.8923
   1415.71228     799.9387     478.9766   1415.71228     799.9387     478.9766
   1415.69702     800.2692     478.8549   1415.69702     800.2692     478.8549
   1415.68176     799.7551     478.9508   1415.68176     799.7551     478.9508
   1415.66650     800.3596     477.8007   1415.66650     800.3596     477.8007
   1415.65125     796.7120     478.2057   1415.65125     796.7120     478.2057
   1415.63599     796.9327     477.7481   1415.63599     796.9327     477.7481
   1415.62073     795.4743     477.4495   1415.62073     795.4743     477.4495
   1415.60547     795.1238     477.1505   1415.60547     795.1238     477.1505
   1415.59021     794.1531     476.7928   1415.59021     794.1531     476.7928
   1415.57495     793.4403     477.0457   1415.57495     793.4403     477.0457
   1415.55969     792.4580     476.6065   1415.55969     792.4580     476.6065
   1415.54443     791.5856     476.3601   1415.54443     791.5856     476.3601
   1415.52917     789.7540     475.9924   1415.52917     789.7540     475.9924
   1415.51392     789.4358     475.6837   1415.51392     789.4358     475.6837
   1415.49866     788.4090     475.6945   1415.49866     788.4090     475.6945
   1415.48340     786.2086     475.5274   1415.48340     786.2086     475.5274
   1415.46814     785.6647     474.2849   1415.46814     785.6647     474.2849
   1415.45288     785.5137     474.2577   1415.45288     785.5137     474.2577
   1415.43762     783.8748     474.0630   1415.43762     783.8748     474.0630
   1415.42236     781.8113     473.9087   1415.42236     781.8113     473.9087
   1415.40710     779.7236     474.1750   1415.40710     779.7236     474.1750
   1415.39185     779.4603     472.4496   1415.39185     779.4603     472.4496
   1415.37659     779.0583     473.0256   1415.37659     779.0583     473.0256
   1415.36133     776.3108     473.1076   1415.36133     776.3108     473.1076
   1415.34607     776.9293     472.2309   1415.34607     776.9293     472.2309
   1415.33081     774.4223     471.8979   1415.33081     774.4223     471.8979
   1415.31555     774.4271     471.7160   1415.31555     774.4271     471.7160
   1415.30029     771.2981     470.8883   1415.30029     771.2981     470.8883
   1415.28503     771.3516     469.7504   1415.28503     771.3516     469.7504
   1415.26978     769.2798     470.3088   1415.26978     769.2798     470.3088
   1415.25452     767.2016     470.3254   1415.25452     767.2016     470.3254
   1415.23926     767.2441     470.2726   1415.23926     767.2441     470.2726
   1415.22400     764.9428     469.5305   1415.22400     764.9428     469.5305
   1415.20874     764.2917     468.7738   1415.20874     764.2917     468.7738
   1415.19348     761.5261     468.1943   1415.19348     761.5261     468.1943
   1415.17822     761.8712     468.2832   1415.17822     761.8712     468.2832
   1415.16296     758.9941     467.2062   1415.16296     758.9941     467.2062
   1415.14771     757.2582     466.9326   1415.14771     757.2582     466.9326
   1415.13245     756.0141     465.7789   1415.13245     756.0141     465.7789
   1415.11719     755.0438     466.2391   1415.11719     755.0438     466.2391
   1415.10193     752.3441     465.7677   1415.10193     752.3441     465.7677
   1415.08667     751.5254     464.6399   1415.08667     751.5254     464.6399
   1415.07141     750.2053     464.0981   1415.07141     750.2053     464.0981
   1415.05615     748.5433     463.7076   1415.05615     748.5433     463.7076
   1415.04089     745.8332     463.3204   1415.04089     745.8332     463.3204
   1415.02563     744.7277     463.0373   1415.02563     744.7277     463.0373
   1415.01038     743.4302     462.4806   1415.01038     743.4302     462.4806
   1414.99512     742.3917     461.9245   1414.99512     742.3917     461.9245
   1414.97986     739.9747     461.6877   1414.97986     739.9747     461.6877
   1414.96460     737.2112     460.9281   1414.96460     737.2112     460.9281
   1414.94934     736.5832     460.9552   1414.94934     736.5832     460.9552
   1414.93408     734.5718     459.2050   1414.93408     734.5718     459.2050
   1414.91882     732.4251     459.0176   1414.91882     732.4251     459.0176
   1414.90356     729.6450     458.7682   1414.90356     729.6450     458.7682
   1414.88831     728.5225     457.8637   1414.88831     728.5225     457.8637
   1414.87305     726.6926     457.2102   1414.87305     726.6926     457.2102
   1414.85779     725.5189     456.6577   1414.85779     725.5189     456.6577
   1414.84253     722.8492     456.7174   1414.84253     722.8492     456.7174
   1414.82727     720.3492     455.2093   1414.82727     720.3492     455.2093
   1414.81201     719.4406     454.0414   1414.81201     719.4406     454.0414
   1414.79675     716.9426     453.5502   1414.79675     716.9426     453.5502
   1414.78149     713.7682     453.1726   1414.78149     713.7682     453.1726
   1414.76624     712.4615     452.1950   1414.76624     712.4615     452.1950
   1414.75098     711.0538     451.7133   1414.75098     711.0538     451.7133
   1414.73572     707.3812     450.7205   1414.73572     707.3812     450.7205
   1414.72046     706.9868     450.5751   1414.72046     706.9868     450.5751
   1414.70520     703.4114     449.4629   1414.70520     703.4114     449.4629
   1414.68994     702.0767     448.2232   1414.68994     702.0767     448.2232
   1414.67468     699.6744     447.7531   1414.67468     699.6744     447.7531
   1414.65942     699.0880     447.3743   1414.65942     699.0880     447.3743
   1414.64417     694.8093     445.7971   1414.64417     694.8093     445.7971
   1414.62891     692.2224     445.2114   1414.62891     692.2224     445.2114
   1414.61365     690.4703     444.5015   1414.61365     690.4703     444.5015
   1414.59839     686.6962     443.8791   1414.59839     686.6962     443.8791
   1414.58313     685.8297     442.9945   1414.58313     685.8297     442.9945
   1414.56787     683.8081     441.9076   1414.56787     683.8081     441.9076
   1414.55261     681.7380     440.9821   1414.55261     681.7380     440.9821
   1414.53735     677.9741     439.8876   1414.53735     677.9741     439.8876
   1414.52209     676.7829     438.3716   1414.52209     676.7829     438.3716
   1414.50684     674.5945     438.0943   1414.50684     674.5945     438.0943
   1414.49158     671.5297     437.3962   1414.49158     671.5297     437.3962
   1414.47632     669.6353     436.6431   1414.47632     669.6353     436.6431
   1414.46106     666.2966     435.0351   1414.46106     666.2966     435.0351
   1414.44580     664.5485     434.4106   1414.44580     664.5485     434.4106
   1414.43054     661.4438     433.2527   1414.43054     661.4438     433.2527
   1414.41528     658.8460     432.0442   1414.41528     658.8460     432.0442
   1414.40002     655.8004     431.0378   1414.40002     655.8004     431.0378
   1414.38477     653.1194     430.2561   1414.38477     653.1194     430.2561
   1414.36951     649.6945     429.6134   1414.36951     649.6945     429.6134
   1414.35425     647.7368     427.9319   1414.35425     647.7368     427.9319
   1414.33899     645.6450     426.5331   1414.33899     645.6450     426.5331
   1414.32373     642.3613     425.8657   1414.32373     642.3613     425.8657
   1414.30847     641.6686     424.1217   1414.30847     641.6686     424.1217
   1414.29321     637.0490     423.3745   1414.29321     637.0490     423.3745
   1414.27795     635.0249     421.9291   1414.27795     635.0249     421.9291
   1414.26270     632.5117     421.0609   1414.26270     632.5117     421.0609
   1414.24744     628.9377     420.0783   1414.24744     628.9377     420.0783
   1414.23218     626.2923     419.4623   1414.23218     626.2923     419.4623
   1414.21692     623.9432     417.3642   1414.21692     623.9432     417.3642
   1414.20166     620.5566     415.9051   1414.20166     620.5566     415.9051
   1414.18640     618.7554     415.0864   1414.18640     618.7554     415.0864
   1414.17114     615.3324     413.2203   1414.17114     615.3324     413.2203
   1414.15588     612.8723     411.9933   1414.15588     612.8723     411.9933
   1414.14062     609.0727     411.5332   1414.14062     609.0727     411.5332
   1414.12537     605.8682     409.5693   1414.12537     605.8682     409.5693
   1414.11011     603.9604     408.7833   1414.11011     603.9604     408.7833
   1414.09485     599.5844     407.5699   1414.09485     599.5844     407.5699
   1414.07959     597.1850     406.4845   1414.07959     597.1850     406.4845
   1414.06433     594.2135     404.3429   1414.06433     594.2135     404.3429
   1414.04907     591.5354     402.9917   1414.04907     591.5354     402.9917
   1414.03381     588.3552     401.9583   1414.03381     588.3552     401.9583
   1414.01855     586.4332     400.7947   1414.01855     586.4332     400.7947
   1414.00330     611.0454     405.1994   1414.00330     611.0454     405.1994
   1413.98804     581.4816     398.5376   1413.98804     581.4816     398.5376
   1413.97278     577.2023     396.3795   1413.97278     577.2023     396.3795
   1413.95752     573.7515     395.3683   1413.95752     573.7515     395.3683
   1413.94226     570.8403     393.1072   1413.94226     570.8403     393.1072
   1413.92700     567.5790     392.1664   1413.92700     567.5790     392.1664
   1413.91174     564.4878     390.2416   1413.91174     564.4878     390.2416
   1413.89648     560.9844     390.0326   1413.89648     560.9844     390.0326
   1413.88123     558.6561     387.8488   1413.88123     558.6561     387.8488
   1413.86597     555.4120     386.9396   1413.86597     555.4120     386.9396
   1413.85071     552.4230     385.6223   1413.85071     552.4230     385.6223
   1413.83545     549.3506     383.3190   1413.83545     549.3506     383.3190
   1413.82019     547.0921     381.6400   1413.82019     547.0921     381.6400
   1413.80493     543.1371     380.4989   1413.80493     543.1371     380.4989
   1413.78967     539.9814     378.9483   1413.78967     539.9814     378.9483
   1413.77441     536.1463     377.3453   1413.77441     536.1463     377.3453
   1413.75916     532.8538     375.8885   1413.75916     532.8538     375.8885
   1413.74390     530.1628     374.5573   1413.74390     530.1628     374.5573
   1413.72864     527.8463     373.0901   1413.72864     527.8463     373.0901
   1413.71338     523.9364     371.7347   1413.71338     523.9364     371.7347
   1413.69812     521.5524     370.2971   1413.69812     521.5524     370.2971
   1413.68286     518.1260     368.1093   1413.68286     518.1260     368.1093
   1413.66760     514.8972     366.9254   1413.66760     514.8972     366.9254
   1413.65234     511.8648     366.1068   1413.65234     511.8648     366.1068
   1413.63708     509.0172     363.7777   1413.63708     509.0172     363.7777
   1413.62183     505.9208     362.0939   1413.62183     505.9208     362.0939
   1413.60657     503.2324     360.5091   1413.60657     503.2324     360.5091
   1413.59131     499.8597     359.0529   1413.59131     499.8597     359.0529
   1413.57605     497.9816     357.8777   1413.57605     497.9816     357.8777
   1413.56079     494.2760     356.0012   1413.56079     494.2760     356.0012
   1413.54553     491.0552     354.6810   1413.54553     491.0552     354.6810
   1413.53027     488.5199     352.8929   1413.53027     488.5199     352.8929
   1413.51501     484.9071     351.2253   1413.51501     484.9071     351.2253
   1413.49976     482.2346     349.8624   1413.49976     482.2346     349.8624
   1413.48450     478.6320     348.1781   1413.48450     478.6320     348.1781
   1413.46924     475.8103     346.2855   1413.46924     475.8103     346.2855
   1413.45398     473.2465     345.4660   1413.45398     473.2465     345.4660
   1413.43872     470.2678     343.2218   1413.43872     470.2678     343.2218
   1413.42346     466.9464     341.9862   1413.42346     466.9464     341.9862
   1413.40820     464.8227     340.7965   1413.40820     464.8227     340.7965
   1413.39294     461.6175     339.2983   1413.39294     461.6175     339.2983
   1413.37769     458.7658     338.0561   1413.37769     458.7658     338.0561
   1413.36243     456.2688     336.1178   1413.36243     456.2688     336.1178
   1413.34717     454.3018     334.6237   1413.34717     454.3018     334.6237
   1413.33191     450.1712     333.1370   1413.33191     450.1712     333.1370
   1413.31665     447.4218     331.1766   1413.31665     447.4218     331.1766
   1413.30139     445.4858     330.1856   1413.30139     445.4858     330.1856
   1413.28613     442.3257     328.2484   1413.28613     442.3257     328.2484
   1413.27087     439.8431     327.2908   1413.27087     439.8431     327.2908
   1413.25562     437.8054     325.5844   1413.25562     437.8054     325.5844
   1413.24036     434.6882     324.1063   1413.24036     434.6882     324.1063
   1413.22510     431.9165     322.6715   1413.22510     431.9165     322.6715
   1413.20984     429.7826     321.2734   1413.20984     429.7826     321.2734
   1413.19458     427.2773     320.0792   1413.19458     427.2773     320.0792
   1413.17932     424.7400     318.1729   1413.17932     424.7400     318.1729
   1413.16406     421.5987     316.7987   1413.16406     421.5987     316.7987
   1413.14880     419.3510     315.9014   1413.14880     419.3510     315.9014
   1413.13354     417.1951     314.6902   1413.13354     417.1951     314.6902
   1413.11829     414.6174     312.4747   1413.11829     414.6174     312.4747
   1413.10303     412.4967     311.0085   1413.10303     412.4967     311.0085
   1413.08777     409.8883     310.4568   1413.08777     409.8883     310.4568
   1413.07251     408.2880     308.5201   1413.07251     408.2880     308.5201
   1413.05725     405.3005     307.1830   1413.05725     405.3005     307.1830
   1413.04199     404.2384     306.3290   1413.04199     404.2384     306.3290
   1413.02673     401.6320     305.3035   1413.02673     401.6320     305.3035
   1413.01147     399.2592     303.6883   1413.01147     399.2592     303.6883
   1412.99622     397.1510     302.6913   1412.99622     397.1510     302.6913
   1412.98096     395.6934     301.1980   1412.98096     395.6934     301.1980
   1412.96570     393.1300     299.7897   1412.96570     393.1300     299.7897
   1412.95044     391.2576     299.1952   1412.95044     391.2576     299.1952
   1412.93518     389.4372     297.8105   1412.93518     389.4372     297.8105
   1412.91992     387.3347     296.9307   1412.91992     387.3347     296.9307
   1412.90466     385.9912     295.3408   1412.90466     385.9912     295.3408
   1412.88940     384.3374     294.4029   1412.88940     384.3374     294.4029
   1412.87415     382.2009     293.0049   1412.87415     382.2009     293.0049
   1412.85889     380.5899     292.7588   1412.85889     380.5899     292.7588
   1412.84363     378.9894     291.2971   1412.84363     378.9894     291.2971
   1412.82837     378.0930     290.3236   1412.82837     378.0930     290.3236
   1412.81311     376.3683     289.1688   1412.81311     376.3683     289.1688
   1412.79785     374.2129     288.6961   1412.79785     374.2129     288.6961
   1412.78259     373.0916     287.7296   1412.78259     373.0916     287.7296
   1412.76733     371.8833     286.4790   1412.76733     371.8833     286.4790
   1412.75208     369.9950     285.2082   1412.75208     369.9950     285.2082
   1412.73682     369.4700     284.6459   1412.73682     369.4700     284.6459
   1412.72156     367.3891     284.1168   1412.72156     367.3891     284.1168
   1412.70630     366.3095     283.6056   1412.70630     366.3095     283.6056
   1412.69104     365.2622     282.9508   1412.69104     365.2622     282.9508
   1412.67578     364.1713     282.0191   1412.67578     364.1713     282.0191
   1412.66052     363.3615     281.4539   1412.66052     363.3615     281.4539
   1412.64526     362.3102     280.3907   1412.64526     362.3102     280.3907
   1412.63000     361.3085     280.2576   1412.63000     361.3085     280.2576
   1412.61475     360.8636     279.3656   1412.61475     360.8636     279.3656
   1412.59949     359.7754     278.6797   1412.59949     359.7754     278.6797
   1412.58423     358.6306     278.5646   1412.58423     358.6306     278.5646
   1412.56897     358.2915     278.0147   1412.56897     358.2915     278.0147
   1412.55371     356.9225     276.9991   1412.55371     356.9225     276.9991
   1412.53845     357.8699     276.7326   1412.53845     357.8699     276.7326
   1412.52319     356.5641     276.6748   1412.52319     356.5641     276.6748
   1412.50793     355.3895     276.0985   1412.50793     355.3895     276.0985
   1412.49268     355.0341     275.8086   1412.49268     355.0341     275.8086
   1412.47742     355.2457     275.7436   1412.47742     355.2457     275.7436
   1412.46216     354.5619     275.5635   1412.46216     354.5619     275.5635
   1412.44690     354.2350     275.1392   1412.44690     354.2350     275.1392
   1412.43164     354.3440     275.3341   1412.43164     354.3440     275.3341
   1412.41638     353.2458     274.7791   1412.41638     353.2458     274.7791
   1412.40112     353.5712     274.5767   1412.40112     353.5712     274.5767
   1412.38586     353.7101     274.4307   1412.38586     353.7101     274.4307
   1412.37061     353.8325     274.9914   1412.37061     353.8325     274.9914
   1412.35535     353.8042     274.6829   1412.35535     353.8042     274.6829
   1412.34009     354.2418     274.9675   1412.34009     354.2418     274.9675
   1412.32483     353.2717     275.2261   1412.32483     353.2717     275.2261
   1412.30957     353.8338     275.1915   1412.30957     353.8338     275.1915
   1412.29431     354.4593     275.2455   1412.29431     354.4593     275.2455
   1412.27905     354.7966     275.3666   1412.27905     354.7966     275.3666
   1412.26379     355.9154     275.5557   1412.26379     355.9154     275.5557
   1412.24854     355.4408     276.2061   1412.24854     355.4408     276.2061
   1412.23328     355.9904     275.9526   1412.23328     355.9904     275.9526
   1412.21802     356.6671     276.6071   1412.21802     356.6671     276.6071
   1412.20276     356.8709     277.0158   1412.20276     356.8709     277.0158