#     FILENAME=!Skynet_57528_lach-cc-211_20619_21048.cyb.fits
#     BASENAME=Skynet_57528_lach-cc-211_20619_21048
#     SRC_NAME=lach-cc-211
#     OBSERVER=ccmadison16_9505
#     DATE_OBS=2016-05-20T20:12:51.680
#        OBSID=20619
#      SCANNUM=21048
#          MJD=57528.8433
#          UTC=72860
#     SCANTYPE=track
#     DATAMODE=HIRES
#     TUNEFREQ=1420.0000
# Actual_FREQ1=1420.0000
# Actual_FREQ2=1420.0000
#    LO1Tuning=6870.000
#     RFFILTER=1355_1435
#        OBSBW=-15.6250
#        NCHAN=1024 
#        FOCUS=37.0709
#           RA=06:47:52.29
#          DEC=01:43:09.41
#      RA(hrs)=6.797900
#     DEC(deg)=1.719300
#    AZIM(deg)=179.662
#    ELEV(deg)=53.123
#     IFattens=10.00, 9.00
#      WARNING=None
#    TCAL_XL1=7.9635
#    TCAL_YR1=9.1340
#    TCAL_XL2=7.9635
#    TCAL_YR2=9.1340
#     TRX_XL1=11.7060
#     TRX_YR1=11.7060
#     TRX_XL2=11.7060
#     TRX_YR2=11.7060
#        TAVE=1.0000
#Freq1(MHz)          XL1          YR1  Freq2(MHz)          XL2          YR2 

   1427.81250     353.5204     260.0367   1427.81250     353.5204     260.0367
   1427.79724     353.9140     260.2148   1427.79724     353.9140     260.2148
   1427.78198     354.3696     261.1884   1427.78198     354.3696     261.1884
   1427.76672     355.5049     261.8664   1427.76672     355.5049     261.8664
   1427.75146     356.5003     262.7984   1427.75146     356.5003     262.7984
   1427.73621     357.5710     263.7376   1427.73621     357.5710     263.7376
   1427.72095     357.4041     264.5919   1427.72095     357.4041     264.5919
   1427.70569     358.3445     265.2056   1427.70569     358.3445     265.2056
   1427.69043     359.8740     265.7016   1427.69043     359.8740     265.7016
   1427.67517     361.5185     266.5056   1427.67517     361.5185     266.5056
   1427.65991     361.7107     268.3514   1427.65991     361.7107     268.3514
   1427.64465     362.1928     268.9908   1427.64465     362.1928     268.9908
   1427.62939     364.4672     270.2079   1427.62939     364.4672     270.2079
   1427.61414     365.5997     271.1724   1427.61414     365.5997     271.1724
   1427.59888     366.7509     272.1248   1427.59888     366.7509     272.1248
   1427.58362     367.8444     273.2628   1427.58362     367.8444     273.2628
   1427.56836     369.5389     274.2347   1427.56836     369.5389     274.2347
   1427.55310     371.0537     275.7115   1427.55310     371.0537     275.7115
   1427.53784     371.9467     276.6896   1427.53784     371.9467     276.6896
   1427.52258     373.5691     278.0824   1427.52258     373.5691     278.0824
   1427.50732     374.9399     279.7925   1427.50732     374.9399     279.7925
   1427.49207     376.4646     280.5035   1427.49207     376.4646     280.5035
   1427.47681     378.4976     282.4110   1427.47681     378.4976     282.4110
   1427.46155     380.1645     283.6609   1427.46155     380.1645     283.6609
   1427.44629     382.0757     285.4625   1427.44629     382.0757     285.4625
   1427.43103     383.2895     286.7392   1427.43103     383.2895     286.7392
   1427.41577     385.0106     288.0419   1427.41577     385.0106     288.0419
   1427.40051     387.0966     289.9508   1427.40051     387.0966     289.9508
   1427.38525     389.0567     291.5676   1427.38525     389.0567     291.5676
   1427.37000     390.8295     292.9115   1427.37000     390.8295     292.9115
   1427.35474     393.0045     295.1371   1427.35474     393.0045     295.1371
   1427.33948     394.6058     296.6124   1427.33948     394.6058     296.6124
   1427.32422     397.0227     298.6361   1427.32422     397.0227     298.6361
   1427.30896     398.8781     299.8665   1427.30896     398.8781     299.8665
   1427.29370     400.5985     301.8950   1427.29370     400.5985     301.8950
   1427.27844     402.7191     304.2421   1427.27844     402.7191     304.2421
   1427.26318     404.9502     305.4536   1427.26318     404.9502     305.4536
   1427.24792     406.9824     307.0311   1427.24792     406.9824     307.0311
   1427.23267     409.8429     309.4292   1427.23267     409.8429     309.4292
   1427.21741     412.0493     311.6843   1427.21741     412.0493     311.6843
   1427.20215     414.3932     312.9974   1427.20215     414.3932     312.9974
   1427.18689     417.4177     315.3858   1427.18689     417.4177     315.3858
   1427.17163     418.7796     317.0225   1427.17163     418.7796     317.0225
   1427.15637     420.2824     319.5046   1427.15637     420.2824     319.5046
   1427.14111     423.4325     321.4169   1427.14111     423.4325     321.4169
   1427.12585     425.8850     323.5226   1427.12585     425.8850     323.5226
   1427.11060     428.4725     325.4385   1427.11060     428.4725     325.4385
   1427.09534     431.0562     327.3555   1427.09534     431.0562     327.3555
   1427.08008     433.7251     329.6940   1427.08008     433.7251     329.6940
   1427.06482     436.2378     332.2859   1427.06482     436.2378     332.2859
   1427.04956     438.3344     334.3672   1427.04956     438.3344     334.3672
   1427.03430     441.9185     336.5955   1427.03430     441.9185     336.5955
   1427.01904     443.9224     338.7877   1427.01904     443.9224     338.7877
   1427.00378     445.9635     340.9641   1427.00378     445.9635     340.9641
   1426.98853     448.0305     342.8942   1426.98853     448.0305     342.8942
   1426.97327     451.2357     344.9344   1426.97327     451.2357     344.9344
   1426.95801     453.9583     347.6067   1426.95801     453.9583     347.6067
   1426.94275     456.7851     350.2111   1426.94275     456.7851     350.2111
   1426.92749     459.0825     352.4907   1426.92749     459.0825     352.4907
   1426.91223     462.5427     355.2418   1426.91223     462.5427     355.2418
   1426.89697     464.7447     357.3670   1426.89697     464.7447     357.3670
   1426.88171     467.6694     359.0648   1426.88171     467.6694     359.0648
   1426.86646     471.0374     361.7162   1426.86646     471.0374     361.7162
   1426.85120     473.7996     363.7835   1426.85120     473.7996     363.7835
   1426.83594     476.0389     366.8417   1426.83594     476.0389     366.8417
   1426.82068     478.6215     368.5591   1426.82068     478.6215     368.5591
   1426.80542     481.1220     372.0917   1426.80542     481.1220     372.0917
   1426.79016     483.8020     373.9422   1426.79016     483.8020     373.9422
   1426.77490     486.8316     375.8143   1426.77490     486.8316     375.8143
   1426.75964     488.6868     378.7627   1426.75964     488.6868     378.7627
   1426.74438     492.7233     381.3368   1426.74438     492.7233     381.3368
   1426.72913     494.9258     383.3690   1426.72913     494.9258     383.3690
   1426.71387     498.8615     386.2426   1426.71387     498.8615     386.2426
   1426.69861     501.2565     388.5843   1426.69861     501.2565     388.5843
   1426.68335     503.0550     390.5265   1426.68335     503.0550     390.5265
   1426.66809     506.1272     393.4036   1426.66809     506.1272     393.4036
   1426.65283     508.4131     395.7498   1426.65283     508.4131     395.7498
   1426.63757     511.6018     397.9529   1426.63757     511.6018     397.9529
   1426.62231     515.0782     401.6838   1426.62231     515.0782     401.6838
   1426.60706     517.4098     402.9401   1426.60706     517.4098     402.9401
   1426.59180     520.2743     405.6450   1426.59180     520.2743     405.6450
   1426.57654     523.7330     408.2839   1426.57654     523.7330     408.2839
   1426.56128     525.9438     410.1783   1426.56128     525.9438     410.1783
   1426.54602     528.9875     412.9803   1426.54602     528.9875     412.9803
   1426.53076     531.9022     415.7363   1426.53076     531.9022     415.7363
   1426.51550     534.0698     417.7391   1426.51550     534.0698     417.7391
   1426.50024     536.1801     419.8318   1426.50024     536.1801     419.8318
   1426.48499     539.9276     422.8360   1426.48499     539.9276     422.8360
   1426.46973     542.9669     425.3876   1426.46973     542.9669     425.3876
   1426.45447     544.7956     427.9146   1426.45447     544.7956     427.9146
   1426.43921     547.8356     430.4762   1426.43921     547.8356     430.4762
   1426.42395     549.9310     432.6315   1426.42395     549.9310     432.6315
   1426.40869     552.3204     435.1865   1426.40869     552.3204     435.1865
   1426.39343     555.7837     437.5745   1426.39343     555.7837     437.5745
   1426.37817     558.3461     440.6355   1426.37817     558.3461     440.6355
   1426.36292     561.6121     442.7467   1426.36292     561.6121     442.7467
   1426.34766     563.1822     444.9427   1426.34766     563.1822     444.9427
   1426.33240     566.3222     446.7985   1426.33240     566.3222     446.7985
   1426.31714     569.0840     449.3226   1426.31714     569.0840     449.3226
   1426.30188     571.0662     451.6650   1426.30188     571.0662     451.6650
   1426.28662     574.6141     453.8676   1426.28662     574.6141     453.8676
   1426.27136     576.5377     456.4872   1426.27136     576.5377     456.4872
   1426.25610     578.1137     459.4100   1426.25610     578.1137     459.4100
   1426.24084     582.1886     461.6422   1426.24084     582.1886     461.6422
   1426.22559     583.5765     463.6194   1426.22559     583.5765     463.6194
   1426.21033     585.5767     465.2781   1426.21033     585.5767     465.2781
   1426.19507     590.0432     467.9743   1426.19507     590.0432     467.9743
   1426.17981     591.4855     470.6671   1426.17981     591.4855     470.6671
   1426.16455     593.5525     471.7626   1426.16455     593.5525     471.7626
   1426.14929     595.9684     475.2775   1426.14929     595.9684     475.2775
   1426.13403     599.6115     476.5526   1426.13403     599.6115     476.5526
   1426.11877     601.1705     479.5126   1426.11877     601.1705     479.5126
   1426.10352     603.1819     481.6889   1426.10352     603.1819     481.6889
   1426.08826     605.2382     483.9389   1426.08826     605.2382     483.9389
   1426.07300     607.9296     485.4837   1426.07300     607.9296     485.4837
   1426.05774     608.9614     488.0878   1426.05774     608.9614     488.0878
   1426.04248     612.3942     490.7047   1426.04248     612.3942     490.7047
   1426.02722     613.4465     492.6994   1426.02722     613.4465     492.6994
   1426.01196     616.7789     494.6384   1426.01196     616.7789     494.6384
   1425.99670     618.9194     496.7885   1425.99670     618.9194     496.7885
   1425.98145     620.9989     498.2648   1425.98145     620.9989     498.2648
   1425.96619     623.4545     501.6997   1425.96619     623.4545     501.6997
   1425.95093     624.5047     502.2826   1425.95093     624.5047     502.2826
   1425.93567     626.2343     505.6547   1425.93567     626.2343     505.6547
   1425.92041     627.9717     507.0307   1425.92041     627.9717     507.0307
   1425.90515     631.2330     508.4101   1425.90515     631.2330     508.4101
   1425.88989     632.9265     510.9777   1425.88989     632.9265     510.9777
   1425.87463     634.3475     512.7239   1425.87463     634.3475     512.7239
   1425.85938     636.6743     514.9185   1425.85938     636.6743     514.9185
   1425.84412     638.1180     517.3531   1425.84412     638.1180     517.3531
   1425.82886     639.6880     519.2128   1425.82886     639.6880     519.2128
   1425.81360     641.4971     521.3447   1425.81360     641.4971     521.3447
   1425.79834     644.0008     522.6501   1425.79834     644.0008     522.6501
   1425.78308     646.3676     523.9835   1425.78308     646.3676     523.9835
   1425.76782     646.8491     526.1529   1425.76782     646.8491     526.1529
   1425.75256     649.0131     527.6775   1425.75256     649.0131     527.6775
   1425.73730     650.9187     529.5197   1425.73730     650.9187     529.5197
   1425.72205     652.3923     532.0079   1425.72205     652.3923     532.0079
   1425.70679     653.8314     533.5851   1425.70679     653.8314     533.5851
   1425.69153     655.3409     535.3779   1425.69153     655.3409     535.3779
   1425.67627     656.3038     536.7131   1425.67627     656.3038     536.7131
   1425.66101     658.0388     538.9467   1425.66101     658.0388     538.9467
   1425.64575     660.1546     539.8132   1425.64575     660.1546     539.8132
   1425.63049     661.2441     542.0385   1425.63049     661.2441     542.0385
   1425.61523     662.2274     543.0251   1425.61523     662.2274     543.0251
   1425.59998     664.1583     546.3344   1425.59998     664.1583     546.3344
   1425.58472     665.4669     546.6601   1425.58472     665.4669     546.6601
   1425.56946     666.3586     548.6166   1425.56946     666.3586     548.6166
   1425.55420     667.4097     549.9456   1425.55420     667.4097     549.9456
   1425.53894     668.7917     551.3337   1425.53894     668.7917     551.3337
   1425.52368     671.0265     553.9301   1425.52368     671.0265     553.9301
   1425.50842     671.9796     554.2806   1425.50842     671.9796     554.2806
   1425.49316     674.1168     556.5626   1425.49316     674.1168     556.5626
   1425.47791     674.2921     557.5811   1425.47791     674.2921     557.5811
   1425.46265     675.8774     558.5126   1425.46265     675.8774     558.5126
   1425.44739     677.4943     560.6579   1425.44739     677.4943     560.6579
   1425.43213     676.8997     561.3013   1425.43213     676.8997     561.3013
   1425.41687     679.5996     563.4576   1425.41687     679.5996     563.4576
   1425.40161     678.4766     564.7969   1425.40161     678.4766     564.7969
   1425.38635     681.5952     566.9001   1425.38635     681.5952     566.9001
   1425.37109     681.6873     568.8618   1425.37109     681.6873     568.8618
   1425.35583     682.6556     570.2424   1425.35583     682.6556     570.2424
   1425.34058     684.1182     569.9218   1425.34058     684.1182     569.9218
   1425.32532     683.1389     571.2999   1425.32532     683.1389     571.2999
   1425.31006     685.0636     573.1440   1425.31006     685.0636     573.1440
   1425.29480     686.5381     574.5054   1425.29480     686.5381     574.5054
   1425.27954     686.7953     575.8814   1425.27954     686.7953     575.8814
   1425.26428     688.3398     577.0677   1425.26428     688.3398     577.0677
   1425.24902     689.1163     578.0537   1425.24902     689.1163     578.0537
   1425.23376     689.6533     579.5082   1425.23376     689.6533     579.5082
   1425.21851     690.1230     581.1882   1425.21851     690.1230     581.1882
   1425.20325     690.8539     580.7806   1425.20325     690.8539     580.7806
   1425.18799     691.8013     582.6913   1425.18799     691.8013     582.6913
   1425.17273     691.8633     584.3436   1425.17273     691.8633     584.3436
   1425.15747     693.1732     585.4067   1425.15747     693.1732     585.4067
   1425.14221     694.5864     585.5574   1425.14221     694.5864     585.5574
   1425.12695     693.5890     587.2206   1425.12695     693.5890     587.2206
   1425.11169     694.3757     588.3292   1425.11169     694.3757     588.3292
   1425.09644     695.2594     589.6933   1425.09644     695.2594     589.6933
   1425.08118     696.0516     590.0839   1425.08118     696.0516     590.0839
   1425.06592     696.2552     591.0934   1425.06592     696.2552     591.0934
   1425.05066     697.2565     591.4755   1425.05066     697.2565     591.4755
   1425.03540     697.7463     593.5495   1425.03540     697.7463     593.5495
   1425.02014     696.4507     594.4100   1425.02014     696.4507     594.4100
   1425.00488     697.9362     595.3718   1425.00488     697.9362     595.3718
   1424.98962     697.8877     595.8331   1424.98962     697.8877     595.8331
   1424.97437     698.3366     597.2673   1424.97437     698.3366     597.2673
   1424.95911     699.7115     597.3898   1424.95911     699.7115     597.3898
   1424.94385     700.5635     599.8781   1424.94385     700.5635     599.8781
   1424.92859     699.6060     600.2047   1424.92859     699.6060     600.2047
   1424.91333     702.1102     600.2728   1424.91333     702.1102     600.2728
   1424.89807     700.1904     600.7455   1424.89807     700.1904     600.7455
   1424.88281     701.1685     601.7516   1424.88281     701.1685     601.7516
   1424.86755     700.9325     603.7860   1424.86755     700.9325     603.7860
   1424.85229     702.0831     603.5803   1424.85229     702.0831     603.5803
   1424.83704     702.1135     604.6925   1424.83704     702.1135     604.6925
   1424.82178     701.1914     605.8676   1424.82178     701.1914     605.8676
   1424.80652     701.5107     605.5322   1424.80652     701.5107     605.5322
   1424.79126     701.9842     606.7268   1424.79126     701.9842     606.7268
   1424.77600     702.8022     607.9526   1424.77600     702.8022     607.9526
   1424.76074     701.7374     607.5995   1424.76074     701.7374     607.5995
   1424.74548     701.4762     608.5137   1424.74548     701.4762     608.5137
   1424.73022     702.5317     609.5579   1424.73022     702.5317     609.5579
   1424.71497     702.7377     609.7303   1424.71497     702.7377     609.7303
   1424.69971     703.6894     610.3915   1424.69971     703.6894     610.3915
   1424.68445     703.4042     610.7594   1424.68445     703.4042     610.7594
   1424.66919     703.1694     611.0240   1424.66919     703.1694     611.0240
   1424.65393     702.5538     612.1030   1424.65393     702.5538     612.1030
   1424.63867     703.7656     613.5922   1424.63867     703.7656     613.5922
   1424.62341     702.9525     612.9471   1424.62341     702.9525     612.9471
   1424.60815     703.5126     614.0438   1424.60815     703.5126     614.0438
   1424.59290     702.7209     613.8932   1424.59290     702.7209     613.8932
   1424.57764     702.2745     614.5876   1424.57764     702.2745     614.5876
   1424.56238     703.4170     615.8716   1424.56238     703.4170     615.8716
   1424.54712     701.8409     616.2746   1424.54712     701.8409     616.2746
   1424.53186     703.3423     616.7820   1424.53186     703.3423     616.7820
   1424.51660     704.2589     617.5858   1424.51660     704.2589     617.5858
   1424.50134     702.7119     616.9463   1424.50134     702.7119     616.9463
   1424.48608     702.7656     617.7906   1424.48608     702.7656     617.7906
   1424.47083     702.8543     618.5254   1424.47083     702.8543     618.5254
   1424.45557     702.2803     618.6818   1424.45557     702.2803     618.6818
   1424.44031     701.6975     618.5601   1424.44031     701.6975     618.5601
   1424.42505     701.9847     619.2490   1424.42505     701.9847     619.2490
   1424.40979     702.1508     620.3698   1424.40979     702.1508     620.3698
   1424.39453     701.9320     620.9505   1424.39453     701.9320     620.9505
   1424.37927     702.2977     621.0781   1424.37927     702.2977     621.0781
   1424.36401     702.0314     621.1840   1424.36401     702.0314     621.1840
   1424.34875     700.4489     620.5940   1424.34875     700.4489     620.5940
   1424.33350     701.8977     621.3485   1424.33350     701.8977     621.3485
   1424.31824     700.5209     622.5734   1424.31824     700.5209     622.5734
   1424.30298     700.3609     622.5565   1424.30298     700.3609     622.5565
   1424.28772     699.8945     621.6455   1424.28772     699.8945     621.6455
   1424.27246     700.7619     623.6132   1424.27246     700.7619     623.6132
   1424.25720     702.3635     623.6373   1424.25720     702.3635     623.6373
   1424.24194     701.0388     623.8957   1424.24194     701.0388     623.8957
   1424.22668     699.5029     623.0407   1424.22668     699.5029     623.0407
   1424.21143     699.4933     623.7293   1424.21143     699.4933     623.7293
   1424.19617     699.4489     623.8235   1424.19617     699.4489     623.8235
   1424.18091     699.7062     625.2311   1424.18091     699.7062     625.2311
   1424.16565     698.8566     624.5510   1424.16565     698.8566     624.5510
   1424.15039     699.1559     623.9771   1424.15039     699.1559     623.9771
   1424.13513     699.4071     623.8264   1424.13513     699.4071     623.8264
   1424.11987     698.7104     624.4508   1424.11987     698.7104     624.4508
   1424.10461     698.2606     623.8552   1424.10461     698.2606     623.8552
   1424.08936     698.0007     624.1904   1424.08936     698.0007     624.1904
   1424.07410     697.7623     624.5157   1424.07410     697.7623     624.5157
   1424.05884     697.3892     625.3210   1424.05884     697.3892     625.3210
   1424.04358     697.1653     624.3774   1424.04358     697.1653     624.3774
   1424.02832     696.9325     624.2352   1424.02832     696.9325     624.2352
   1424.01306     696.8051     624.9197   1424.01306     696.8051     624.9197
   1423.99780     697.3119     624.1237   1423.99780     697.3119     624.1237
   1423.98254     696.8069     625.4395   1423.98254     696.8069     625.4395
   1423.96729     697.2155     624.9594   1423.96729     697.2155     624.9594
   1423.95203     696.5421     624.1381   1423.95203     696.5421     624.1381
   1423.93677     695.3477     625.0089   1423.93677     695.3477     625.0089
   1423.92151     695.9751     624.6364   1423.92151     695.9751     624.6364
   1423.90625     695.7098     625.2584   1423.90625     695.7098     625.2584
   1423.89099     695.6539     623.8627   1423.89099     695.6539     623.8627
   1423.87573     694.5721     623.7786   1423.87573     694.5721     623.7786
   1423.86047     694.2786     624.2792   1423.86047     694.2786     624.2792
   1423.84521     693.1940     624.2018   1423.84521     693.1940     624.2018
   1423.82996     694.2556     623.6937   1423.82996     694.2556     623.6937
   1423.81470     693.7656     624.6010   1423.81470     693.7656     624.6010
   1423.79944     693.0549     624.1120   1423.79944     693.0549     624.1120
   1423.78418     692.6471     623.8267   1423.78418     692.6471     623.8267
   1423.76892     691.8839     623.2634   1423.76892     691.8839     623.2634
   1423.75366     692.0154     623.8672   1423.75366     692.0154     623.8672
   1423.73840     692.5335     622.6382   1423.73840     692.5335     622.6382
   1423.72314     691.2601     623.3586   1423.72314     691.2601     623.3586
   1423.70789     690.8223     621.8150   1423.70789     690.8223     621.8150
   1423.69263     692.6575     621.6877   1423.69263     692.6575     621.6877
   1423.67737     691.5494     621.3093   1423.67737     691.5494     621.3093
   1423.66211     691.3997     621.5596   1423.66211     691.3997     621.5596
   1423.64685     690.0366     621.3638   1423.64685     690.0366     621.3638
   1423.63159     689.6232     621.4246   1423.63159     689.6232     621.4246
   1423.61633     689.0421     620.3360   1423.61633     689.0421     620.3360
   1423.60107     690.6362     620.7482   1423.60107     690.6362     620.7482
   1423.58582     690.3928     620.3219   1423.58582     690.3928     620.3219
   1423.57056     689.8845     619.1809   1423.57056     689.8845     619.1809
   1423.55530     689.1668     620.0411   1423.55530     689.1668     620.0411
   1423.54004     688.9165     619.1397   1423.54004     688.9165     619.1397
   1423.52478     688.9012     618.5944   1423.52478     688.9012     618.5944
   1423.50952     687.1248     618.7023   1423.50952     687.1248     618.7023
   1423.49426     687.4218     618.5001   1423.49426     687.4218     618.5001
   1423.47900     687.7944     617.8749   1423.47900     687.7944     617.8749
   1423.46375     687.4326     617.0732   1423.46375     687.4326     617.0732
   1423.44849     686.2761     615.9298   1423.44849     686.2761     615.9298
   1423.43323     686.7732     616.5768   1423.43323     686.7732     616.5768
   1423.41797     685.8434     614.7818   1423.41797     685.8434     614.7818
   1423.40271     684.9915     615.3983   1423.40271     684.9915     615.3983
   1423.38745     685.5797     614.4137   1423.38745     685.5797     614.4137
   1423.37219     686.6956     614.1674   1423.37219     686.6956     614.1674
   1423.35693     685.5590     614.3433   1423.35693     685.5590     614.3433
   1423.34167     684.6133     613.8163   1423.34167     684.6133     613.8163
   1423.32642     685.8380     612.6375   1423.32642     685.8380     612.6375
   1423.31116     684.5094     611.9742   1423.31116     684.5094     611.9742
   1423.29590     683.6741     611.2680   1423.29590     683.6741     611.2680
   1423.28064     683.5268     610.7458   1423.28064     683.5268     610.7458
   1423.26538     683.1951     610.8184   1423.26538     683.1951     610.8184
   1423.25012     683.3574     609.6139   1423.25012     683.3574     609.6139
   1423.23486     682.8192     608.7884   1423.23486     682.8192     608.7884
   1423.21960     682.5296     609.6058   1423.21960     682.5296     609.6058
   1423.20435     682.5989     608.0455   1423.20435     682.5989     608.0455
   1423.18909     681.7064     608.0881   1423.18909     681.7064     608.0881
   1423.17383     681.8074     607.3784   1423.17383     681.8074     607.3784
   1423.15857     681.5117     606.7878   1423.15857     681.5117     606.7878
   1423.14331     681.9302     606.2076   1423.14331     681.9302     606.2076
   1423.12805     680.9278     605.0464   1423.12805     680.9278     605.0464
   1423.11279     681.3832     604.7881   1423.11279     681.3832     604.7881
   1423.09753     681.8036     603.0887   1423.09753     681.8036     603.0887
   1423.08228     681.3175     602.0397   1423.08228     681.3175     602.0397
   1423.06702     680.2286     602.1389   1423.06702     680.2286     602.1389
   1423.05176     679.8967     601.5459   1423.05176     679.8967     601.5459
   1423.03650     680.5601     600.7851   1423.03650     680.5601     600.7851
   1423.02124     680.9742     600.4294   1423.02124     680.9742     600.4294
   1423.00598     679.4122     599.2504   1423.00598     679.4122     599.2504
   1422.99072     678.4277     598.4096   1422.99072     678.4277     598.4096
   1422.97546     679.5707     597.0128   1422.97546     679.5707     597.0128
   1422.96021     678.5410     597.2557   1422.96021     678.5410     597.2557
   1422.94495     679.3870     595.7918   1422.94495     679.3870     595.7918
   1422.92969     678.9351     594.9585   1422.92969     678.9351     594.9585
   1422.91443     678.2399     593.9206   1422.91443     678.2399     593.9206
   1422.89917     677.7340     593.2953   1422.89917     677.7340     593.2953
   1422.88391     677.9711     592.1965   1422.88391     677.9711     592.1965
   1422.86865     676.7141     591.0765   1422.86865     676.7141     591.0765
   1422.85339     677.8282     591.5424   1422.85339     677.8282     591.5424
   1422.83813     677.2609     589.6090   1422.83813     677.2609     589.6090
   1422.82288     677.3737     588.9521   1422.82288     677.3737     588.9521
   1422.80762     675.8695     587.8961   1422.80762     675.8695     587.8961
   1422.79236     676.5460     587.0896   1422.79236     676.5460     587.0896
   1422.77710     676.2552     585.1213   1422.77710     676.2552     585.1213
   1422.76184     676.5889     586.2443   1422.76184     676.5889     586.2443
   1422.74658     675.3112     584.8859   1422.74658     675.3112     584.8859
   1422.73132     675.6752     584.0812   1422.73132     675.6752     584.0812
   1422.71606     675.3060     582.6384   1422.71606     675.3060     582.6384
   1422.70081     674.8811     582.2964   1422.70081     674.8811     582.2964
   1422.68555     674.9773     580.9351   1422.68555     674.9773     580.9351
   1422.67029     673.5576     579.7475   1422.67029     673.5576     579.7475
   1422.65503     674.4254     578.6472   1422.65503     674.4254     578.6472
   1422.63977     675.3767     578.3450   1422.63977     675.3767     578.3450
   1422.62451     673.5211     577.3260   1422.62451     673.5211     577.3260
   1422.60925     673.9624     575.3316   1422.60925     673.9624     575.3316
   1422.59399     674.1422     575.7696   1422.59399     674.1422     575.7696
   1422.57874     673.9529     574.4829   1422.57874     673.9529     574.4829
   1422.56348     673.3748     573.5508   1422.56348     673.3748     573.5508
   1422.54822     674.3184     572.9245   1422.54822     674.3184     572.9245
   1422.53296     673.0484     572.0366   1422.53296     673.0484     572.0366
   1422.51770     672.4730     570.9147   1422.51770     672.4730     570.9147
   1422.50244     672.0991     570.0532   1422.50244     672.0991     570.0532
   1422.48718     672.8596     568.1926   1422.48718     672.8596     568.1926
   1422.47192     672.4990     567.7012   1422.47192     672.4990     567.7012
   1422.45667     672.8632     566.2236   1422.45667     672.8632     566.2236
   1422.44141     672.0912     564.7472   1422.44141     672.0912     564.7472
   1422.42615     672.5374     564.4370   1422.42615     672.5374     564.4370
   1422.41089     671.0474     563.5687   1422.41089     671.0474     563.5687
   1422.39563     671.7830     561.8779   1422.39563     671.7830     561.8779
   1422.38037     672.1839     560.6579   1422.38037     672.1839     560.6579
   1422.36511     670.9580     560.2355   1422.36511     670.9580     560.2355
   1422.34985     670.3370     559.2402   1422.34985     670.3370     559.2402
   1422.33459     670.5999     557.7197   1422.33459     670.5999     557.7197
   1422.31934     670.0565     556.7807   1422.31934     670.0565     556.7807
   1422.30408     669.5707     556.3203   1422.30408     669.5707     556.3203
   1422.28882     669.7502     553.8592   1422.28882     669.7502     553.8592
   1422.27356     669.5231     554.2489   1422.27356     669.5231     554.2489
   1422.25830     670.2677     552.4086   1422.25830     670.2677     552.4086
   1422.24304     671.0351     550.9106   1422.24304     671.0351     550.9106
   1422.22778     669.5908     550.2184   1422.22778     669.5908     550.2184
   1422.21252     669.1594     549.4505   1422.21252     669.1594     549.4505
   1422.19727     667.9186     548.2888   1422.19727     667.9186     548.2888
   1422.18201     668.2714     547.1063   1422.18201     668.2714     547.1063
   1422.16675     669.5412     547.0959   1422.16675     669.5412     547.0959
   1422.15149     668.4024     545.4976   1422.15149     668.4024     545.4976
   1422.13623     668.3990     543.9365   1422.13623     668.3990     543.9365
   1422.12097     667.0449     543.5082   1422.12097     667.0449     543.5082
   1422.10571     669.3149     542.8862   1422.10571     669.3149     542.8862
   1422.09045     668.1113     540.5426   1422.09045     668.1113     540.5426
   1422.07520     667.7599     539.2285   1422.07520     667.7599     539.2285
   1422.05994     667.4717     538.7523   1422.05994     667.4717     538.7523
   1422.04468     666.9474     537.1839   1422.04468     666.9474     537.1839
   1422.02942     667.4662     535.8850   1422.02942     667.4662     535.8850
   1422.01416     666.7112     535.0730   1422.01416     666.7112     535.0730
   1421.99890     666.7118     535.0751   1421.99890     666.7118     535.0751
   1421.98364     665.5190     532.8622   1421.98364     665.5190     532.8622
   1421.96838     666.8058     531.2124   1421.96838     666.8058     531.2124
   1421.95312     666.2028     530.1239   1421.95312     666.2028     530.1239
   1421.93787     666.8489     529.1965   1421.93787     666.8489     529.1965
   1421.92261     666.5684     528.5757   1421.92261     666.5684     528.5757
   1421.90735     665.7288     527.0686   1421.90735     665.7288     527.0686
   1421.89209     665.4681     526.0985   1421.89209     665.4681     526.0985
   1421.87683     665.7017     525.6308   1421.87683     665.7017     525.6308
   1421.86157     666.2297     523.4515   1421.86157     666.2297     523.4515
   1421.84631     665.4658     521.9140   1421.84631     665.4658     521.9140
   1421.83105     663.0449     521.2343   1421.83105     663.0449     521.2343
   1421.81580     665.4355     521.0282   1421.81580     665.4355     521.0282
   1421.80054     663.9968     519.7852   1421.80054     663.9968     519.7852
   1421.78528     664.3828     518.8683   1421.78528     664.3828     518.8683
   1421.77002     664.3503     518.2799   1421.77002     664.3503     518.2799
   1421.75476     665.1053     515.8031   1421.75476     665.1053     515.8031
   1421.73950     664.5797     514.6284   1421.73950     664.5797     514.6284
   1421.72424     664.2404     513.2238   1421.72424     664.2404     513.2238
   1421.70898     663.2224     513.3805   1421.70898     663.2224     513.3805
   1421.69373     662.9247     511.3657   1421.69373     662.9247     511.3657
   1421.67847     662.6879     510.2574   1421.67847     662.6879     510.2574
   1421.66321     663.6733     510.2754   1421.66321     663.6733     510.2754
   1421.64795     662.6502     508.3680   1421.64795     662.6502     508.3680
   1421.63269     661.4306     507.7134   1421.63269     661.4306     507.7134
   1421.61743     661.0740     505.8971   1421.61743     661.0740     505.8971
   1421.60217     661.6526     505.1581   1421.60217     661.6526     505.1581
   1421.58691     660.9498     503.2642   1421.58691     660.9498     503.2642
   1421.57166     662.3235     502.4141   1421.57166     662.3235     502.4141
   1421.55640     660.4062     501.3725   1421.55640     660.4062     501.3725
   1421.54114     661.2365     500.1526   1421.54114     661.2365     500.1526
   1421.52588     661.6020     498.6664   1421.52588     661.6020     498.6664
   1421.51062     660.3976     498.6391   1421.51062     660.3976     498.6391
   1421.49536     659.8322     497.1797   1421.49536     659.8322     497.1797
   1421.48010     659.5475     496.5316   1421.48010     659.5475     496.5316
   1421.46484     659.8040     494.5373   1421.46484     659.8040     494.5373
   1421.44958     659.9363     493.9146   1421.44958     659.9363     493.9146
   1421.43433     659.8390     492.4016   1421.43433     659.8390     492.4016
   1421.41907     658.8993     491.6155   1421.41907     658.8993     491.6155
   1421.40381     658.5695     490.8029   1421.40381     658.5695     490.8029
   1421.38855     658.3550     488.8870   1421.38855     658.3550     488.8870
   1421.37329     658.5989     488.2897   1421.37329     658.5989     488.2897
   1421.35803     658.0952     486.8266   1421.35803     658.0952     486.8266
   1421.34277     658.2196     486.3277   1421.34277     658.2196     486.3277
   1421.32751     656.9963     484.6108   1421.32751     656.9963     484.6108
   1421.31226     657.1795     484.3080   1421.31226     657.1795     484.3080
   1421.29700     656.5992     482.0400   1421.29700     656.5992     482.0400
   1421.28174     655.6829     481.3481   1421.28174     655.6829     481.3481
   1421.26648     656.2208     480.5223   1421.26648     656.2208     480.5223
   1421.25122     656.0953     478.7740   1421.25122     656.0953     478.7740
   1421.23596     655.3010     477.4986   1421.23596     655.3010     477.4986
   1421.22070     655.9536     477.9820   1421.22070     655.9536     477.9820
   1421.20544     655.2776     476.3368   1421.20544     655.2776     476.3368
   1421.19019     655.7017     475.2268   1421.19019     655.7017     475.2268
   1421.17493     655.3857     474.4320   1421.17493     655.3857     474.4320
   1421.15967     654.6620     473.2835   1421.15967     654.6620     473.2835
   1421.14441     654.0839     471.6625   1421.14441     654.0839     471.6625
   1421.12915     654.0253     471.4176   1421.12915     654.0253     471.4176
   1421.11389     653.8969     469.8406   1421.11389     653.8969     469.8406
   1421.09863     653.4809     469.1311   1421.09863     653.4809     469.1311
   1421.08337     653.9340     467.6906   1421.08337     653.9340     467.6906
   1421.06812     653.3630     466.3289   1421.06812     653.3630     466.3289
   1421.05286     653.2547     465.6470   1421.05286     653.2547     465.6470
   1421.03760     653.0298     464.2631   1421.03760     653.0298     464.2631
   1421.02234     652.0986     463.3089   1421.02234     652.0986     463.3089
   1421.00708     652.0837     463.6209   1421.00708     652.0837     463.6209
   1420.99182     651.5967     461.4637   1420.99182     651.5967     461.4637
   1420.97656     652.0748     461.3897   1420.97656     652.0748     461.3897
   1420.96130     652.3734     460.3245   1420.96130     652.3734     460.3245
   1420.94604     652.1996     459.2806   1420.94604     652.1996     459.2806
   1420.93079     651.2402     457.7605   1420.93079     651.2402     457.7605
   1420.91553     650.6102     457.2036   1420.91553     650.6102     457.2036
   1420.90027     650.8874     455.4241   1420.90027     650.8874     455.4241
   1420.88501     650.9811     455.0887   1420.88501     650.9811     455.0887
   1420.86975     649.2488     453.7885   1420.86975     649.2488     453.7885
   1420.85449     650.4980     453.3900   1420.85449     650.4980     453.3900
   1420.83923     650.2903     453.6053   1420.83923     650.2903     453.6053
   1420.82397     651.7921     451.4020   1420.82397     651.7921     451.4020
   1420.80872     651.4390     451.3155   1420.80872     651.4390     451.3155
   1420.79346     649.9489     450.5440   1420.79346     649.9489     450.5440
   1420.77820     650.4897     449.4977   1420.77820     650.4897     449.4977
   1420.76294     650.9196     448.7151   1420.76294     650.9196     448.7151
   1420.74768     651.0997     448.0774   1420.74768     651.0997     448.0774
   1420.73242     650.3901     446.8372   1420.73242     650.3901     446.8372
   1420.71716     649.7561     446.7441   1420.71716     649.7561     446.7441
   1420.70190     649.5189     445.0575   1420.70190     649.5189     445.0575
   1420.68665     649.8598     444.3470   1420.68665     649.8598     444.3470
   1420.67139     649.0494     443.4990   1420.67139     649.0494     443.4990
   1420.65613     650.4830     442.8291   1420.65613     650.4830     442.8291
   1420.64087     649.1176     442.2228   1420.64087     649.1176     442.2228
   1420.62561     648.4005     441.1989   1420.62561     648.4005     441.1989
   1420.61035     649.6619     440.0527   1420.61035     649.6619     440.0527
   1420.59509     649.8736     440.3004   1420.59509     649.8736     440.3004
   1420.57983     649.6561     440.1902   1420.57983     649.6561     440.1902
   1420.56458     650.2199     439.1270   1420.56458     650.2199     439.1270
   1420.54932     651.3608     439.1293   1420.54932     651.3608     439.1293
   1420.53406     652.4932     439.4308   1420.53406     652.4932     439.4308
   1420.51880     653.8729     439.8819   1420.51880     653.8729     439.8819
   1420.50354     653.8707     437.8662   1420.50354     653.8707     437.8662
   1420.48828     652.4384     437.3214   1420.48828     652.4384     437.3214
   1420.47302     651.5407     436.3430   1420.47302     651.5407     436.3430
   1420.45776     650.8408     434.8840   1420.45776     650.8408     434.8840
   1420.44250     651.3644     434.2730   1420.44250     651.3644     434.2730
   1420.42725     650.2588     434.0729   1420.42725     650.2588     434.0729
   1420.41199     651.2669     433.5924   1420.41199     651.2669     433.5924
   1420.39673     650.9514     433.5402   1420.39673     650.9514     433.5402
   1420.38147     651.6122     433.0670   1420.38147     651.6122     433.0670
   1420.36621     653.7518     432.6633   1420.36621     653.7518     432.6633
   1420.35095     656.4906     433.6071   1420.35095     656.4906     433.6071
   1420.33569     659.7480     434.7894   1420.33569     659.7480     434.7894
   1420.32043     664.9568     438.0817   1420.32043     664.9568     438.0817
   1420.30518     674.7241     442.7109   1420.30518     674.7241     442.7109
   1420.28992     690.4678     452.9054   1420.28992     690.4678     452.9054
   1420.27466     715.9592     468.2333   1420.27466     715.9592     468.2333
   1420.25940     767.8678     500.1192   1420.25940     767.8678     500.1192
   1420.24414     885.6297     574.0292   1420.24414     885.6297     574.0292
   1420.22888    1136.5392     733.3838   1420.22888    1136.5392     733.3838
   1420.21362    1425.3202     914.5594   1420.21362    1425.3202     914.5594
   1420.19836    1618.7231    1037.0015   1420.19836    1618.7231    1037.0015
   1420.18311    1739.8158    1109.2784   1420.18311    1739.8158    1109.2784
   1420.16785    1568.7467    1003.2220   1420.16785    1568.7467    1003.2220
   1420.15259    1390.6660     887.9490   1420.15259    1390.6660     887.9490
   1420.13733    1534.7307     978.0378   1420.13733    1534.7307     978.0378
   1420.12207    1780.6044    1129.7017   1420.12207    1780.6044    1129.7017
   1420.10681    1791.2887    1136.1926   1420.10681    1791.2887    1136.1926
   1420.09155    1523.1741     966.8624   1420.09155    1523.1741     966.8624
   1420.07629    1443.1288     913.2028   1420.07629    1443.1288     913.2028
   1420.06104    1773.2715    1121.1185   1420.06104    1773.2715    1121.1185
   1420.04578    2010.9033    1263.2826   1420.04578    2010.9033    1263.2826
   1420.03052    2093.0771    1313.7474   1420.03052    2093.0771    1313.7474
   1420.01526    1912.8622    1202.0597   1420.01526    1912.8622    1202.0597
   1420.00000    1567.1711     988.2844   1420.00000    1567.1711     988.2844
   1419.98474    1221.4797     774.5088   1419.98474    1221.4797     774.5088
   1419.96948     968.1904     615.0428   1419.96948     968.1904     615.0428
   1419.95422     839.3159     533.5107   1419.95422     839.3159     533.5107
   1419.93896     768.4397     488.2731   1419.93896     768.4397     488.2731
   1419.92371     722.6710     459.3533   1419.92371     722.6710     459.3533
   1419.90845     693.8834     441.5361   1419.90845     693.8834     441.5361
   1419.89319     675.4240     429.6758   1419.89319     675.4240     429.6758
   1419.87793     662.6481     421.6799   1419.87793     662.6481     421.6799
   1419.86267     654.9006     416.7525   1419.86267     654.9006     416.7525
   1419.84741     650.6136     413.6860   1419.84741     650.6136     413.6860
   1419.83215     647.3524     410.9526   1419.83215     647.3524     410.9526
   1419.81689     645.5341     409.4973   1419.81689     645.5341     409.4973
   1419.80164     644.9705     408.6187   1419.80164     644.9705     408.6187
   1419.78638     644.4124     407.4774   1419.78638     644.4124     407.4774
   1419.77112     643.4247     406.4613   1419.77112     643.4247     406.4613
   1419.75586     643.2377     406.2675   1419.75586     643.2377     406.2675
   1419.74060     643.5477     405.4611   1419.74060     643.5477     405.4611
   1419.72534     644.4426     405.2451   1419.72534     644.4426     405.2451
   1419.71008     641.4180     405.1631   1419.71008     641.4180     405.1631
   1419.69482     642.4353     404.6581   1419.69482     642.4353     404.6581
   1419.67957     642.3057     404.3836   1419.67957     642.3057     404.3836
   1419.66431     643.4608     404.3509   1419.66431     643.4608     404.3509
   1419.64905     643.0544     403.3312   1419.64905     643.0544     403.3312
   1419.63379     642.3800     402.9805   1419.63379     642.3800     402.9805
   1419.61853     643.9796     403.3842   1419.61853     643.9796     403.3842
   1419.60327     643.6041     402.6087   1419.60327     643.6041     402.6087
   1419.58801     643.4123     402.7364   1419.58801     643.4123     402.7364
   1419.57275     642.3920     402.7148   1419.57275     642.3920     402.7148
   1419.55750     643.9768     402.8330   1419.55750     643.9768     402.8330
   1419.54224     643.7941     402.4954   1419.54224     643.7941     402.4954
   1419.52698     643.8594     401.8882   1419.52698     643.8594     401.8882
   1419.51172     645.3411     401.4374   1419.51172     645.3411     401.4374
   1419.49646     644.7495     402.1644   1419.49646     644.7495     402.1644
   1419.48120     643.5107     401.8671   1419.48120     643.5107     401.8671
   1419.46594     643.8839     401.4934   1419.46594     643.8839     401.4934
   1419.45068     644.8320     401.5730   1419.45068     644.8320     401.5730
   1419.43542     645.0342     401.2480   1419.43542     645.0342     401.2480
   1419.42017     645.2813     401.8861   1419.42017     645.2813     401.8861
   1419.40491     645.2250     401.5127   1419.40491     645.2250     401.5127
   1419.38965     644.9101     401.5843   1419.38965     644.9101     401.5843
   1419.37439     645.5585     401.1107   1419.37439     645.5585     401.1107
   1419.35913     646.2560     401.1338   1419.35913     646.2560     401.1338
   1419.34387     646.4153     401.5809   1419.34387     646.4153     401.5809
   1419.32861     647.0660     400.8667   1419.32861     647.0660     400.8667
   1419.31335     647.9444     401.3463   1419.31335     647.9444     401.3463
   1419.29810     647.3390     401.1785   1419.29810     647.3390     401.1785
   1419.28284     647.9060     401.1567   1419.28284     647.9060     401.1567
   1419.26758     648.0233     402.0741   1419.26758     648.0233     402.0741
   1419.25232     648.6224     401.4919   1419.25232     648.6224     401.4919
   1419.23706     649.1541     401.9063   1419.23706     649.1541     401.9063
   1419.22180     650.4290     402.3627   1419.22180     650.4290     402.3627
   1419.20654     649.0251     401.8752   1419.20654     649.0251     401.8752
   1419.19128     650.8699     401.6230   1419.19128     650.8699     401.6230
   1419.17603     650.9472     401.8168   1419.17603     650.9472     401.8168
   1419.16077     650.8590     401.7789   1419.16077     650.8590     401.7789
   1419.14551     652.2494     402.6746   1419.14551     652.2494     402.6746
   1419.13025     651.9311     402.3426   1419.13025     651.9311     402.3426
   1419.11499     653.4382     402.9409   1419.11499     653.4382     402.9409
   1419.09973     653.4094     403.0662   1419.09973     653.4094     403.0662
   1419.08447     653.9047     403.2400   1419.08447     653.9047     403.2400
   1419.06921     653.2742     403.2171   1419.06921     653.2742     403.2171
   1419.05396     654.9144     403.1561   1419.05396     654.9144     403.1561
   1419.03870     655.4812     403.9060   1419.03870     655.4812     403.9060
   1419.02344     656.0368     404.3673   1419.02344     656.0368     404.3673
   1419.00818     655.4573     404.9014   1419.00818     655.4573     404.9014
   1418.99292     656.7857     404.4436   1418.99292     656.7857     404.4436
   1418.97766     656.9955     404.3312   1418.97766     656.9955     404.3312
   1418.96240     658.2623     405.0536   1418.96240     658.2623     405.0536
   1418.94714     659.1923     405.3068   1418.94714     659.1923     405.3068
   1418.93188     659.5082     405.4369   1418.93188     659.5082     405.4369
   1418.91663     658.3607     406.3305   1418.91663     658.3607     406.3305
   1418.90137     660.6129     406.1772   1418.90137     660.6129     406.1772
   1418.88611     661.3818     407.3292   1418.88611     661.3818     407.3292
   1418.87085     661.2172     406.9596   1418.87085     661.2172     406.9596
   1418.85559     662.4055     408.0315   1418.85559     662.4055     408.0315
   1418.84033     662.9019     407.6420   1418.84033     662.9019     407.6420
   1418.82507     663.7750     408.2624   1418.82507     663.7750     408.2624
   1418.80981     664.6265     408.3568   1418.80981     664.6265     408.3568
   1418.79456     664.7601     408.5740   1418.79456     664.7601     408.5740
   1418.77930     665.8997     409.1071   1418.77930     665.8997     409.1071
   1418.76404     665.4448     409.2454   1418.76404     665.4448     409.2454
   1418.74878     667.8048     410.4909   1418.74878     667.8048     410.4909
   1418.73352     667.3533     410.4408   1418.73352     667.3533     410.4408
   1418.71826     667.9846     411.0026   1418.71826     667.9846     411.0026
   1418.70300     668.3364     410.9741   1418.70300     668.3364     410.9741
   1418.68774     669.1222     411.6426   1418.68774     669.1222     411.6426
   1418.67249     671.1049     412.1475   1418.67249     671.1049     412.1475
   1418.65723     672.3978     412.6644   1418.65723     672.3978     412.6644
   1418.64197     671.5977     413.1346   1418.64197     671.5977     413.1346
   1418.62671     672.4394     414.2030   1418.62671     672.4394     414.2030
   1418.61145     673.1670     414.5616   1418.61145     673.1670     414.5616
   1418.59619     673.4482     414.6154   1418.59619     673.4482     414.6154
   1418.58093     673.8784     415.2765   1418.58093     673.8784     415.2765
   1418.56567     675.3500     415.9905   1418.56567     675.3500     415.9905
   1418.55042     676.7973     416.4026   1418.55042     676.7973     416.4026
   1418.53516     677.0275     417.0571   1418.53516     677.0275     417.0571
   1418.51990     678.4114     417.3931   1418.51990     678.4114     417.3931
   1418.50464     678.6256     418.2230   1418.50464     678.6256     418.2230
   1418.48938     679.4315     419.1406   1418.48938     679.4315     419.1406
   1418.47412     681.1091     419.7515   1418.47412     681.1091     419.7515
   1418.45886     681.2030     420.0678   1418.45886     681.2030     420.0678
   1418.44360     681.9687     420.4981   1418.44360     681.9687     420.4981
   1418.42834     682.6212     421.5563   1418.42834     682.6212     421.5563
   1418.41309     683.7921     422.5805   1418.41309     683.7921     422.5805
   1418.39783     684.4996     422.9091   1418.39783     684.4996     422.9091
   1418.38257     685.6975     423.4665   1418.38257     685.6975     423.4665
   1418.36731     685.7321     424.5816   1418.36731     685.7321     424.5816
   1418.35205     686.2048     424.0141   1418.35205     686.2048     424.0141
   1418.33679     688.0784     425.0352   1418.33679     688.0784     425.0352
   1418.32153     689.6368     425.8706   1418.32153     689.6368     425.8706
   1418.30627     690.2023     426.5801   1418.30627     690.2023     426.5801
   1418.29102     691.6042     427.6454   1418.29102     691.6042     427.6454
   1418.27576     691.2582     427.5944   1418.27576     691.2582     427.5944
   1418.26050     691.6838     428.8374   1418.26050     691.6838     428.8374
   1418.24524     691.5367     429.6808   1418.24524     691.5367     429.6808
   1418.22998     694.4379     430.7755   1418.22998     694.4379     430.7755
   1418.21472     694.8878     430.8454   1418.21472     694.8878     430.8454
   1418.19946     695.7198     431.1341   1418.19946     695.7198     431.1341
   1418.18420     697.0361     432.7455   1418.18420     697.0361     432.7455
   1418.16895     698.3416     433.1111   1418.16895     698.3416     433.1111
   1418.15369     698.6087     433.9404   1418.15369     698.6087     433.9404
   1418.13843     698.7944     434.9532   1418.13843     698.7944     434.9532
   1418.12317     701.1854     435.1996   1418.12317     701.1854     435.1996
   1418.10791     702.2988     436.3145   1418.10791     702.2988     436.3145
   1418.09265     701.8091     437.0590   1418.09265     701.8091     437.0590
   1418.07739     702.2832     438.1261   1418.07739     702.2832     438.1261
   1418.06213     704.9164     438.7431   1418.06213     704.9164     438.7431
   1418.04688     705.9628     440.3130   1418.04688     705.9628     440.3130
   1418.03162     707.6895     440.6500   1418.03162     707.6895     440.6500
   1418.01636     708.5387     441.1385   1418.01636     708.5387     441.1385
   1418.00110     709.4216     441.9935   1418.00110     709.4216     441.9935
   1417.98584     709.6436     443.2976   1417.98584     709.6436     443.2976
   1417.97058     710.0494     443.3934   1417.97058     710.0494     443.3934
   1417.95532     712.4286     444.7557   1417.95532     712.4286     444.7557
   1417.94006     712.7749     445.1623   1417.94006     712.7749     445.1623
   1417.92480     714.5444     445.9971   1417.92480     714.5444     445.9971
   1417.90955     714.5508     447.4146   1417.90955     714.5508     447.4146
   1417.89429     714.6727     448.4467   1417.89429     714.6727     448.4467
   1417.87903     716.7969     448.7817   1417.87903     716.7969     448.7817
   1417.86377     716.8818     450.0405   1417.86377     716.8818     450.0405
   1417.84851     718.8000     451.1600   1417.84851     718.8000     451.1600
   1417.83325     719.6494     452.4226   1417.83325     719.6494     452.4226
   1417.81799     720.8755     452.1555   1417.81799     720.8755     452.1555
   1417.80273     721.8576     453.1012   1417.80273     721.8576     453.1012
   1417.78748     722.4521     453.8876   1417.78748     722.4521     453.8876
   1417.77222     723.9661     454.7927   1417.77222     723.9661     454.7927
   1417.75696     724.5544     455.9539   1417.75696     724.5544     455.9539
   1417.74170     725.4292     457.3708   1417.74170     725.4292     457.3708
   1417.72644     726.8286     458.1064   1417.72644     726.8286     458.1064
   1417.71118     728.6805     458.6255   1417.71118     728.6805     458.6255
   1417.69592     729.2266     459.7168   1417.69592     729.2266     459.7168
   1417.68066     730.7964     460.7732   1417.68066     730.7964     460.7732
   1417.66541     730.6028     461.6145   1417.66541     730.6028     461.6145
   1417.65015     732.6225     462.2532   1417.65015     732.6225     462.2532
   1417.63489     733.0908     462.2133   1417.63489     733.0908     462.2133
   1417.61963     734.7340     464.2506   1417.61963     734.7340     464.2506
   1417.60437     736.0032     465.2511   1417.60437     736.0032     465.2511
   1417.58911     736.4007     465.3250   1417.58911     736.4007     465.3250
   1417.57385     736.2946     467.2836   1417.57385     736.2946     467.2836
   1417.55859     738.0561     467.6030   1417.55859     738.0561     467.6030
   1417.54333     738.5854     468.4474   1417.54333     738.5854     468.4474
   1417.52808     740.0095     470.1020   1417.52808     740.0095     470.1020
   1417.51282     739.4330     470.8576   1417.51282     739.4330     470.8576
   1417.49756     742.2710     471.9177   1417.49756     742.2710     471.9177
   1417.48230     742.6501     471.9610   1417.48230     742.6501     471.9610
   1417.46704     743.2411     473.0739   1417.46704     743.2411     473.0739
   1417.45178     744.6092     474.4418   1417.45178     744.6092     474.4418
   1417.43652     745.5086     474.3688   1417.43652     745.5086     474.3688
   1417.42126     745.9307     475.5568   1417.42126     745.9307     475.5568
   1417.40601     747.5455     476.5627   1417.40601     747.5455     476.5627
   1417.39075     748.5944     477.4665   1417.39075     748.5944     477.4665
   1417.37549     750.1199     478.4495   1417.37549     750.1199     478.4495
   1417.36023     749.9410     479.1621   1417.36023     749.9410     479.1621
   1417.34497     751.5640     480.0018   1417.34497     751.5640     480.0018
   1417.32971     751.1285     480.1320   1417.32971     751.1285     480.1320
   1417.31445     753.9112     481.9648   1417.31445     753.9112     481.9648
   1417.29919     752.7018     482.8746   1417.29919     752.7018     482.8746
   1417.28394     754.0390     483.4418   1417.28394     754.0390     483.4418
   1417.26868     754.7784     484.5793   1417.26868     754.7784     484.5793
   1417.25342     755.6827     485.0638   1417.25342     755.6827     485.0638
   1417.23816     756.8452     486.0108   1417.23816     756.8452     486.0108
   1417.22290     758.1975     487.6938   1417.22290     758.1975     487.6938
   1417.20764     758.5939     487.1051   1417.20764     758.5939     487.1051
   1417.19238     759.8186     488.0876   1417.19238     759.8186     488.0876
   1417.17712     758.8685     489.1438   1417.17712     758.8685     489.1438
   1417.16187     760.8462     489.6752   1417.16187     760.8462     489.6752
   1417.14661     761.0909     490.7204   1417.14661     761.0909     490.7204
   1417.13135     761.4963     491.8664   1417.13135     761.4963     491.8664
   1417.11609     762.3320     493.0534   1417.11609     762.3320     493.0534
   1417.10083     763.7068     493.0578   1417.10083     763.7068     493.0578
   1417.08557     765.2021     493.7125   1417.08557     765.2021     493.7125
   1417.07031     765.7658     494.6546   1417.07031     765.7658     494.6546
   1417.05505     766.0228     495.4359   1417.05505     766.0228     495.4359
   1417.03979     765.9743     496.0231   1417.03979     765.9743     496.0231
   1417.02454     767.5722     497.3137   1417.02454     767.5722     497.3137
   1417.00928     766.8001     497.6180   1417.00928     766.8001     497.6180
   1416.99402     770.1766     497.7226   1416.99402     770.1766     497.7226
   1416.97876     769.9122     498.5133   1416.97876     769.9122     498.5133
   1416.96350     770.7859     498.8934   1416.96350     770.7859     498.8934
   1416.94824     769.4991     499.9082   1416.94824     769.4991     499.9082
   1416.93298     769.7357     500.5436   1416.93298     769.7357     500.5436
   1416.91772     769.9340     500.7401   1416.91772     769.9340     500.7401
   1416.90247     771.6882     501.8877   1416.90247     771.6882     501.8877
   1416.88721     772.1550     501.4754   1416.88721     772.1550     501.4754
   1416.87195     772.5711     502.3290   1416.87195     772.5711     502.3290
   1416.85669     773.4385     503.3904   1416.85669     773.4385     503.3904
   1416.84143     774.7488     503.9767   1416.84143     774.7488     503.9767
   1416.82617     774.1412     503.0822   1416.82617     774.1412     503.0822
   1416.81091     775.5555     504.7393   1416.81091     775.5555     504.7393
   1416.79565     775.4363     505.3238   1416.79565     775.4363     505.3238
   1416.78040     776.7032     505.5444   1416.78040     776.7032     505.5444
   1416.76514     775.0107     505.9603   1416.76514     775.0107     505.9603
   1416.74988     776.1165     505.9073   1416.74988     776.1165     505.9073
   1416.73462     775.8511     506.5977   1416.73462     775.8511     506.5977
   1416.71936     776.8867     507.3283   1416.71936     776.8867     507.3283
   1416.70410     777.8725     507.2177   1416.70410     777.8725     507.2177
   1416.68884     776.0893     508.2342   1416.68884     776.0893     508.2342
   1416.67358     777.7905     508.1606   1416.67358     777.7905     508.1606
   1416.65833     778.0251     507.8911   1416.65833     778.0251     507.8911
   1416.64307     779.1384     508.4030   1416.64307     779.1384     508.4030
   1416.62781     777.8661     508.5293   1416.62781     777.8661     508.5293
   1416.61255     777.5713     508.6729   1416.61255     777.5713     508.6729
   1416.59729     778.5354     509.2816   1416.59729     778.5354     509.2816
   1416.58203     779.7040     509.8176   1416.58203     779.7040     509.8176
   1416.56677     780.4344     510.1109   1416.56677     780.4344     510.1109
   1416.55151     779.2725     508.4179   1416.55151     779.2725     508.4179
   1416.53625     778.2463     510.0371   1416.53625     778.2463     510.0371
   1416.52100     779.7475     510.1628   1416.52100     779.7475     510.1628
   1416.50574     779.1110     510.4342   1416.50574     779.1110     510.4342
   1416.49048     778.4935     510.6445   1416.49048     778.4935     510.6445
   1416.47522     780.3308     510.4013   1416.47522     780.3308     510.4013
   1416.45996     779.6378     510.5709   1416.45996     779.6378     510.5709
   1416.44470     779.5863     510.8516   1416.44470     779.5863     510.8516
   1416.42944     779.3813     509.5906   1416.42944     779.3813     509.5906
   1416.41418     780.8235     511.0616   1416.41418     780.8235     511.0616
   1416.39893     778.8489     510.0700   1416.39893     778.8489     510.0700
   1416.38367     778.9128     510.5267   1416.38367     778.9128     510.5267
   1416.36841     778.6505     510.2753   1416.36841     778.6505     510.2753
   1416.35315     779.0594     509.9300   1416.35315     779.0594     509.9300
   1416.33789     778.8356     510.0446   1416.33789     778.8356     510.0446
   1416.32263     777.9390     509.7308   1416.32263     777.9390     509.7308
   1416.30737     778.8812     510.8051   1416.30737     778.8812     510.8051
   1416.29211     779.2117     509.1035   1416.29211     779.2117     509.1035
   1416.27686     776.2249     508.4175   1416.27686     776.2249     508.4175
   1416.26160     777.3927     508.6579   1416.26160     777.3927     508.6579
   1416.24634     776.7562     509.5365   1416.24634     776.7562     509.5365
   1416.23108     776.4734     508.6335   1416.23108     776.4734     508.6335
   1416.21582     775.7942     508.2672   1416.21582     775.7942     508.2672
   1416.20056     776.6162     508.6584   1416.20056     776.6162     508.6584
   1416.18530     776.2673     508.3710   1416.18530     776.2673     508.3710
   1416.17004     775.6686     507.4678   1416.17004     775.6686     507.4678
   1416.15479     776.0795     507.8200   1416.15479     776.0795     507.8200
   1416.13953     775.0202     507.4579   1416.13953     775.0202     507.4579
   1416.12427     774.9128     507.6082   1416.12427     774.9128     507.6082
   1416.10901     775.5851     507.0615   1416.10901     775.5851     507.0615
   1416.09375     774.8853     506.3327   1416.09375     774.8853     506.3327
   1416.07849     772.8421     505.7903   1416.07849     772.8421     505.7903
   1416.06323     773.0367     506.7336   1416.06323     773.0367     506.7336
   1416.04797     772.6552     505.3319   1416.04797     772.6552     505.3319
   1416.03271     772.2466     505.1061   1416.03271     772.2466     505.1061
   1416.01746     772.2531     506.0148   1416.01746     772.2531     506.0148
   1416.00220     771.5381     504.9742   1416.00220     771.5381     504.9742
   1415.98694     770.5426     504.1405   1415.98694     770.5426     504.1405
   1415.97168     769.3793     504.0044   1415.97168     769.3793     504.0044
   1415.95642     768.2671     503.9816   1415.95642     768.2671     503.9816
   1415.94116     769.7593     503.1261   1415.94116     769.7593     503.1261
   1415.92590     768.2316     502.1612   1415.92590     768.2316     502.1612
   1415.91064     766.8803     502.7342   1415.91064     766.8803     502.7342
   1415.89539     766.7120     501.7171   1415.89539     766.7120     501.7171
   1415.88013     766.0833     501.6545   1415.88013     766.0833     501.6545
   1415.86487     766.8815     501.2185   1415.86487     766.8815     501.2185
   1415.84961     765.8635     500.9402   1415.84961     765.8635     500.9402
   1415.83435     765.2964     500.3937   1415.83435     765.2964     500.3937
   1415.81909     764.7097     499.9041   1415.81909     764.7097     499.9041
   1415.80383     763.6342     499.7079   1415.80383     763.6342     499.7079
   1415.78857     762.4998     499.0289   1415.78857     762.4998     499.0289
   1415.77332     760.9734     498.5457   1415.77332     760.9734     498.5457
   1415.75806     761.2549     498.4109   1415.75806     761.2549     498.4109
   1415.74280     761.3446     497.1910   1415.74280     761.3446     497.1910
   1415.72754     760.4418     496.6299   1415.72754     760.4418     496.6299
   1415.71228     760.0231     496.5239   1415.71228     760.0231     496.5239
   1415.69702     758.2745     496.2872   1415.69702     758.2745     496.2872
   1415.68176     756.5831     495.7023   1415.68176     756.5831     495.7023
   1415.66650     755.9011     495.4372   1415.66650     755.9011     495.4372
   1415.65125     756.7108     494.6850   1415.65125     756.7108     494.6850
   1415.63599     755.0600     494.2529   1415.63599     755.0600     494.2529
   1415.62073     753.7117     493.3050   1415.62073     753.7117     493.3050
   1415.60547     754.3158     492.9918   1415.60547     754.3158     492.9918
   1415.59021     754.2697     492.4360   1415.59021     754.2697     492.4360
   1415.57495     751.5186     491.8062   1415.57495     751.5186     491.8062
   1415.55969     750.6096     491.3535   1415.55969     750.6096     491.3535
   1415.54443     750.5165     491.1143   1415.54443     750.5165     491.1143
   1415.52917     750.6406     490.0484   1415.52917     750.6406     490.0484
   1415.51392     747.6910     489.4839   1415.51392     747.6910     489.4839
   1415.49866     748.0249     488.5177   1415.49866     748.0249     488.5177
   1415.48340     746.7220     488.2472   1415.48340     746.7220     488.2472
   1415.46814     745.4866     489.0565   1415.46814     745.4866     489.0565
   1415.45288     744.5172     488.1974   1415.45288     744.5172     488.1974
   1415.43762     744.1264     486.7290   1415.43762     744.1264     486.7290
   1415.42236     742.3370     486.0762   1415.42236     742.3370     486.0762
   1415.40710     742.1526     485.4632   1415.40710     742.1526     485.4632
   1415.39185     740.8916     485.5966   1415.39185     740.8916     485.5966
   1415.37659     739.3086     483.6243   1415.37659     739.3086     483.6243
   1415.36133     738.6866     482.8810   1415.36133     738.6866     482.8810
   1415.34607     736.1855     482.8148   1415.34607     736.1855     482.8148
   1415.33081     736.7149     482.1781   1415.33081     736.7149     482.1781
   1415.31555     735.9315     481.4074   1415.31555     735.9315     481.4074
   1415.30029     734.5276     480.9818   1415.30029     734.5276     480.9818
   1415.28503     732.5290     480.4823   1415.28503     732.5290     480.4823
   1415.26978     732.6063     480.0060   1415.26978     732.6063     480.0060
   1415.25452     730.1218     478.6078   1415.25452     730.1218     478.6078
   1415.23926     728.1557     477.7675   1415.23926     728.1557     477.7675
   1415.22400     727.3527     477.7561   1415.22400     727.3527     477.7561
   1415.20874     726.4933     476.8632   1415.20874     726.4933     476.8632
   1415.19348     724.9197     476.5903   1415.19348     724.9197     476.5903
   1415.17822     724.3842     475.1240   1415.17822     724.3842     475.1240
   1415.16296     722.6591     474.7937   1415.16296     722.6591     474.7937
   1415.14771     722.1130     474.2712   1415.14771     722.1130     474.2712
   1415.13245     720.6607     471.8524   1415.13245     720.6607     471.8524
   1415.11719     719.4080     470.6886   1415.11719     719.4080     470.6886
   1415.10193     717.1886     470.6765   1415.10193     717.1886     470.6765
   1415.08667     716.8628     469.8608   1415.08667     716.8628     469.8608
   1415.07141     715.3788     469.0283   1415.07141     715.3788     469.0283
   1415.05615     714.2827     469.0080   1415.05615     714.2827     469.0080
   1415.04089     711.8549     467.6822   1415.04089     711.8549     467.6822
   1415.02563     710.3267     466.3286   1415.02563     710.3267     466.3286
   1415.01038     710.4883     466.4647   1415.01038     710.4883     466.4647
   1414.99512     707.9200     465.6175   1414.99512     707.9200     465.6175
   1414.97986     705.7451     464.1344   1414.97986     705.7451     464.1344
   1414.96460     703.9087     463.8756   1414.96460     703.9087     463.8756
   1414.94934     702.4170     462.5494   1414.94934     702.4170     462.5494
   1414.93408     702.0817     461.6108   1414.93408     702.0817     461.6108
   1414.91882     700.0179     459.7259   1414.91882     700.0179     459.7259
   1414.90356     698.4230     458.8988   1414.90356     698.4230     458.8988
   1414.88831     696.3170     457.6256   1414.88831     696.3170     457.6256
   1414.87305     694.6855     457.0728   1414.87305     694.6855     457.0728
   1414.85779     693.2565     456.5846   1414.85779     693.2565     456.5846
   1414.84253     689.9182     455.8680   1414.84253     689.9182     455.8680
   1414.82727     688.8734     454.1646   1414.82727     688.8734     454.1646
   1414.81201     687.5792     452.7209   1414.81201     687.5792     452.7209
   1414.79675     686.9567     452.3203   1414.79675     686.9567     452.3203
   1414.78149     684.2023     451.1441   1414.78149     684.2023     451.1441
   1414.76624     682.8071     450.3688   1414.76624     682.8071     450.3688
   1414.75098     680.8978     449.1359   1414.75098     680.8978     449.1359
   1414.73572     678.6007     447.7450   1414.73572     678.6007     447.7450
   1414.72046     676.7230     446.7816   1414.72046     676.7230     446.7816
   1414.70520     674.2809     445.0361   1414.70520     674.2809     445.0361
   1414.68994     673.4003     445.1071   1414.68994     673.4003     445.1071
   1414.67468     671.1295     444.2588   1414.67468     671.1295     444.2588
   1414.65942     669.9242     443.1956   1414.65942     669.9242     443.1956
   1414.64417     667.8046     441.3376   1414.64417     667.8046     441.3376
   1414.62891     666.6810     439.9051   1414.62891     666.6810     439.9051
   1414.61365     663.2249     438.2488   1414.61365     663.2249     438.2488
   1414.59839     661.0805     436.8759   1414.59839     661.0805     436.8759
   1414.58313     658.0283     436.1504   1414.58313     658.0283     436.1504
   1414.56787     656.5096     435.3224   1414.56787     656.5096     435.3224
   1414.55261     656.3604     433.7303   1414.55261     656.3604     433.7303
   1414.53735     652.1604     432.1711   1414.53735     652.1604     432.1711
   1414.52209     650.2028     431.3231   1414.52209     650.2028     431.3231
   1414.50684     647.9296     430.1814   1414.50684     647.9296     430.1814
   1414.49158     645.6208     428.1071   1414.49158     645.6208     428.1071
   1414.47632     643.7759     427.2911   1414.47632     643.7759     427.2911
   1414.46106     642.2622     425.7383   1414.46106     642.2622     425.7383
   1414.44580     639.0502     424.8205   1414.44580     639.0502     424.8205
   1414.43054     636.9669     422.9348   1414.43054     636.9669     422.9348
   1414.41528     635.2791     421.5296   1414.41528     635.2791     421.5296
   1414.40002     633.1287     420.5236   1414.40002     633.1287     420.5236
   1414.38477     629.8726     418.9913   1414.38477     629.8726     418.9913
   1414.36951     628.3976     416.8132   1414.36951     628.3976     416.8132
   1414.35425     625.3057     416.6287   1414.35425     625.3057     416.6287
   1414.33899     623.8119     414.8773   1414.33899     623.8119     414.8773
   1414.32373     620.9062     412.8394   1414.32373     620.9062     412.8394
   1414.30847     617.9878     412.3304   1414.30847     617.9878     412.3304
   1414.29321     615.6903     410.6192   1414.29321     615.6903     410.6192
   1414.27795     612.6738     408.6951   1414.27795     612.6738     408.6951
   1414.26270     610.2703     406.9528   1414.26270     610.2703     406.9528
   1414.24744     608.5729     406.4054   1414.24744     608.5729     406.4054
   1414.23218     606.0545     404.8981   1414.23218     606.0545     404.8981
   1414.21692     603.5620     403.3257   1414.21692     603.5620     403.3257
   1414.20166     601.2602     401.2731   1414.20166     601.2602     401.2731
   1414.18640     597.7322     399.9574   1414.18640     597.7322     399.9574
   1414.17114     595.0363     398.4734   1414.17114     595.0363     398.4734
   1414.15588     594.1942     397.6231   1414.15588     594.1942     397.6231
   1414.14062     590.6865     395.5018   1414.14062     590.6865     395.5018
   1414.12537     587.7943     393.7976   1414.12537     587.7943     393.7976
   1414.11011     585.0729     391.9995   1414.11011     585.0729     391.9995
   1414.09485     582.2258     390.6452   1414.09485     582.2258     390.6452
   1414.07959     579.4894     389.2133   1414.07959     579.4894     389.2133
   1414.06433     576.7306     387.3659   1414.06433     576.7306     387.3659
   1414.04907     574.2639     385.5252   1414.04907     574.2639     385.5252
   1414.03381     572.4496     383.4142   1414.03381     572.4496     383.4142
   1414.01855     569.6859     382.9724   1414.01855     569.6859     382.9724
   1414.00330     594.4932     389.0969   1414.00330     594.4932     389.0969
   1413.98804     565.4639     380.1808   1413.98804     565.4639     380.1808
   1413.97278     561.2202     377.6211   1413.97278     561.2202     377.6211
   1413.95752     558.2934     376.1790   1413.95752     558.2934     376.1790
   1413.94226     556.6608     374.4978   1413.94226     556.6608     374.4978
   1413.92700     552.5868     372.8671   1413.92700     552.5868     372.8671
   1413.91174     549.8356     371.7615   1413.91174     549.8356     371.7615
   1413.89648     546.6450     369.3191   1413.89648     546.6450     369.3191
   1413.88123     543.8561     367.7640   1413.88123     543.8561     367.7640
   1413.86597     541.5407     366.4663   1413.86597     541.5407     366.4663
   1413.85071     538.5479     364.6395   1413.85071     538.5479     364.6395
   1413.83545     536.0381     362.1379   1413.83545     536.0381     362.1379
   1413.82019     532.9789     361.2735   1413.82019     532.9789     361.2735
   1413.80493     530.6151     359.8566   1413.80493     530.6151     359.8566
   1413.78967     527.5860     357.6740   1413.78967     527.5860     357.6740
   1413.77441     523.8505     356.0625   1413.77441     523.8505     356.0625
   1413.75916     521.6094     354.0177   1413.75916     521.6094     354.0177
   1413.74390     518.9299     352.7276   1413.74390     518.9299     352.7276
   1413.72864     516.2236     351.1472   1413.72864     516.2236     351.1472
   1413.71338     513.8150     349.3108   1413.71338     513.8150     349.3108
   1413.69812     510.4274     347.7119   1413.69812     510.4274     347.7119
   1413.68286     507.5123     345.6269   1413.68286     507.5123     345.6269
   1413.66760     504.6359     344.0677   1413.66760     504.6359     344.0677
   1413.65234     501.7870     342.0531   1413.65234     501.7870     342.0531
   1413.63708     499.1989     340.8818   1413.63708     499.1989     340.8818
   1413.62183     496.3783     338.9463   1413.62183     496.3783     338.9463
   1413.60657     494.1904     337.9532   1413.60657     494.1904     337.9532
   1413.59131     490.8681     336.1216   1413.59131     490.8681     336.1216
   1413.57605     488.8914     333.9876   1413.57605     488.8914     333.9876
   1413.56079     484.9948     332.6065   1413.56079     484.9948     332.6065
   1413.54553     482.8253     330.9677   1413.54553     482.8253     330.9677
   1413.53027     479.9846     329.3980   1413.53027     479.9846     329.3980
   1413.51501     476.3430     327.1035   1413.51501     476.3430     327.1035
   1413.49976     473.1781     326.4050   1413.49976     473.1781     326.4050
   1413.48450     471.3682     324.3936   1413.48450     471.3682     324.3936
   1413.46924     468.6667     322.4635   1413.46924     468.6667     322.4635
   1413.45398     466.1248     320.9785   1413.45398     466.1248     320.9785
   1413.43872     462.6758     319.6765   1413.43872     462.6758     319.6765
   1413.42346     460.7439     317.4200   1413.42346     460.7439     317.4200
   1413.40820     457.4583     316.1841   1413.40820     457.4583     316.1841
   1413.39294     455.2645     314.6924   1413.39294     455.2645     314.6924
   1413.37769     452.9037     312.8239   1413.37769     452.9037     312.8239
   1413.36243     450.5699     311.2216   1413.36243     450.5699     311.2216
   1413.34717     447.9576     310.0422   1413.34717     447.9576     310.0422
   1413.33191     444.7910     307.8893   1413.33191     444.7910     307.8893
   1413.31665     441.9920     306.7447   1413.31665     441.9920     306.7447
   1413.30139     439.7264     305.0970   1413.30139     439.7264     305.0970
   1413.28613     436.8813     304.0809   1413.28613     436.8813     304.0809
   1413.27087     435.0082     302.4757   1413.27087     435.0082     302.4757
   1413.25562     432.1382     300.8281   1413.25562     432.1382     300.8281
   1413.24036     429.8030     298.8629   1413.24036     429.8030     298.8629
   1413.22510     427.4152     297.5426   1413.22510     427.4152     297.5426
   1413.20984     424.7051     296.5659   1413.20984     424.7051     296.5659
   1413.19458     422.6915     295.2577   1413.19458     422.6915     295.2577
   1413.17932     419.8214     293.2038   1413.17932     419.8214     293.2038
   1413.16406     417.6987     292.1221   1413.16406     417.6987     292.1221
   1413.14880     415.6418     290.7777   1413.14880     415.6418     290.7777
   1413.13354     413.0802     289.5900   1413.13354     413.0802     289.5900
   1413.11829     411.0518     288.4340   1413.11829     411.0518     288.4340
   1413.10303     408.5473     286.7889   1413.10303     408.5473     286.7889
   1413.08777     406.0183     285.4778   1413.08777     406.0183     285.4778
   1413.07251     404.4563     284.1583   1413.07251     404.4563     284.1583
   1413.05725     402.1137     282.9116   1413.05725     402.1137     282.9116
   1413.04199     400.0023     281.6516   1413.04199     400.0023     281.6516
   1413.02673     397.8782     280.4644   1413.02673     397.8782     280.4644
   1413.01147     395.3287     279.6257   1413.01147     395.3287     279.6257
   1412.99622     394.0410     278.1912   1412.99622     394.0410     278.1912
   1412.98096     392.1102     276.9465   1412.98096     392.1102     276.9465
   1412.96570     390.4980     275.6678   1412.96570     390.4980     275.6678
   1412.95044     388.2615     275.0890   1412.95044     388.2615     275.0890
   1412.93518     386.2290     273.8885   1412.93518     386.2290     273.8885
   1412.91992     384.3405     272.4468   1412.91992     384.3405     272.4468
   1412.90466     383.1897     271.3841   1412.90466     383.1897     271.3841
   1412.88940     381.0995     270.4865   1412.88940     381.0995     270.4865
   1412.87415     379.3066     269.6907   1412.87415     379.3066     269.6907
   1412.85889     377.8839     268.9495   1412.85889     377.8839     268.9495
   1412.84363     375.9837     267.6774   1412.84363     375.9837     267.6774
   1412.82837     374.5800     266.6785   1412.82837     374.5800     266.6785
   1412.81311     372.7204     266.2199   1412.81311     372.7204     266.2199
   1412.79785     371.0031     265.0216   1412.79785     371.0031     265.0216
   1412.78259     370.5029     264.3314   1412.78259     370.5029     264.3314
   1412.76733     368.4368     263.5079   1412.76733     368.4368     263.5079
   1412.75208     367.9745     263.0184   1412.75208     367.9745     263.0184
   1412.73682     366.8530     262.0708   1412.73682     366.8530     262.0708
   1412.72156     364.6350     262.0197   1412.72156     364.6350     262.0197
   1412.70630     363.5289     260.7124   1412.70630     363.5289     260.7124
   1412.69104     362.5486     260.2571   1412.69104     362.5486     260.2571
   1412.67578     361.3786     260.0234   1412.67578     361.3786     260.0234
   1412.66052     360.8484     259.1490   1412.66052     360.8484     259.1490
   1412.64526     359.6858     258.7734   1412.64526     359.6858     258.7734
   1412.63000     358.8256     257.6208   1412.63000     358.8256     257.6208
   1412.61475     358.3193     257.7934   1412.61475     358.3193     257.7934
   1412.59949     356.5968     257.4767   1412.59949     356.5968     257.4767
   1412.58423     356.5859     256.7560   1412.58423     356.5859     256.7560
   1412.56897     355.2979     256.6871   1412.56897     355.2979     256.6871
   1412.55371     355.0623     256.0183   1412.55371     355.0623     256.0183
   1412.53845     354.2719     256.1559   1412.53845     354.2719     256.1559
   1412.52319     353.5644     255.7570   1412.52319     353.5644     255.7570
   1412.50793     352.6619     255.5115   1412.50793     352.6619     255.5115
   1412.49268     352.8693     255.2841   1412.49268     352.8693     255.2841
   1412.47742     351.6334     255.3126   1412.47742     351.6334     255.3126
   1412.46216     351.5675     255.0123   1412.46216     351.5675     255.0123
   1412.44690     351.7211     254.9595   1412.44690     351.7211     254.9595
   1412.43164     351.1123     254.7650   1412.43164     351.1123     254.7650
   1412.41638     350.6547     254.7417   1412.41638     350.6547     254.7417
   1412.40112     350.6082     254.9966   1412.40112     350.6082     254.9966
   1412.38586     350.4532     255.1013   1412.38586     350.4532     255.1013
   1412.37061     350.7758     255.2916   1412.37061     350.7758     255.2916
   1412.35535     350.7129     255.2476   1412.35535     350.7129     255.2476
   1412.34009     350.5230     255.4787   1412.34009     350.5230     255.4787
   1412.32483     350.0251     255.7001   1412.32483     350.0251     255.7001
   1412.30957     350.7598     256.5929   1412.30957     350.7598     256.5929
   1412.29431     350.8501     256.5223   1412.29431     350.8501     256.5223
   1412.27905     351.1065     256.9922   1412.27905     351.1065     256.9922
   1412.26379     350.9897     257.4771   1412.26379     350.9897     257.4771
   1412.24854     351.8856     257.4575   1412.24854     351.8856     257.4575
   1412.23328     351.5639     258.0858   1412.23328     351.5639     258.0858
   1412.21802     352.8161     258.8628   1412.21802     352.8161     258.8628
   1412.20276     353.1661     259.1296   1412.20276     353.1661     259.1296