#     FILENAME=!Skynet_57528_lach-hhg-157_20514_20981.cyb.fits
#     BASENAME=Skynet_57528_lach-hhg-157_20514_20981
#     SRC_NAME=lach-hhg-157
#     OBSERVER=hhgmadison16_9500
#     DATE_OBS=2016-05-20T17:51:48.930
#        OBSID=20514
#      SCANNUM=20981
#          MJD=57528.7454
#          UTC=64398
#     SCANTYPE=track
#     DATAMODE=HIRES
#     TUNEFREQ=1420.0000
# Actual_FREQ1=1420.0000
# Actual_FREQ2=1420.0000
#    LO1Tuning=6870.000
#     RFFILTER=1355_1435
#        OBSBW=-15.6250
#        NCHAN=1024 
#        FOCUS=37.0709
#           RA=04:35:25.80
#          DEC=47:29:48.47
#      RA(hrs)=4.590500
#     DEC(deg)=47.496800
#    AZIM(deg)=8.998
#    ELEV(deg)=80.699
#     IFattens=10.00, 9.00
#      WARNING=None
#    TCAL_XL1=7.9635
#    TCAL_YR1=9.1340
#    TCAL_XL2=7.9635
#    TCAL_YR2=9.1340
#     TRX_XL1=11.7060
#     TRX_YR1=11.7060
#     TRX_XL2=11.7060
#     TRX_YR2=11.7060
#        TAVE=1.0000
#Freq1(MHz)          XL1          YR1  Freq2(MHz)          XL2          YR2 

   1427.81250     376.2852     338.7053   1427.81250     376.2852     338.7053
   1427.79724     377.4797     339.8653   1427.79724     377.4797     339.8653
   1427.78198     378.0336     341.6714   1427.78198     378.0336     341.6714
   1427.76672     379.0145     343.7411   1427.76672     379.0145     343.7411
   1427.75146     380.1404     345.3721   1427.75146     380.1404     345.3721
   1427.73621     380.5836     347.4182   1427.73621     380.5836     347.4182
   1427.72095     381.5991     348.6017   1427.72095     381.5991     348.6017
   1427.70569     383.2491     350.9309   1427.70569     383.2491     350.9309
   1427.69043     382.9508     352.8194   1427.69043     382.9508     352.8194
   1427.67517     384.5915     354.9202   1427.67517     384.5915     354.9202
   1427.65991     385.5180     356.3758   1427.65991     385.5180     356.3758
   1427.64465     386.6650     357.7135   1427.64465     386.6650     357.7135
   1427.62939     388.2797     360.2451   1427.62939     388.2797     360.2451
   1427.61414     388.6422     362.3617   1427.61414     388.6422     362.3617
   1427.59888     390.5471     364.8510   1427.59888     390.5471     364.8510
   1427.58362     391.7000     366.8102   1427.58362     391.7000     366.8102
   1427.56836     393.2461     368.9206   1427.56836     393.2461     368.9206
   1427.55310     395.3740     371.4200   1427.55310     395.3740     371.4200
   1427.53784     396.3103     373.3529   1427.53784     396.3103     373.3529
   1427.52258     397.7945     375.6578   1427.52258     397.7945     375.6578
   1427.50732     400.1234     378.1277   1427.50732     400.1234     378.1277
   1427.49207     401.3894     381.0243   1427.49207     401.3894     381.0243
   1427.47681     403.0671     382.7287   1427.47681     403.0671     382.7287
   1427.46155     404.9795     385.8762   1427.46155     404.9795     385.8762
   1427.44629     405.9117     388.1181   1427.44629     405.9117     388.1181
   1427.43103     408.3332     390.3870   1427.43103     408.3332     390.3870
   1427.41577     410.6730     393.4055   1427.41577     410.6730     393.4055
   1427.40051     411.9961     394.7044   1427.40051     411.9961     394.7044
   1427.38525     413.3987     398.5435   1427.38525     413.3987     398.5435
   1427.37000     416.1289     400.2933   1427.37000     416.1289     400.2933
   1427.35474     417.8705     403.5817   1427.35474     417.8705     403.5817
   1427.33948     420.2810     406.6528   1427.33948     420.2810     406.6528
   1427.32422     421.6225     408.5321   1427.32422     421.6225     408.5321
   1427.30896     424.4412     410.8036   1427.30896     424.4412     410.8036
   1427.29370     427.1658     414.1587   1427.29370     427.1658     414.1587
   1427.27844     429.3270     416.6803   1427.27844     429.3270     416.6803
   1427.26318     431.2224     419.5206   1427.26318     431.2224     419.5206
   1427.24792     433.1823     422.1146   1427.24792     433.1823     422.1146
   1427.23267     435.6914     424.6097   1427.23267     435.6914     424.6097
   1427.21741     438.5829     428.1122   1427.21741     438.5829     428.1122
   1427.20215     441.5664     430.4827   1427.20215     441.5664     430.4827
   1427.18689     443.8005     432.3819   1427.18689     443.8005     432.3819
   1427.17163     446.1602     435.7591   1427.17163     446.1602     435.7591
   1427.15637     448.5659     438.1460   1427.15637     448.5659     438.1460
   1427.14111     451.2510     441.2953   1427.14111     451.2510     441.2953
   1427.12585     453.9815     443.5994   1427.12585     453.9815     443.5994
   1427.11060     456.3703     446.7960   1427.11060     456.3703     446.7960
   1427.09534     458.7042     450.0818   1427.09534     458.7042     450.0818
   1427.08008     461.8401     452.1657   1427.08008     461.8401     452.1657
   1427.06482     464.5678     455.1599   1427.06482     464.5678     455.1599
   1427.04956     467.2228     457.4462   1427.04956     467.2228     457.4462
   1427.03430     469.4427     460.8724   1427.03430     469.4427     460.8724
   1427.01904     471.8605     463.0616   1427.01904     471.8605     463.0616
   1427.00378     474.9871     466.4876   1427.00378     474.9871     466.4876
   1426.98853     478.0152     468.3869   1426.98853     478.0152     468.3869
   1426.97327     480.8126     470.5030   1426.97327     480.8126     470.5030
   1426.95801     483.0689     473.4248   1426.95801     483.0689     473.4248
   1426.94275     486.3997     476.3323   1426.94275     486.3997     476.3323
   1426.92749     489.9828     479.4200   1426.92749     489.9828     479.4200
   1426.91223     492.3822     482.4180   1426.91223     492.3822     482.4180
   1426.89697     495.8824     484.1338   1426.89697     495.8824     484.1338
   1426.88171     497.7904     487.1479   1426.88171     497.7904     487.1479
   1426.86646     502.1554     489.6557   1426.86646     502.1554     489.6557
   1426.85120     503.6820     492.2679   1426.85120     503.6820     492.2679
   1426.83594     507.6887     494.5565   1426.83594     507.6887     494.5565
   1426.82068     510.7868     496.7635   1426.82068     510.7868     496.7635
   1426.80542     512.7212     499.3230   1426.80542     512.7212     499.3230
   1426.79016     516.5830     503.1327   1426.79016     516.5830     503.1327
   1426.77490     518.9111     505.0646   1426.77490     518.9111     505.0646
   1426.75964     522.6128     507.6237   1426.75964     522.6128     507.6237
   1426.74438     526.0280     510.1494   1426.74438     526.0280     510.1494
   1426.72913     528.5792     512.4203   1426.72913     528.5792     512.4203
   1426.71387     531.5394     514.8963   1426.71387     531.5394     514.8963
   1426.69861     534.3345     516.7855   1426.69861     534.3345     516.7855
   1426.68335     537.8134     519.0641   1426.68335     537.8134     519.0641
   1426.66809     540.3695     521.2388   1426.66809     540.3695     521.2388
   1426.65283     543.7352     523.9407   1426.65283     543.7352     523.9407
   1426.63757     548.0147     526.7741   1426.63757     548.0147     526.7741
   1426.62231     551.8195     531.2578   1426.62231     551.8195     531.2578
   1426.60706     552.8049     530.7757   1426.60706     552.8049     530.7757
   1426.59180     556.5706     533.2838   1426.59180     556.5706     533.2838
   1426.57654     559.8940     534.8415   1426.57654     559.8940     534.8415
   1426.56128     562.7439     537.3317   1426.56128     562.7439     537.3317
   1426.54602     566.9288     539.2672   1426.54602     566.9288     539.2672
   1426.53076     567.9513     542.1467   1426.53076     567.9513     542.1467
   1426.51550     571.6642     544.4226   1426.51550     571.6642     544.4226
   1426.50024     574.6571     545.6269   1426.50024     574.6571     545.6269
   1426.48499     577.9380     547.8698   1426.48499     577.9380     547.8698
   1426.46973     580.6252     549.5195   1426.46973     580.6252     549.5195
   1426.45447     584.4095     551.8821   1426.45447     584.4095     551.8821
   1426.43921     587.5702     553.6274   1426.43921     587.5702     553.6274
   1426.42395     591.1225     555.9149   1426.42395     591.1225     555.9149
   1426.40869     593.9888     557.3735   1426.40869     593.9888     557.3735
   1426.39343     596.2793     559.4926   1426.39343     596.2793     559.4926
   1426.37817     599.7315     561.6059   1426.37817     599.7315     561.6059
   1426.36292     602.5271     562.6382   1426.36292     602.5271     562.6382
   1426.34766     605.2718     564.7119   1426.34766     605.2718     564.7119
   1426.33240     608.2802     566.3536   1426.33240     608.2802     566.3536
   1426.31714     610.7693     568.2488   1426.31714     610.7693     568.2488
   1426.30188     614.0618     570.2204   1426.30188     614.0618     570.2204
   1426.28662     616.9631     572.2678   1426.28662     616.9631     572.2678
   1426.27136     620.3500     573.1987   1426.27136     620.3500     573.1987
   1426.25610     623.7172     575.1006   1426.25610     623.7172     575.1006
   1426.24084     625.4890     576.4080   1426.24084     625.4890     576.4080
   1426.22559     629.0303     577.8790   1426.22559     629.0303     577.8790
   1426.21033     631.6853     579.7128   1426.21033     631.6853     579.7128
   1426.19507     634.6989     580.3329   1426.19507     634.6989     580.3329
   1426.17981     637.7441     583.1047   1426.17981     637.7441     583.1047
   1426.16455     639.6866     582.2771   1426.16455     639.6866     582.2771
   1426.14929     642.7061     585.3922   1426.14929     642.7061     585.3922
   1426.13403     645.2284     586.8334   1426.13403     645.2284     586.8334
   1426.11877     647.4030     588.7742   1426.11877     647.4030     588.7742
   1426.10352     649.8987     589.8500   1426.10352     649.8987     589.8500
   1426.08826     653.9048     591.0364   1426.08826     653.9048     591.0364
   1426.07300     656.7098     592.6564   1426.07300     656.7098     592.6564
   1426.05774     658.7991     593.4110   1426.05774     658.7991     593.4110
   1426.04248     661.0956     594.6089   1426.04248     661.0956     594.6089
   1426.02722     662.7527     595.3405   1426.02722     662.7527     595.3405
   1426.01196     665.4094     596.9359   1426.01196     665.4094     596.9359
   1425.99670     668.4010     597.9907   1425.99670     668.4010     597.9907
   1425.98145     671.9638     598.5934   1425.98145     671.9638     598.5934
   1425.96619     672.9295     599.6649   1425.96619     672.9295     599.6649
   1425.95093     676.4357     601.4428   1425.95093     676.4357     601.4428
   1425.93567     679.0225     603.2414   1425.93567     679.0225     603.2414
   1425.92041     681.3788     603.8058   1425.92041     681.3788     603.8058
   1425.90515     683.7627     604.8152   1425.90515     683.7627     604.8152
   1425.88989     686.0421     606.7197   1425.88989     686.0421     606.7197
   1425.87463     688.4922     606.7623   1425.87463     688.4922     606.7623
   1425.85938     690.2761     607.3563   1425.85938     690.2761     607.3563
   1425.84412     691.9544     608.4882   1425.84412     691.9544     608.4882
   1425.82886     694.4404     609.0546   1425.82886     694.4404     609.0546
   1425.81360     696.2224     609.0806   1425.81360     696.2224     609.0806
   1425.79834     699.4983     611.2936   1425.79834     699.4983     611.2936
   1425.78308     701.1902     611.8567   1425.78308     701.1902     611.8567
   1425.76782     702.7640     612.8215   1425.76782     702.7640     612.8215
   1425.75256     704.7809     613.5726   1425.75256     704.7809     613.5726
   1425.73730     707.6941     614.7539   1425.73730     707.6941     614.7539
   1425.72205     709.6500     614.5441   1425.72205     709.6500     614.5441
   1425.70679     710.7042     615.4770   1425.70679     710.7042     615.4770
   1425.69153     713.5368     615.8336   1425.69153     713.5368     615.8336
   1425.67627     715.9164     615.6182   1425.67627     715.9164     615.6182
   1425.66101     717.3773     616.6035   1425.66101     717.3773     616.6035
   1425.64575     718.0527     617.5724   1425.64575     718.0527     617.5724
   1425.63049     720.5602     618.5944   1425.63049     720.5602     618.5944
   1425.61523     722.0636     619.4405   1425.61523     722.0636     619.4405
   1425.59998     723.2034     619.5088   1425.59998     723.2034     619.5088
   1425.58472     725.5851     620.2362   1425.58472     725.5851     620.2362
   1425.56946     728.4852     620.8605   1425.56946     728.4852     620.8605
   1425.55420     728.8123     620.8542   1425.55420     728.8123     620.8542
   1425.53894     730.3486     621.0764   1425.53894     730.3486     621.0764
   1425.52368     731.3736     622.9567   1425.52368     731.3736     622.9567
   1425.50842     733.4134     623.1889   1425.50842     733.4134     623.1889
   1425.49316     735.3515     623.1236   1425.49316     735.3515     623.1236
   1425.47791     737.2725     624.3975   1425.47791     737.2725     624.3975
   1425.46265     736.0407     623.2054   1425.46265     736.0407     623.2054
   1425.44739     739.7090     624.0710   1425.44739     739.7090     624.0710
   1425.43213     740.2783     624.1542   1425.43213     740.2783     624.1542
   1425.41687     741.9177     626.1013   1425.41687     741.9177     626.1013
   1425.40161     742.4386     625.3884   1425.40161     742.4386     625.3884
   1425.38635     743.6882     626.4976   1425.38635     743.6882     626.4976
   1425.37109     745.5298     626.6697   1425.37109     745.5298     626.6697
   1425.35583     746.7692     625.5242   1425.35583     746.7692     625.5242
   1425.34058     747.6667     626.3169   1425.34058     747.6667     626.3169
   1425.32532     749.0096     627.2629   1425.32532     749.0096     627.2629
   1425.31006     749.4269     627.3515   1425.31006     749.4269     627.3515
   1425.29480     750.0505     626.9501   1425.29480     750.0505     626.9501
   1425.27954     752.4616     626.8026   1425.27954     752.4616     626.8026
   1425.26428     753.6193     627.0427   1425.26428     753.6193     627.0427
   1425.24902     755.6693     626.8835   1425.24902     755.6693     626.8835
   1425.23376     756.0585     628.1501   1425.23376     756.0585     628.1501
   1425.21851     756.0900     628.1075   1425.21851     756.0900     628.1075
   1425.20325     756.6533     627.3500   1425.20325     756.6533     627.3500
   1425.18799     757.1811     627.5255   1425.18799     757.1811     627.5255
   1425.17273     757.1086     627.7889   1425.17273     757.1086     627.7889
   1425.15747     759.0070     628.4638   1425.15747     759.0070     628.4638
   1425.14221     760.0967     628.1965   1425.14221     760.0967     628.1965
   1425.12695     760.8104     629.4212   1425.12695     760.8104     629.4212
   1425.11169     761.9563     627.7322   1425.11169     761.9563     627.7322
   1425.09644     762.8622     628.2629   1425.09644     762.8622     628.2629
   1425.08118     761.6334     628.4235   1425.08118     761.6334     628.4235
   1425.06592     763.5730     628.3452   1425.06592     763.5730     628.3452
   1425.05066     763.3181     629.0485   1425.05066     763.3181     629.0485
   1425.03540     765.7247     628.3104   1425.03540     765.7247     628.3104
   1425.02014     765.9183     628.1727   1425.02014     765.9183     628.1727
   1425.00488     766.2648     628.3971   1425.00488     766.2648     628.3971
   1424.98962     765.6609     627.8086   1424.98962     765.6609     627.8086
   1424.97437     767.3005     628.8481   1424.97437     767.3005     628.8481
   1424.95911     766.8005     628.2183   1424.95911     766.8005     628.2183
   1424.94385     767.9089     627.6701   1424.94385     767.9089     627.6701
   1424.92859     767.8481     627.5152   1424.92859     767.8481     627.5152
   1424.91333     768.7173     627.0993   1424.91333     768.7173     627.0993
   1424.89807     768.9358     627.5202   1424.89807     768.9358     627.5202
   1424.88281     769.1611     627.2324   1424.88281     769.1611     627.2324
   1424.86755     768.6985     627.2993   1424.86755     768.6985     627.2993
   1424.85229     769.5243     626.3461   1424.85229     769.5243     626.3461
   1424.83704     770.1738     627.8599   1424.83704     770.1738     627.8599
   1424.82178     771.7161     626.9147   1424.82178     771.7161     626.9147
   1424.80652     771.2829     625.7366   1424.80652     771.2829     625.7366
   1424.79126     771.5732     626.0481   1424.79126     771.5732     626.0481
   1424.77600     771.0306     626.3427   1424.77600     771.0306     626.3427
   1424.76074     771.7337     625.6436   1424.76074     771.7337     625.6436
   1424.74548     769.9675     625.0393   1424.74548     769.9675     625.0393
   1424.73022     771.7189     624.4166   1424.73022     771.7189     624.4166
   1424.71497     771.3502     623.9615   1424.71497     771.3502     623.9615
   1424.69971     772.3239     624.1531   1424.69971     772.3239     624.1531
   1424.68445     770.5760     624.0254   1424.68445     770.5760     624.0254
   1424.66919     771.4720     624.5735   1424.66919     771.4720     624.5735
   1424.65393     770.7647     623.5207   1424.65393     770.7647     623.5207
   1424.63867     772.2764     623.7048   1424.63867     772.2764     623.7048
   1424.62341     770.7382     623.2635   1424.62341     770.7382     623.2635
   1424.60815     771.2975     620.7123   1424.60815     771.2975     620.7123
   1424.59290     771.2113     623.0114   1424.59290     771.2113     623.0114
   1424.57764     769.5087     621.4136   1424.57764     769.5087     621.4136
   1424.56238     770.4805     621.4874   1424.56238     770.4805     621.4874
   1424.54712     770.7671     620.4755   1424.54712     770.7671     620.4755
   1424.53186     770.8141     620.9949   1424.53186     770.8141     620.9949
   1424.51660     770.5786     619.4568   1424.51660     770.5786     619.4568
   1424.50134     771.1520     619.6680   1424.50134     771.1520     619.6680
   1424.48608     769.7322     619.5000   1424.48608     769.7322     619.5000
   1424.47083     770.6455     619.7813   1424.47083     770.6455     619.7813
   1424.45557     769.3323     618.2427   1424.45557     769.3323     618.2427
   1424.44031     768.7352     618.6129   1424.44031     768.7352     618.6129
   1424.42505     769.2952     618.3530   1424.42505     769.2952     618.3530
   1424.40979     769.2014     617.2260   1424.40979     769.2014     617.2260
   1424.39453     769.6884     617.2426   1424.39453     769.6884     617.2426
   1424.37927     769.0909     616.5926   1424.37927     769.0909     616.5926
   1424.36401     768.2230     616.9346   1424.36401     768.2230     616.9346
   1424.34875     767.8754     616.7303   1424.34875     767.8754     616.7303
   1424.33350     768.1348     614.8608   1424.33350     768.1348     614.8608
   1424.31824     767.9814     614.5970   1424.31824     767.9814     614.5970
   1424.30298     766.0381     613.8603   1424.30298     766.0381     613.8603
   1424.28772     766.2793     614.5656   1424.28772     766.2793     614.5656
   1424.27246     765.3851     613.8816   1424.27246     765.3851     613.8816
   1424.25720     765.6992     613.6080   1424.25720     765.6992     613.6080
   1424.24194     766.0180     613.5199   1424.24194     766.0180     613.5199
   1424.22668     765.3161     612.9445   1424.22668     765.3161     612.9445
   1424.21143     766.3949     611.3320   1424.21143     766.3949     611.3320
   1424.19617     764.9099     611.8530   1424.19617     764.9099     611.8530
   1424.18091     764.1921     611.5197   1424.18091     764.1921     611.5197
   1424.16565     764.0089     610.8292   1424.16565     764.0089     610.8292
   1424.15039     763.3915     609.5500   1424.15039     763.3915     609.5500
   1424.13513     762.5532     609.5857   1424.13513     762.5532     609.5857
   1424.11987     762.7451     609.6445   1424.11987     762.7451     609.6445
   1424.10461     761.6890     608.3055   1424.10461     761.6890     608.3055
   1424.08936     760.7888     608.2021   1424.08936     760.7888     608.2021
   1424.07410     761.2154     607.7087   1424.07410     761.2154     607.7087
   1424.05884     759.6810     607.0111   1424.05884     759.6810     607.0111
   1424.04358     759.6392     607.8880   1424.04358     759.6392     607.8880
   1424.02832     759.5756     606.2692   1424.02832     759.5756     606.2692
   1424.01306     758.4715     605.4672   1424.01306     758.4715     605.4672
   1423.99780     759.1157     604.9980   1423.99780     759.1157     604.9980
   1423.98254     758.7513     605.0141   1423.98254     758.7513     605.0141
   1423.96729     758.6288     604.7227   1423.96729     758.6288     604.7227
   1423.95203     756.8940     603.1022   1423.95203     756.8940     603.1022
   1423.93677     757.9559     602.9722   1423.93677     757.9559     602.9722
   1423.92151     757.6575     603.0732   1423.92151     757.6575     603.0732
   1423.90625     755.6087     601.4468   1423.90625     755.6087     601.4468
   1423.89099     755.4361     601.8027   1423.89099     755.4361     601.8027
   1423.87573     754.9003     601.0698   1423.87573     754.9003     601.0698
   1423.86047     754.5927     601.3925   1423.86047     754.5927     601.3925
   1423.84521     753.4293     599.4181   1423.84521     753.4293     599.4181
   1423.82996     753.8843     599.0527   1423.82996     753.8843     599.0527
   1423.81470     752.7569     598.5731   1423.81470     752.7569     598.5731
   1423.79944     754.2407     598.2341   1423.79944     754.2407     598.2341
   1423.78418     752.6193     598.0280   1423.78418     752.6193     598.0280
   1423.76892     751.9662     597.1585   1423.76892     751.9662     597.1585
   1423.75366     751.4759     596.1414   1423.75366     751.4759     596.1414
   1423.73840     749.7294     595.3367   1423.73840     749.7294     595.3367
   1423.72314     750.0465     595.4891   1423.72314     750.0465     595.4891
   1423.70789     750.6130     594.9872   1423.70789     750.6130     594.9872
   1423.69263     749.4536     593.5289   1423.69263     749.4536     593.5289
   1423.67737     748.2902     593.8738   1423.67737     748.2902     593.8738
   1423.66211     748.3434     592.7645   1423.66211     748.3434     592.7645
   1423.64685     748.2693     592.8832   1423.64685     748.2693     592.8832
   1423.63159     746.4437     592.1981   1423.63159     746.4437     592.1981
   1423.61633     747.0884     590.9672   1423.61633     747.0884     590.9672
   1423.60107     746.6466     590.9191   1423.60107     746.6466     590.9191
   1423.58582     745.9539     590.6149   1423.58582     745.9539     590.6149
   1423.57056     744.8026     589.5448   1423.57056     744.8026     589.5448
   1423.55530     745.1383     589.0936   1423.55530     745.1383     589.0936
   1423.54004     744.7719     588.0519   1423.54004     744.7719     588.0519
   1423.52478     744.4839     587.9984   1423.52478     744.4839     587.9984
   1423.50952     744.2540     587.1387   1423.50952     744.2540     587.1387
   1423.49426     742.9717     587.3894   1423.49426     742.9717     587.3894
   1423.47900     741.9341     585.2188   1423.47900     741.9341     585.2188
   1423.46375     742.8011     584.4063   1423.46375     742.8011     584.4063
   1423.44849     741.3604     584.8945   1423.44849     741.3604     584.8945
   1423.43323     741.2274     584.6161   1423.43323     741.2274     584.6161
   1423.41797     740.7942     583.3391   1423.41797     740.7942     583.3391
   1423.40271     739.8069     583.0789   1423.40271     739.8069     583.0789
   1423.38745     740.5833     582.2192   1423.38745     740.5833     582.2192
   1423.37219     739.8892     581.2526   1423.37219     739.8892     581.2526
   1423.35693     737.7738     580.8541   1423.35693     737.7738     580.8541
   1423.34167     738.9931     580.4001   1423.34167     738.9931     580.4001
   1423.32642     737.5225     580.5241   1423.32642     737.5225     580.5241
   1423.31116     736.3530     579.1251   1423.31116     736.3530     579.1251
   1423.29590     736.3982     578.8087   1423.29590     736.3982     578.8087
   1423.28064     736.2168     577.7698   1423.28064     736.2168     577.7698
   1423.26538     735.1924     577.5276   1423.26538     735.1924     577.5276
   1423.25012     735.7559     576.9577   1423.25012     735.7559     576.9577
   1423.23486     735.4118     575.8442   1423.23486     735.4118     575.8442
   1423.21960     734.7068     574.2770   1423.21960     734.7068     574.2770
   1423.20435     733.7249     574.5135   1423.20435     733.7249     574.5135
   1423.18909     734.6242     573.1085   1423.18909     734.6242     573.1085
   1423.17383     734.0536     572.3622   1423.17383     734.0536     572.3622
   1423.15857     733.7845     572.7827   1423.15857     733.7845     572.7827
   1423.14331     731.9039     571.5043   1423.14331     731.9039     571.5043
   1423.12805     733.0836     570.6084   1423.12805     733.0836     570.6084
   1423.11279     732.8759     569.4971   1423.11279     732.8759     569.4971
   1423.09753     731.5948     569.7653   1423.09753     731.5948     569.7653
   1423.08228     730.5918     568.5383   1423.08228     730.5918     568.5383
   1423.06702     730.6868     567.9105   1423.06702     730.6868     567.9105
   1423.05176     731.6917     566.7643   1423.05176     731.6917     566.7643
   1423.03650     731.5788     566.7615   1423.03650     731.5788     566.7615
   1423.02124     730.4056     566.3723   1423.02124     730.4056     566.3723
   1423.00598     729.4603     564.9384   1423.00598     729.4603     564.9384
   1422.99072     728.6191     564.6667   1422.99072     728.6191     564.6667
   1422.97546     729.1899     564.6335   1422.97546     729.1899     564.6335
   1422.96021     729.6589     563.7050   1422.96021     729.6589     563.7050
   1422.94495     728.8706     562.7292   1422.94495     728.8706     562.7292
   1422.92969     729.7778     562.0695   1422.92969     729.7778     562.0695
   1422.91443     727.9819     561.6805   1422.91443     727.9819     561.6805
   1422.89917     727.2839     559.7678   1422.89917     727.2839     559.7678
   1422.88391     727.5253     560.2874   1422.88391     727.5253     560.2874
   1422.86865     728.2615     559.1465   1422.86865     728.2615     559.1465
   1422.85339     726.9389     558.7028   1422.85339     726.9389     558.7028
   1422.83813     726.7878     557.8088   1422.83813     726.7878     557.8088
   1422.82288     725.8851     555.9855   1422.82288     725.8851     555.9855
   1422.80762     726.1639     555.8492   1422.80762     726.1639     555.8492
   1422.79236     726.7864     554.5072   1422.79236     726.7864     554.5072
   1422.77710     726.1746     554.5040   1422.77710     726.1746     554.5040
   1422.76184     724.9761     553.2640   1422.76184     724.9761     553.2640
   1422.74658     725.1854     552.6412   1422.74658     725.1854     552.6412
   1422.73132     724.9349     552.2028   1422.73132     724.9349     552.2028
   1422.71606     724.3276     551.0878   1422.71606     724.3276     551.0878
   1422.70081     723.7894     551.3395   1422.70081     723.7894     551.3395
   1422.68555     724.9593     549.9752   1422.68555     724.9593     549.9752
   1422.67029     724.1427     548.6752   1422.67029     724.1427     548.6752
   1422.65503     723.3804     548.9268   1422.65503     723.3804     548.9268
   1422.63977     723.2058     547.3362   1422.63977     723.2058     547.3362
   1422.62451     724.2496     545.9513   1422.62451     724.2496     545.9513
   1422.60925     722.1554     545.8721   1422.60925     722.1554     545.8721
   1422.59399     723.8071     545.0878   1422.59399     723.8071     545.0878
   1422.57874     722.8478     543.9886   1422.57874     722.8478     543.9886
   1422.56348     722.7626     543.9562   1422.56348     722.7626     543.9562
   1422.54822     722.5999     543.5153   1422.54822     722.5999     543.5153
   1422.53296     722.7124     542.3868   1422.53296     722.7124     542.3868
   1422.51770     720.5965     541.7554   1422.51770     720.5965     541.7554
   1422.50244     721.6913     541.1200   1422.50244     721.6913     541.1200
   1422.48718     721.8272     539.0120   1422.48718     721.8272     539.0120
   1422.47192     722.0642     538.7702   1422.47192     722.0642     538.7702
   1422.45667     720.2177     538.8044   1422.45667     720.2177     538.8044
   1422.44141     720.5583     536.8904   1422.44141     720.5583     536.8904
   1422.42615     722.0602     536.2743   1422.42615     722.0602     536.2743
   1422.41089     720.6417     535.2028   1422.41089     720.6417     535.2028
   1422.39563     720.9930     533.8958   1422.39563     720.9930     533.8958
   1422.38037     720.4661     533.3546   1422.38037     720.4661     533.3546
   1422.36511     719.8175     533.0684   1422.36511     719.8175     533.0684
   1422.34985     720.7639     532.0551   1422.34985     720.7639     532.0551
   1422.33459     720.8016     530.8864   1422.33459     720.8016     530.8864
   1422.31934     719.0859     530.4556   1422.31934     719.0859     530.4556
   1422.30408     719.5270     530.5691   1422.30408     719.5270     530.5691
   1422.28882     719.7693     528.7764   1422.28882     719.7693     528.7764
   1422.27356     718.9728     528.0882   1422.27356     718.9728     528.0882
   1422.25830     718.4793     527.5654   1422.25830     718.4793     527.5654
   1422.24304     719.0208     527.4972   1422.24304     719.0208     527.4972
   1422.22778     719.6553     526.6664   1422.22778     719.6553     526.6664
   1422.21252     719.8723     525.7225   1422.21252     719.8723     525.7225
   1422.19727     719.3732     524.2480   1422.19727     719.3732     524.2480
   1422.18201     719.2307     523.0843   1422.18201     719.2307     523.0843
   1422.16675     719.4194     522.0915   1422.16675     719.4194     522.0915
   1422.15149     720.3591     521.8915   1422.15149     720.3591     521.8915
   1422.13623     718.0151     522.1166   1422.13623     718.0151     522.1166
   1422.12097     719.5050     520.2688   1422.12097     719.5050     520.2688
   1422.10571     717.5104     519.4254   1422.10571     717.5104     519.4254
   1422.09045     718.1629     517.7239   1422.09045     718.1629     517.7239
   1422.07520     718.7055     516.9976   1422.07520     718.7055     516.9976
   1422.05994     718.9914     516.3564   1422.05994     718.9914     516.3564
   1422.04468     719.2832     516.1266   1422.04468     719.2832     516.1266
   1422.02942     718.9106     515.2639   1422.02942     718.9106     515.2639
   1422.01416     719.3371     514.3072   1422.01416     719.3371     514.3072
   1421.99890     718.7289     512.9417   1421.99890     718.7289     512.9417
   1421.98364     718.2098     512.7994   1421.98364     718.2098     512.7994
   1421.96838     716.9039     511.4054   1421.96838     716.9039     511.4054
   1421.95312     718.1080     510.4030   1421.95312     718.1080     510.4030
   1421.93787     718.6409     510.3182   1421.93787     718.6409     510.3182
   1421.92261     717.6335     509.3101   1421.92261     717.6335     509.3101
   1421.90735     717.9367     508.1034   1421.90735     717.9367     508.1034
   1421.89209     717.6287     507.6432   1421.89209     717.6287     507.6432
   1421.87683     717.6254     506.2849   1421.87683     717.6254     506.2849
   1421.86157     718.2773     505.7110   1421.86157     718.2773     505.7110
   1421.84631     716.1324     504.8637   1421.84631     716.1324     504.8637
   1421.83105     718.0190     503.1028   1421.83105     718.0190     503.1028
   1421.81580     717.8346     503.5990   1421.81580     717.8346     503.5990
   1421.80054     717.5240     501.7562   1421.80054     717.5240     501.7562
   1421.78528     717.7529     501.3668   1421.78528     717.7529     501.3668
   1421.77002     717.2239     501.1735   1421.77002     717.2239     501.1735
   1421.75476     717.0727     500.6803   1421.75476     717.0727     500.6803
   1421.73950     717.2853     498.2906   1421.73950     717.2853     498.2906
   1421.72424     715.9662     497.9003   1421.72424     715.9662     497.9003
   1421.70898     716.9632     496.9924   1421.70898     716.9632     496.9924
   1421.69373     717.9183     495.5970   1421.69373     717.9183     495.5970
   1421.67847     716.6649     494.6806   1421.67847     716.6649     494.6806
   1421.66321     716.0474     494.5217   1421.66321     716.0474     494.5217
   1421.64795     715.9986     493.4099   1421.64795     715.9986     493.4099
   1421.63269     716.6196     492.9314   1421.63269     716.6196     492.9314
   1421.61743     717.5841     491.3897   1421.61743     717.5841     491.3897
   1421.60217     717.2238     490.4527   1421.60217     717.2238     490.4527
   1421.58691     715.8694     489.9808   1421.58691     715.8694     489.9808
   1421.57166     716.2374     487.7803   1421.57166     716.2374     487.7803
   1421.55640     716.3199     487.7953   1421.55640     716.3199     487.7953
   1421.54114     715.2313     486.9348   1421.54114     715.2313     486.9348
   1421.52588     715.8035     486.5955   1421.52588     715.8035     486.5955
   1421.51062     716.8978     485.5417   1421.51062     716.8978     485.5417
   1421.49536     715.6903     484.7708   1421.49536     715.6903     484.7708
   1421.48010     715.1934     483.5965   1421.48010     715.1934     483.5965
   1421.46484     715.6066     482.5268   1421.46484     715.6066     482.5268
   1421.44958     715.5692     482.2682   1421.44958     715.5692     482.2682
   1421.43433     716.0283     480.0643   1421.43433     716.0283     480.0643
   1421.41907     714.9746     479.5175   1421.41907     714.9746     479.5175
   1421.40381     715.4421     479.3430   1421.40381     715.4421     479.3430
   1421.38855     715.7675     477.6421   1421.38855     715.7675     477.6421
   1421.37329     715.6949     476.7678   1421.37329     715.6949     476.7678
   1421.35803     715.2801     476.8514   1421.35803     715.2801     476.8514
   1421.34277     715.0486     474.6505   1421.34277     715.0486     474.6505
   1421.32751     715.3093     475.3054   1421.32751     715.3093     475.3054
   1421.31226     715.5651     473.8206   1421.31226     715.5651     473.8206
   1421.29700     713.8680     472.1052   1421.29700     713.8680     472.1052
   1421.28174     714.5129     471.3833   1421.28174     714.5129     471.3833
   1421.26648     714.4885     469.7928   1421.26648     714.4885     469.7928
   1421.25122     713.6359     469.8267   1421.25122     713.6359     469.8267
   1421.23596     714.0652     469.0872   1421.23596     714.0652     469.0872
   1421.22070     714.2328     468.1192   1421.22070     714.2328     468.1192
   1421.20544     714.8470     467.4357   1421.20544     714.8470     467.4357
   1421.19019     713.8552     466.9977   1421.19019     713.8552     466.9977
   1421.17493     712.6853     465.3398   1421.17493     712.6853     465.3398
   1421.15967     713.9849     464.9238   1421.15967     713.9849     464.9238
   1421.14441     712.2899     464.1765   1421.14441     712.2899     464.1765
   1421.12915     712.3900     462.9106   1421.12915     712.3900     462.9106
   1421.11389     714.4770     461.5148   1421.11389     714.4770     461.5148
   1421.09863     713.3323     460.8152   1421.09863     713.3323     460.8152
   1421.08337     712.2923     459.6316   1421.08337     712.2923     459.6316
   1421.06812     713.5392     459.7824   1421.06812     713.5392     459.7824
   1421.05286     713.3062     458.0785   1421.05286     713.3062     458.0785
   1421.03760     712.7467     457.1947   1421.03760     712.7467     457.1947
   1421.02234     713.9878     457.3115   1421.02234     713.9878     457.3115
   1421.00708     713.2366     456.2265   1421.00708     713.2366     456.2265
   1420.99182     713.6854     455.7928   1420.99182     713.6854     455.7928
   1420.97656     714.1580     455.0850   1420.97656     714.1580     455.0850
   1420.96130     714.6956     455.1142   1420.96130     714.6956     455.1142
   1420.94604     714.2120     454.5466   1420.94604     714.2120     454.5466
   1420.93079     716.5256     454.1161   1420.93079     716.5256     454.1161
   1420.91553     717.6683     454.4146   1420.91553     717.6683     454.4146
   1420.90027     718.7595     453.5250   1420.90027     718.7595     453.5250
   1420.88501     719.7961     454.0533   1420.88501     719.7961     454.0533
   1420.86975     719.5880     453.0788   1420.86975     719.5880     453.0788
   1420.85449     720.5047     451.8921   1420.85449     720.5047     451.8921
   1420.83923     720.7339     452.5547   1420.83923     720.7339     452.5547
   1420.82397     723.5139     452.0421   1420.82397     723.5139     452.0421
   1420.80872     723.8864     452.5909   1420.80872     723.8864     452.5909
   1420.79346     724.2937     451.5190   1420.79346     724.2937     451.5190
   1420.77820     726.9259     452.2734   1420.77820     726.9259     452.2734
   1420.76294     728.1133     452.4852   1420.76294     728.1133     452.4852
   1420.74768     732.7809     454.4297   1420.74768     732.7809     454.4297
   1420.73242     740.8199     458.8362   1420.73242     740.8199     458.8362
   1420.71716     749.4818     463.5981   1420.71716     749.4818     463.5981
   1420.70190     756.4352     466.3809   1420.70190     756.4352     466.3809
   1420.68665     768.0562     472.3647   1420.68665     768.0562     472.3647
   1420.67139     785.5850     481.3832   1420.67139     785.5850     481.3832
   1420.65613     794.5222     487.3707   1420.65613     794.5222     487.3707
   1420.64087     803.2743     490.9955   1420.64087     803.2743     490.9955
   1420.62561     832.6157     508.4616   1420.62561     832.6157     508.4616
   1420.61035     944.2029     574.3093   1420.61035     944.2029     574.3093
   1420.59509    1332.4890     800.5060   1420.59509    1332.4890     800.5060
   1420.57983    1788.4819    1065.0524   1420.57983    1788.4819    1065.0524
   1420.56458    1683.9008    1003.2979   1420.56458    1683.9008    1003.2979
   1420.54932    1573.4061     938.9105   1420.54932    1573.4061     938.9105
   1420.53406    1843.5055    1092.6097   1420.53406    1843.5055    1092.6097
   1420.51880    2130.5637    1259.0916   1420.51880    2130.5637    1259.0916
   1420.50354    2329.3672    1370.6534   1420.50354    2329.3672    1370.6534
   1420.48828    2251.9773    1324.1112   1420.48828    2251.9773    1324.1112
   1420.47302    2065.3933    1215.0767   1420.47302    2065.3933    1215.0767
   1420.45776    1916.6549    1127.2683   1420.45776    1916.6549    1127.2683
   1420.44250    1882.9885    1105.1105   1420.44250    1882.9885    1105.1105
   1420.42725    1666.6985     978.7040   1420.42725    1666.6985     978.7040
   1420.41199    1463.9050     861.6474   1420.41199    1463.9050     861.6474
   1420.39673    1496.9467     878.9555   1420.39673    1496.9467     878.9555
   1420.38147    1594.7340     931.4603   1420.38147    1594.7340     931.4603
   1420.36621    1745.0503    1018.8577   1420.36621    1745.0503    1018.8577
   1420.35095    1680.2537     977.2530   1420.35095    1680.2537     977.2530
   1420.33569    1454.5499     847.8211   1420.33569    1454.5499     847.8211
   1420.32043    1122.8381     655.8661   1420.32043    1122.8381     655.8661
   1420.30518     893.4415     524.1199   1420.30518     893.4415     524.1199
   1420.28992     810.2271     477.0383   1420.28992     810.2271     477.0383
   1420.27466     762.7170     449.2141   1420.27466     762.7170     449.2141
   1420.25940     738.0733     434.4702   1420.25940     738.0733     434.4702
   1420.24414     724.1014     426.5222   1420.24414     724.1014     426.5222
   1420.22888     718.5605     421.9110   1420.22888     718.5605     421.9110
   1420.21362     713.1360     418.6096   1420.21362     713.1360     418.6096
   1420.19836     710.5646     415.7235   1420.19836     710.5646     415.7235
   1420.18311     708.4720     413.3806   1420.18311     708.4720     413.3806
   1420.16785     708.1188     412.9423   1420.16785     708.1188     412.9423
   1420.15259     706.5259     411.9624   1420.15259     706.5259     411.9624
   1420.13733     706.1099     411.4491   1420.13733     706.1099     411.4491
   1420.12207     705.6364     409.7081   1420.12207     705.6364     409.7081
   1420.10681     703.4273     408.4736   1420.10681     703.4273     408.4736
   1420.09155     702.4115     406.5152   1420.09155     702.4115     406.5152
   1420.07629     702.1491     406.2862   1420.07629     702.1491     406.2862
   1420.06104     701.1749     405.2905   1420.06104     701.1749     405.2905
   1420.04578     700.0090     404.5961   1420.04578     700.0090     404.5961
   1420.03052     701.3179     404.4124   1420.03052     701.3179     404.4124
   1420.01526     700.4696     404.5180   1420.01526     700.4696     404.5180
   1420.00000     701.7314     404.9543   1420.00000     701.7314     404.9543
   1419.98474     702.9932     405.3909   1419.98474     702.9932     405.3909
   1419.96948     703.3949     403.2682   1419.96948     703.3949     403.2682
   1419.95422     698.9991     400.6238   1419.95422     698.9991     400.6238
   1419.93896     699.3923     400.0972   1419.93896     699.3923     400.0972
   1419.92371     700.1184     399.0955   1419.92371     700.1184     399.0955
   1419.90845     700.5212     398.4361   1419.90845     700.5212     398.4361
   1419.89319     699.5705     398.3353   1419.89319     699.5705     398.3353
   1419.87793     698.9764     397.6740   1419.87793     698.9764     397.6740
   1419.86267     700.2211     397.0108   1419.86267     700.2211     397.0108
   1419.84741     698.8285     397.2201   1419.84741     698.8285     397.2201
   1419.83215     698.3301     396.1140   1419.83215     698.3301     396.1140
   1419.81689     698.5157     395.2685   1419.81689     698.5157     395.2685
   1419.80164     698.9211     394.9508   1419.80164     698.9211     394.9508
   1419.78638     698.1737     394.6460   1419.78638     698.1737     394.6460
   1419.77112     698.8195     394.5705   1419.77112     698.8195     394.5705
   1419.75586     699.2006     393.3541   1419.75586     699.2006     393.3541
   1419.74060     699.2095     392.6932   1419.74060     699.2095     392.6932
   1419.72534     700.0177     392.4817   1419.72534     700.0177     392.4817
   1419.71008     700.0539     392.1635   1419.71008     700.0539     392.1635
   1419.69482     698.9005     391.7062   1419.69482     698.9005     391.7062
   1419.67957     699.3992     391.4786   1419.67957     699.3992     391.4786
   1419.66431     699.6017     391.5403   1419.66431     699.6017     391.5403
   1419.64905     700.7040     390.6587   1419.64905     700.7040     390.6587
   1419.63379     700.4297     389.9274   1419.63379     700.4297     389.9274
   1419.61853     699.7327     389.6324   1419.61853     699.7327     389.6324
   1419.60327     700.4988     389.6757   1419.60327     700.4988     389.6757
   1419.58801     700.4695     388.7695   1419.58801     700.4695     388.7695
   1419.57275     701.3254     389.0062   1419.57275     701.3254     389.0062
   1419.55750     701.8248     388.8957   1419.55750     701.8248     388.8957
   1419.54224     700.4966     388.5492   1419.54224     700.4966     388.5492
   1419.52698     700.5990     387.7154   1419.52698     700.5990     387.7154
   1419.51172     700.2742     387.1229   1419.51172     700.2742     387.1229
   1419.49646     700.1297     387.2566   1419.49646     700.1297     387.2566
   1419.48120     702.0111     386.7327   1419.48120     702.0111     386.7327
   1419.46594     702.1497     386.5192   1419.46594     702.1497     386.5192
   1419.45068     701.3752     386.2937   1419.45068     701.3752     386.2937
   1419.43542     702.6605     386.3947   1419.43542     702.6605     386.3947
   1419.42017     703.0812     385.9021   1419.42017     703.0812     385.9021
   1419.40491     701.8572     385.2618   1419.40491     701.8572     385.2618
   1419.38965     702.1431     385.8288   1419.38965     702.1431     385.8288
   1419.37439     703.4072     385.1518   1419.37439     703.4072     385.1518
   1419.35913     703.7626     384.8960   1419.35913     703.7626     384.8960
   1419.34387     703.6871     385.0189   1419.34387     703.6871     385.0189
   1419.32861     704.4774     385.1712   1419.32861     704.4774     385.1712
   1419.31335     704.6034     384.0862   1419.31335     704.6034     384.0862
   1419.29810     704.6044     384.8947   1419.29810     704.6044     384.8947
   1419.28284     704.9031     384.0429   1419.28284     704.9031     384.0429
   1419.26758     704.7001     384.4997   1419.26758     704.7001     384.4997
   1419.25232     705.1783     383.8990   1419.25232     705.1783     383.8990
   1419.23706     704.9171     384.0747   1419.23706     704.9171     384.0747
   1419.22180     706.3445     383.5652   1419.22180     706.3445     383.5652
   1419.20654     705.1164     383.2449   1419.20654     705.1164     383.2449
   1419.19128     706.1479     383.2274   1419.19128     706.1479     383.2274
   1419.17603     706.7171     383.4741   1419.17603     706.7171     383.4741
   1419.16077     706.5032     383.4240   1419.16077     706.5032     383.4240
   1419.14551     707.0938     383.1292   1419.14551     707.0938     383.1292
   1419.13025     708.0220     383.3081   1419.13025     708.0220     383.3081
   1419.11499     708.9577     383.7094   1419.11499     708.9577     383.7094
   1419.09973     708.2780     383.4662   1419.09973     708.2780     383.4662
   1419.08447     708.3456     382.6860   1419.08447     708.3456     382.6860
   1419.06921     709.2139     383.2167   1419.06921     709.2139     383.2167
   1419.05396     709.3189     383.7089   1419.05396     709.3189     383.7089
   1419.03870     709.4719     383.3812   1419.03870     709.4719     383.3812
   1419.02344     709.3056     383.2143   1419.02344     709.3056     383.2143
   1419.00818     710.6068     383.6327   1419.00818     710.6068     383.6327
   1418.99292     711.6537     383.6877   1418.99292     711.6537     383.6877
   1418.97766     712.1980     383.5688   1418.97766     712.1980     383.5688
   1418.96240     712.2354     383.8577   1418.96240     712.2354     383.8577
   1418.94714     713.3491     383.7361   1418.94714     713.3491     383.7361
   1418.93188     713.5172     383.6689   1418.93188     713.5172     383.6689
   1418.91663     714.0884     383.6782   1418.91663     714.0884     383.6782
   1418.90137     713.7361     383.8840   1418.90137     713.7361     383.8840
   1418.88611     714.2457     383.8491   1418.88611     714.2457     383.8491
   1418.87085     715.0452     383.7638   1418.87085     715.0452     383.7638
   1418.85559     715.1328     384.0537   1418.85559     715.1328     384.0537
   1418.84033     715.0978     384.6140   1418.84033     715.0978     384.6140
   1418.82507     717.3995     384.9172   1418.82507     717.3995     384.9172
   1418.80981     717.2481     385.2100   1418.80981     717.2481     385.2100
   1418.79456     717.4387     385.0582   1418.79456     717.4387     385.0582
   1418.77930     717.1243     384.9058   1418.77930     717.1243     384.9058
   1418.76404     718.4303     385.5697   1418.76404     718.4303     385.5697
   1418.74878     719.0958     385.8144   1418.74878     719.0958     385.8144
   1418.73352     718.5660     385.9525   1418.73352     718.5660     385.9525
   1418.71826     720.1909     387.4489   1418.71826     720.1909     387.4489
   1418.70300     720.2032     386.2678   1418.70300     720.2032     386.2678
   1418.68774     720.4745     386.8975   1418.68774     720.4745     386.8975
   1418.67249     721.2909     387.2458   1418.67249     721.2909     387.2458
   1418.65723     722.4498     387.2008   1418.65723     722.4498     387.2008
   1418.64197     723.7379     387.1787   1418.64197     723.7379     387.1787
   1418.62671     723.4238     388.1958   1418.62671     723.4238     388.1958
   1418.61145     723.2236     387.8953   1418.61145     723.2236     387.8953
   1418.59619     724.0920     388.3285   1418.59619     724.0920     388.3285
   1418.58093     724.9115     388.9014   1418.58093     724.9115     388.9014
   1418.56567     725.9619     388.8154   1418.56567     725.9619     388.8154
   1418.55042     726.3448     390.2965   1418.55042     726.3448     390.2965
   1418.53516     725.1227     389.5994   1418.53516     725.1227     389.5994
   1418.51990     727.9418     390.2605   1418.51990     727.9418     390.2605
   1418.50464     727.5714     390.6863   1418.50464     727.5714     390.6863
   1418.48938     727.9159     391.4577   1418.48938     727.9159     391.4577
   1418.47412     728.6086     391.8357   1418.47412     728.6086     391.8357
   1418.45886     730.4301     392.2220   1418.45886     730.4301     392.2220
   1418.44360     730.5190     392.2728   1418.44360     730.5190     392.2728
   1418.42834     731.1093     392.4395   1418.42834     731.1093     392.4395
   1418.41309     731.8767     393.0176   1418.41309     731.8767     393.0176
   1418.39783     732.3362     393.3578   1418.39783     732.3362     393.3578
   1418.38257     733.2802     394.8692   1418.38257     733.2802     394.8692
   1418.36731     733.8664     395.1749   1418.36731     733.8664     395.1749
   1418.35205     734.9259     395.5724   1418.35205     734.9259     395.5724
   1418.33679     734.4852     396.1713   1418.33679     734.4852     396.1713
   1418.32153     736.0749     396.7153   1418.32153     736.0749     396.7153
   1418.30627     735.6934     397.2224   1418.30627     735.6934     397.2224
   1418.29102     736.6429     397.3920   1418.29102     736.6429     397.3920
   1418.27576     737.7407     398.5386   1418.27576     737.7407     398.5386
   1418.26050     738.0245     398.4001   1418.26050     738.0245     398.4001
   1418.24524     739.5145     399.3960   1418.24524     739.5145     399.3960
   1418.22998     738.4652     400.2019   1418.22998     738.4652     400.2019
   1418.21472     740.8645     401.1941   1418.21472     740.8645     401.1941
   1418.19946     741.6630     401.7163   1418.19946     741.6630     401.7163
   1418.18420     741.9529     402.4759   1418.18420     741.9529     402.4759
   1418.16895     742.5698     402.8885   1418.16895     742.5698     402.8885
   1418.15369     743.4456     403.7110   1418.15369     743.4456     403.7110
   1418.13843     744.6387     404.2519   1418.13843     744.6387     404.2519
   1418.12317     745.9567     405.0836   1418.12317     745.9567     405.0836
   1418.10791     744.6488     404.9820   1418.10791     744.6488     404.9820
   1418.09265     746.7074     406.2634   1418.09265     746.7074     406.2634
   1418.07739     747.0598     406.5191   1418.07739     747.0598     406.5191
   1418.06213     747.5508     408.0370   1418.06213     747.5508     408.0370
   1418.04688     748.2968     408.0836   1418.04688     748.2968     408.0836
   1418.03162     751.0820     408.5136   1418.03162     751.0820     408.5136
   1418.01636     752.3480     409.4492   1418.01636     752.3480     409.4492
   1418.00110     751.5110     410.0720   1418.00110     751.5110     410.0720
   1417.98584     752.1108     411.2344   1417.98584     752.1108     411.2344
   1417.97058     753.1763     411.8274   1417.97058     753.1763     411.8274
   1417.95532     754.3161     412.8178   1417.95532     754.3161     412.8178
   1417.94006     754.3189     414.0081   1417.94006     754.3189     414.0081
   1417.92480     755.7405     414.3083   1417.92480     755.7405     414.3083
   1417.90955     756.6047     415.8596   1417.90955     756.6047     415.8596
   1417.89429     756.0497     416.3083   1417.89429     756.0497     416.3083
   1417.87903     758.3755     417.1323   1417.87903     758.3755     417.1323
   1417.86377     757.9412     417.1390   1417.86377     757.9412     417.1390
   1417.84851     758.4037     419.1352   1417.84851     758.4037     419.1352
   1417.83325     760.2537     419.8167   1417.83325     760.2537     419.8167
   1417.81799     760.0168     420.5988   1417.81799     760.0168     420.5988
   1417.80273     761.8676     421.7393   1417.80273     761.8676     421.7393
   1417.78748     763.1058     422.7090   1417.78748     763.1058     422.7090
   1417.77222     763.1064     423.3482   1417.77222     763.1064     423.3482
   1417.75696     765.8068     424.6770   1417.75696     765.8068     424.6770
   1417.74170     764.3942     424.5262   1417.74170     764.3942     424.5262
   1417.72644     765.4850     426.1015   1417.72644     765.4850     426.1015
   1417.71118     766.1379     426.3644   1417.71118     766.1379     426.3644
   1417.69592     766.5290     427.9331   1417.69592     766.5290     427.9331
   1417.68066     768.6442     428.8825   1417.68066     768.6442     428.8825
   1417.66541     769.2982     429.4171   1417.66541     769.2982     429.4171
   1417.65015     770.1970     430.3378   1417.65015     770.1970     430.3378
   1417.63489     769.7612     431.3748   1417.63489     769.7612     431.3748
   1417.61963     771.0904     431.9568   1417.61963     771.0904     431.9568
   1417.60437     771.3062     433.0964   1417.60437     771.3062     433.0964
   1417.58911     772.4062     434.6884   1417.58911     772.4062     434.6884
   1417.57385     773.7445     435.9164   1417.57385     773.7445     435.9164
   1417.55859     774.2445     435.8596   1417.55859     774.2445     435.8596
   1417.54333     775.6468     437.8156   1417.54333     775.6468     437.8156
   1417.52808     775.9050     439.1913   1417.52808     775.9050     439.1913
   1417.51282     776.7407     440.0448   1417.51282     776.7407     440.0448
   1417.49756     777.1262     440.4682   1417.49756     777.1262     440.4682
   1417.48230     778.8315     441.1726   1417.48230     778.8315     441.1726
   1417.46704     778.1243     442.1504   1417.46704     778.1243     442.1504
   1417.45178     779.6951     443.7808   1417.45178     779.6951     443.7808
   1417.43652     779.8467     444.7320   1417.43652     779.8467     444.7320
   1417.42126     781.0294     445.4067   1417.42126     781.0294     445.4067
   1417.40601     781.4975     446.4547   1417.40601     781.4975     446.4547
   1417.39075     781.1618     447.8914   1417.39075     781.1618     447.8914
   1417.37549     783.2352     448.5609   1417.37549     783.2352     448.5609
   1417.36023     783.4084     449.4918   1417.36023     783.4084     449.4918
   1417.34497     783.4579     450.9857   1417.34497     783.4579     450.9857
   1417.32971     784.8754     452.0018   1417.32971     784.8754     452.0018
   1417.31445     784.9458     453.4590   1417.31445     784.9458     453.4590
   1417.29919     785.8866     454.2927   1417.29919     785.8866     454.2927
   1417.28394     786.7227     455.7665   1417.28394     786.7227     455.7665
   1417.26868     787.8583     456.2668   1417.26868     787.8583     456.2668
   1417.25342     788.2910     457.3234   1417.25342     788.2910     457.3234
   1417.23816     789.4158     458.2558   1417.23816     789.4158     458.2558
   1417.22290     792.4304     460.9769   1417.22290     792.4304     460.9769
   1417.20764     791.1489     460.8571   1417.20764     791.1489     460.8571
   1417.19238     789.8479     461.3045   1417.19238     789.8479     461.3045
   1417.17712     792.7413     463.2041   1417.17712     792.7413     463.2041
   1417.16187     791.2717     463.8182   1417.16187     791.2717     463.8182
   1417.14661     792.4883     465.0320   1417.14661     792.4883     465.0320
   1417.13135     793.7726     466.3956   1417.13135     793.7726     466.3956
   1417.11609     793.2009     467.1594   1417.11609     793.2009     467.1594
   1417.10083     794.3587     468.7207   1417.10083     794.3587     468.7207
   1417.08557     794.9205     468.8156   1417.08557     794.9205     468.8156
   1417.07031     795.1616     469.9951   1417.07031     795.1616     469.9951
   1417.05505     795.8108     471.5158   1417.05505     795.8108     471.5158
   1417.03979     796.9869     472.3691   1417.03979     796.9869     472.3691
   1417.02454     796.7643     474.1115   1417.02454     796.7643     474.1115
   1417.00928     798.1373     474.2425   1417.00928     798.1373     474.2425
   1416.99402     796.9099     475.3548   1416.99402     796.9099     475.3548
   1416.97876     799.0294     476.8621   1416.97876     799.0294     476.8621
   1416.96350     797.9048     477.9156   1416.96350     797.9048     477.9156
   1416.94824     798.4626     478.1445   1416.94824     798.4626     478.1445
   1416.93298     799.4955     479.4703   1416.93298     799.4955     479.4703
   1416.91772     800.3596     480.3988   1416.91772     800.3596     480.3988
   1416.90247     800.1425     481.4328   1416.90247     800.1425     481.4328
   1416.88721     800.7437     483.1290   1416.88721     800.7437     483.1290
   1416.87195     800.6491     482.7510   1416.87195     800.6491     482.7510
   1416.85669     800.9250     484.3784   1416.85669     800.9250     484.3784
   1416.84143     801.3581     485.1968   1416.84143     801.3581     485.1968
   1416.82617     801.2076     486.4582   1416.82617     801.2076     486.4582
   1416.81091     802.4911     487.2736   1416.81091     802.4911     487.2736
   1416.79565     802.5889     488.1040   1416.79565     802.5889     488.1040
   1416.78040     802.8862     489.2802   1416.78040     802.8862     489.2802
   1416.76514     802.7538     490.4466   1416.76514     802.7538     490.4466
   1416.74988     803.0663     491.6750   1416.74988     803.0663     491.6750
   1416.73462     803.8587     492.2934   1416.73462     803.8587     492.2934
   1416.71936     804.7037     492.8835   1416.71936     804.7037     492.8835
   1416.70410     803.1689     494.2685   1416.70410     803.1689     494.2685
   1416.68884     802.4850     495.2387   1416.68884     802.4850     495.2387
   1416.67358     803.9859     495.4943   1416.67358     803.9859     495.4943
   1416.65833     803.6987     495.6428   1416.65833     803.6987     495.6428
   1416.64307     804.0715     496.9869   1416.64307     804.0715     496.9869
   1416.62781     804.6281     497.1060   1416.62781     804.6281     497.1060
   1416.61255     804.3786     498.0467   1416.61255     804.3786     498.0467
   1416.59729     805.6706     498.6528   1416.59729     805.6706     498.6528
   1416.58203     804.4058     499.7650   1416.58203     804.4058     499.7650
   1416.56677     804.5541     500.7054   1416.56677     804.5541     500.7054
   1416.55151     804.2953     500.9980   1416.55151     804.2953     500.9980
   1416.53625     805.0909     501.7951   1416.53625     805.0909     501.7951
   1416.52100     803.6058     502.8370   1416.52100     803.6058     502.8370
   1416.50574     804.4552     503.2321   1416.50574     804.4552     503.2321
   1416.49048     804.2272     504.8717   1416.49048     804.2272     504.8717
   1416.47522     804.3217     504.4269   1416.47522     804.3217     504.4269
   1416.45996     804.2945     505.1500   1416.45996     804.2945     505.1500
   1416.44470     804.8587     506.0094   1416.44470     804.8587     506.0094
   1416.42944     805.4970     507.0195   1416.42944     805.4970     507.0195
   1416.41418     803.9929     506.2720   1416.41418     803.9929     506.2720
   1416.39893     803.2997     508.0537   1416.39893     803.2997     508.0537
   1416.38367     804.1060     507.7170   1416.38367     804.1060     507.7170
   1416.36841     803.7164     507.9971   1416.36841     803.7164     507.9971
   1416.35315     802.8754     509.4068   1416.35315     802.8754     509.4068
   1416.33789     803.2960     509.2489   1416.33789     803.2960     509.2489
   1416.32263     802.7673     509.9449   1416.32263     802.7673     509.9449
   1416.30737     803.0547     510.7144   1416.30737     803.0547     510.7144
   1416.29211     802.2335     510.7427   1416.29211     802.2335     510.7427
   1416.27686     801.9869     511.4796   1416.27686     801.9869     511.4796
   1416.26160     803.1903     511.4956   1416.26160     803.1903     511.4956
   1416.24634     801.6597     511.5459   1416.24634     801.6597     511.5459
   1416.23108     801.9720     511.7037   1416.23108     801.9720     511.7037
   1416.21582     802.7453     513.6137   1416.21582     802.7453     513.6137
   1416.20056     800.9166     514.0022   1416.20056     800.9166     514.0022
   1416.18530     799.8784     513.3839   1416.18530     799.8784     513.3839
   1416.17004     799.8812     513.8492   1416.17004     799.8812     513.8492
   1416.15479     800.2571     514.5175   1416.15479     800.2571     514.5175
   1416.13953     800.4473     513.7366   1416.13953     800.4473     513.7366
   1416.12427     798.5937     514.1792   1416.12427     798.5937     514.1792
   1416.10901     797.7137     514.8735   1416.10901     797.7137     514.8735
   1416.09375     797.5940     514.2260   1416.09375     797.5940     514.2260
   1416.07849     796.6458     514.9269   1416.07849     796.6458     514.9269
   1416.06323     796.3716     515.2961   1416.06323     796.3716     515.2961
   1416.04797     796.4056     515.1953   1416.04797     796.4056     515.1953
   1416.03271     796.0906     515.7584   1416.03271     796.0906     515.7584
   1416.01746     796.3210     515.2015   1416.01746     796.3210     515.2015
   1416.00220     794.2280     515.6491   1416.00220     794.2280     515.6491
   1415.98694     794.6672     515.9364   1415.98694     794.6672     515.9364
   1415.97168     794.5213     515.8994   1415.97168     794.5213     515.8994
   1415.95642     792.5965     516.5883   1415.95642     792.5965     516.5883
   1415.94116     792.8594     515.5792   1415.94116     792.8594     515.5792
   1415.92590     792.1851     516.5090   1415.92590     792.1851     516.5090
   1415.91064     791.2739     516.6374   1415.91064     791.2739     516.6374
   1415.89539     791.0215     516.5182   1415.89539     791.0215     516.5182
   1415.88013     790.2829     516.3992   1415.88013     790.2829     516.3992
   1415.86487     788.8558     516.2439   1415.86487     788.8558     516.2439
   1415.84961     787.9031     516.2596   1415.84961     787.9031     516.2596
   1415.83435     788.9031     515.9434   1415.83435     788.9031     515.9434
   1415.81909     786.9526     516.7561   1415.81909     786.9526     516.7561
   1415.80383     786.1984     515.7456   1415.80383     786.1984     515.7456
   1415.78857     785.8704     515.7168   1415.78857     785.8704     515.7168
   1415.77332     784.2331     515.8820   1415.77332     784.2331     515.8820
   1415.75806     784.7067     515.2899   1415.75806     784.7067     515.2899
   1415.74280     783.1887     516.2802   1415.74280     783.1887     516.2802
   1415.72754     783.0952     515.6075   1415.72754     783.0952     515.6075
   1415.71228     782.2839     515.7699   1415.71228     782.2839     515.7699
   1415.69702     780.8564     516.0164   1415.69702     780.8564     516.0164
   1415.68176     779.6202     515.3624   1415.68176     779.6202     515.3624
   1415.66650     780.8581     515.5975   1415.66650     780.8581     515.5975
   1415.65125     779.7078     515.2402   1415.65125     779.7078     515.2402
   1415.63599     778.0944     514.3399   1415.63599     778.0944     514.3399
   1415.62073     776.6467     514.5416   1415.62073     776.6467     514.5416
   1415.60547     776.5579     514.6508   1415.60547     776.5579     514.6508
   1415.59021     775.5361     513.8121   1415.59021     775.5361     513.8121
   1415.57495     774.1166     514.4141   1415.57495     774.1166     514.4141
   1415.55969     773.4973     514.5500   1415.55969     773.4973     514.5500
   1415.54443     772.6060     514.4932   1415.54443     772.6060     514.4932
   1415.52917     772.2983     512.9698   1415.52917     772.2983     512.9698
   1415.51392     770.1375     514.2852   1415.51392     770.1375     514.2852
   1415.49866     769.8254     512.6458   1415.49866     769.8254     512.6458
   1415.48340     769.0173     512.7397   1415.48340     769.0173     512.7397
   1415.46814     766.8769     512.7069   1415.46814     766.8769     512.7069
   1415.45288     768.8727     512.8966   1415.45288     768.8727     512.8966
   1415.43762     766.1550     511.9367   1415.43762     766.1550     511.9367
   1415.42236     764.3115     511.6396   1415.42236     764.3115     511.6396
   1415.40710     764.5513     510.5703   1415.40710     764.5513     510.5703
   1415.39185     762.3060     511.3493   1415.39185     762.3060     511.3493
   1415.37659     761.8208     511.1800   1415.37659     761.8208     511.1800
   1415.36133     760.7434     510.8597   1415.36133     760.7434     510.8597
   1415.34607     759.2505     510.7647   1415.34607     759.2505     510.7647
   1415.33081     758.0545     510.0039   1415.33081     758.0545     510.0039
   1415.31555     757.3262     509.9491   1415.31555     757.3262     509.9491
   1415.30029     755.3787     509.5107   1415.30029     755.3787     509.5107
   1415.28503     755.0211     508.3541   1415.28503     755.0211     508.3541
   1415.26978     754.0323     508.1494   1415.26978     754.0323     508.1494
   1415.25452     752.4434     508.1460   1415.25452     752.4434     508.1460
   1415.23926     750.4426     507.8059   1415.23926     750.4426     507.8059
   1415.22400     749.6871     506.0329   1415.22400     749.6871     506.0329
   1415.20874     748.9352     506.5570   1415.20874     748.9352     506.5570
   1415.19348     747.6053     505.8857   1415.19348     747.6053     505.8857
   1415.17822     746.6060     505.8694   1415.17822     746.6060     505.8694
   1415.16296     743.4869     504.8719   1415.16296     743.4869     504.8719
   1415.14771     742.3933     504.4504   1415.14771     742.3933     504.4504
   1415.13245     741.9307     504.3575   1415.13245     741.9307     504.3575
   1415.11719     741.3406     503.3467   1415.11719     741.3406     503.3467
   1415.10193     739.4631     503.0984   1415.10193     739.4631     503.0984
   1415.08667     739.0204     503.3539   1415.08667     739.0204     503.3539
   1415.07141     735.8842     501.7570   1415.07141     735.8842     501.7570
   1415.05615     734.7151     501.7767   1415.05615     734.7151     501.7767
   1415.04089     732.9174     500.8902   1415.04089     732.9174     500.8902
   1415.02563     732.0175     500.2139   1415.02563     732.0175     500.2139
   1415.01038     731.6695     499.2974   1415.01038     731.6695     499.2974
   1414.99512     729.7753     500.0126   1414.99512     729.7753     500.0126
   1414.97986     727.3771     498.0311   1414.97986     727.3771     498.0311
   1414.96460     726.2036     497.6387   1414.96460     726.2036     497.6387
   1414.94934     724.4765     497.3708   1414.94934     724.4765     497.3708
   1414.93408     723.0980     496.4344   1414.93408     723.0980     496.4344
   1414.91882     721.3517     495.8176   1414.91882     721.3517     495.8176
   1414.90356     719.3655     494.3844   1414.90356     719.3655     494.3844
   1414.88831     716.1620     493.8405   1414.88831     716.1620     493.8405
   1414.87305     715.6528     493.3722   1414.87305     715.6528     493.3722
   1414.85779     716.0843     493.0428   1414.85779     716.0843     493.0428
   1414.84253     713.4919     491.7465   1414.84253     713.4919     491.7465
   1414.82727     711.9937     491.0831   1414.82727     711.9937     491.0831
   1414.81201     708.7985     490.3992   1414.81201     708.7985     490.3992
   1414.79675     707.8075     489.6096   1414.79675     707.8075     489.6096
   1414.78149     706.5953     489.2537   1414.78149     706.5953     489.2537
   1414.76624     703.8739     487.7151   1414.76624     703.8739     487.7151
   1414.75098     702.4532     486.7424   1414.75098     702.4532     486.7424
   1414.73572     700.2297     486.7832   1414.73572     700.2297     486.7832
   1414.72046     699.0942     485.3991   1414.72046     699.0942     485.3991
   1414.70520     697.3016     483.3215   1414.70520     697.3016     483.3215
   1414.68994     695.6731     482.9955   1414.68994     695.6731     482.9955
   1414.67468     692.9069     482.1336   1414.67468     692.9069     482.1336
   1414.65942     691.2576     481.3934   1414.65942     691.2576     481.3934
   1414.64417     690.4229     481.0318   1414.64417     690.4229     481.0318
   1414.62891     686.9962     479.5815   1414.62891     686.9962     479.5815
   1414.61365     684.5126     478.1477   1414.61365     684.5126     478.1477
   1414.59839     683.4180     477.5602   1414.59839     683.4180     477.5602
   1414.58313     681.1171     475.5172   1414.58313     681.1171     475.5172
   1414.56787     679.5715     475.7970   1414.56787     679.5715     475.7970
   1414.55261     677.3282     473.6899   1414.55261     677.3282     473.6899
   1414.53735     676.6910     473.7215   1414.53735     676.6910     473.7215
   1414.52209     674.2474     471.8157   1414.52209     674.2474     471.8157
   1414.50684     671.9058     470.4717   1414.50684     671.9058     470.4717
   1414.49158     668.9507     469.1597   1414.49158     668.9507     469.1597
   1414.47632     666.7161     468.8095   1414.47632     666.7161     468.8095
   1414.46106     663.7207     467.5147   1414.46106     663.7207     467.5147
   1414.44580     662.2265     465.2030   1414.44580     662.2265     465.2030
   1414.43054     660.2369     464.1953   1414.43054     660.2369     464.1953
   1414.41528     658.1733     463.2320   1414.41528     658.1733     463.2320
   1414.40002     655.8076     463.2553   1414.40002     655.8076     463.2553
   1414.38477     653.9924     460.3741   1414.38477     653.9924     460.3741
   1414.36951     650.6185     459.8464   1414.36951     650.6185     459.8464
   1414.35425     648.6735     458.6046   1414.35425     648.6735     458.6046
   1414.33899     645.2371     457.6570   1414.33899     645.2371     457.6570
   1414.32373     643.6502     456.3957   1414.32373     643.6502     456.3957
   1414.30847     641.5417     454.6109   1414.30847     641.5417     454.6109
   1414.29321     639.1226     453.6028   1414.29321     639.1226     453.6028
   1414.27795     636.5117     451.8961   1414.27795     636.5117     451.8961
   1414.26270     635.7642     450.9893   1414.26270     635.7642     450.9893
   1414.24744     632.3342     449.6047   1414.24744     632.3342     449.6047
   1414.23218     629.2013     447.7730   1414.23218     629.2013     447.7730
   1414.21692     626.9191     446.4407   1414.21692     626.9191     446.4407
   1414.20166     624.9952     444.7408   1414.20166     624.9952     444.7408
   1414.18640     622.2712     444.1276   1414.18640     622.2712     444.1276
   1414.17114     618.8243     442.7886   1414.17114     618.8243     442.7886
   1414.15588     617.0892     440.4413   1414.15588     617.0892     440.4413
   1414.14062     614.0487     439.5810   1414.14062     614.0487     439.5810
   1414.12537     611.7704     438.5134   1414.12537     611.7704     438.5134
   1414.11011     608.7559     436.7780   1414.11011     608.7559     436.7780
   1414.09485     606.1068     434.6891   1414.09485     606.1068     434.6891
   1414.07959     603.4710     433.9137   1414.07959     603.4710     433.9137
   1414.06433     601.7470     432.6237   1414.06433     601.7470     432.6237
   1414.04907     598.7165     430.8581   1414.04907     598.7165     430.8581
   1414.03381     596.4109     428.6157   1414.03381     596.4109     428.6157
   1414.01855     594.1545     428.4315   1414.01855     594.1545     428.4315
   1414.00330     620.5253     434.9206   1414.00330     620.5253     434.9206
   1413.98804     590.5357     424.9619   1413.98804     590.5357     424.9619
   1413.97278     586.0737     422.7407   1413.97278     586.0737     422.7407
   1413.95752     582.0328     421.2055   1413.95752     582.0328     421.2055
   1413.94226     579.1979     420.0273   1413.94226     579.1979     420.0273
   1413.92700     577.1563     418.4523   1413.92700     577.1563     418.4523
   1413.91174     574.7930     416.2209   1413.91174     574.7930     416.2209
   1413.89648     571.2443     414.8528   1413.89648     571.2443     414.8528
   1413.88123     569.2109     413.2704   1413.88123     569.2109     413.2704
   1413.86597     566.6459     411.5014   1413.86597     566.6459     411.5014
   1413.85071     563.2874     410.5264   1413.85071     563.2874     410.5264
   1413.83545     560.8594     408.2021   1413.83545     560.8594     408.2021
   1413.82019     557.4389     406.3954   1413.82019     557.4389     406.3954
   1413.80493     555.4039     404.6114   1413.80493     555.4039     404.6114
   1413.78967     552.3795     403.3290   1413.78967     552.3795     403.3290
   1413.77441     549.5978     401.0714   1413.77441     549.5978     401.0714
   1413.75916     547.0750     399.8410   1413.75916     547.0750     399.8410
   1413.74390     544.0278     398.1915   1413.74390     544.0278     398.1915
   1413.72864     541.4503     396.7144   1413.72864     541.4503     396.7144
   1413.71338     538.3715     395.0566   1413.71338     538.3715     395.0566
   1413.69812     535.0616     393.1362   1413.69812     535.0616     393.1362
   1413.68286     532.8561     391.3587   1413.68286     532.8561     391.3587
   1413.66760     530.7766     389.6589   1413.66760     530.7766     389.6589
   1413.65234     526.4807     388.3746   1413.65234     526.4807     388.3746
   1413.63708     524.5325     386.5492   1413.63708     524.5325     386.5492
   1413.62183     521.6304     385.8252   1413.62183     521.6304     385.8252
   1413.60657     518.6035     383.0687   1413.60657     518.6035     383.0687
   1413.59131     515.6682     382.1475   1413.59131     515.6682     382.1475
   1413.57605     513.0258     379.7803   1413.57605     513.0258     379.7803
   1413.56079     510.9943     378.0155   1413.56079     510.9943     378.0155
   1413.54553     507.3899     376.9673   1413.54553     507.3899     376.9673
   1413.53027     504.8585     375.6940   1413.53027     504.8585     375.6940
   1413.51501     501.6546     373.6956   1413.51501     501.6546     373.6956
   1413.49976     499.4895     372.3429   1413.49976     499.4895     372.3429
   1413.48450     497.1352     370.2396   1413.48450     497.1352     370.2396
   1413.46924     494.3629     368.5527   1413.46924     494.3629     368.5527
   1413.45398     491.1094     367.1186   1413.45398     491.1094     367.1186
   1413.43872     488.0476     365.4257   1413.43872     488.0476     365.4257
   1413.42346     486.1082     364.3424   1413.42346     486.1082     364.3424
   1413.40820     483.2296     362.0752   1413.40820     483.2296     362.0752
   1413.39294     479.6380     360.6885   1413.39294     479.6380     360.6885
   1413.37769     478.0532     358.7979   1413.37769     478.0532     358.7979
   1413.36243     474.6969     357.2330   1413.36243     474.6969     357.2330
   1413.34717     471.4586     355.4825   1413.34717     471.4586     355.4825
   1413.33191     469.8362     354.9767   1413.33191     469.8362     354.9767
   1413.31665     467.1970     353.2050   1413.31665     467.1970     353.2050
   1413.30139     464.6075     351.5691   1413.30139     464.6075     351.5691
   1413.28613     462.5685     349.7571   1413.28613     462.5685     349.7571
   1413.27087     459.6467     349.0644   1413.27087     459.6467     349.0644
   1413.25562     456.2427     347.4595   1413.25562     456.2427     347.4595
   1413.24036     454.4760     345.6873   1413.24036     454.4760     345.6873
   1413.22510     451.8087     343.7798   1413.22510     451.8087     343.7798
   1413.20984     449.8295     343.3452   1413.20984     449.8295     343.3452
   1413.19458     447.4284     341.9412   1413.19458     447.4284     341.9412
   1413.17932     444.6597     340.3113   1413.17932     444.6597     340.3113
   1413.16406     442.1056     339.6668   1413.16406     442.1056     339.6668
   1413.14880     439.7895     337.9040   1413.14880     439.7895     337.9040
   1413.13354     438.0338     336.6830   1413.13354     438.0338     336.6830
   1413.11829     435.3812     335.5248   1413.11829     435.3812     335.5248
   1413.10303     432.7846     333.9105   1413.10303     432.7846     333.9105
   1413.08777     431.0292     333.1189   1413.08777     431.0292     333.1189
   1413.07251     429.3024     332.0155   1413.07251     429.3024     332.0155
   1413.05725     426.6243     330.8324   1413.05725     426.6243     330.8324
   1413.04199     423.8830     329.7715   1413.04199     423.8830     329.7715
   1413.02673     422.5576     328.5756   1413.02673     422.5576     328.5756
   1413.01147     420.0573     327.9544   1413.01147     420.0573     327.9544
   1412.99622     418.5066     327.2791   1412.99622     418.5066     327.2791
   1412.98096     416.0379     325.7173   1412.98096     416.0379     325.7173
   1412.96570     413.9276     325.7506   1412.96570     413.9276     325.7506
   1412.95044     412.6667     324.3708   1412.95044     412.6667     324.3708
   1412.93518     410.6367     323.2101   1412.93518     410.6367     323.2101
   1412.91992     408.1626     322.7281   1412.91992     408.1626     322.7281
   1412.90466     406.3482     321.6327   1412.90466     406.3482     321.6327
   1412.88940     404.4817     320.8196   1412.88940     404.4817     320.8196
   1412.87415     403.1014     320.3826   1412.87415     403.1014     320.3826
   1412.85889     401.4369     320.0606   1412.85889     401.4369     320.0606
   1412.84363     399.7745     319.1033   1412.84363     399.7745     319.1033
   1412.82837     398.2807     318.2657   1412.82837     398.2807     318.2657
   1412.81311     396.5183     318.2912   1412.81311     396.5183     318.2912
   1412.79785     395.4818     317.5067   1412.79785     395.4818     317.5067
   1412.78259     394.0251     316.9088   1412.78259     394.0251     316.9088
   1412.76733     393.2345     316.6945   1412.76733     393.2345     316.6945
   1412.75208     391.0641     316.2976   1412.75208     391.0641     316.2976
   1412.73682     389.9630     315.8627   1412.73682     389.9630     315.8627
   1412.72156     388.5884     315.8149   1412.72156     388.5884     315.8149
   1412.70630     387.8875     315.4196   1412.70630     387.8875     315.4196
   1412.69104     385.8808     315.5000   1412.69104     385.8808     315.5000
   1412.67578     385.4992     315.5464   1412.67578     385.4992     315.5464
   1412.66052     383.5779     314.7475   1412.66052     383.5779     314.7475
   1412.64526     383.3358     315.1072   1412.64526     383.3358     315.1072
   1412.63000     382.3416     314.9131   1412.63000     382.3416     314.9131
   1412.61475     381.0850     315.0164   1412.61475     381.0850     315.0164
   1412.59949     380.5197     315.8430   1412.59949     380.5197     315.8430
   1412.58423     380.0559     315.7812   1412.58423     380.0559     315.7812
   1412.56897     378.7977     315.9175   1412.56897     378.7977     315.9175
   1412.55371     377.9095     315.9060   1412.55371     377.9095     315.9060
   1412.53845     377.3365     316.1284   1412.53845     377.3365     316.1284
   1412.52319     377.0645     316.6340   1412.52319     377.0645     316.6340
   1412.50793     376.3644     317.1511   1412.50793     376.3644     317.1511
   1412.49268     375.3501     317.3965   1412.49268     375.3501     317.3965
   1412.47742     375.0036     318.1520   1412.47742     375.0036     318.1520
   1412.46216     374.5810     318.8480   1412.46216     374.5810     318.8480
   1412.44690     373.6786     319.8511   1412.44690     373.6786     319.8511
   1412.43164     373.9032     319.9547   1412.43164     373.9032     319.9547
   1412.41638     374.0183     321.2990   1412.41638     374.0183     321.2990
   1412.40112     374.3506     321.8650   1412.40112     374.3506     321.8650
   1412.38586     372.9520     322.3403   1412.38586     372.9520     322.3403
   1412.37061     373.4975     323.3692   1412.37061     373.4975     323.3692
   1412.35535     373.6848     324.1447   1412.35535     373.6848     324.1447
   1412.34009     373.5578     325.7670   1412.34009     373.5578     325.7670
   1412.32483     373.5291     327.1062   1412.32483     373.5291     327.1062
   1412.30957     373.6932     327.4955   1412.30957     373.6932     327.4955
   1412.29431     374.0504     329.0766   1412.29431     374.0504     329.0766
   1412.27905     373.9781     329.8172   1412.27905     373.9781     329.8172
   1412.26379     374.6239     331.4187   1412.26379     374.6239     331.4187
   1412.24854     374.7271     332.4409   1412.24854     374.7271     332.4409
   1412.23328     374.8289     333.9112   1412.23328     374.8289     333.9112
   1412.21802     375.9299     335.6703   1412.21802     375.9299     335.6703
   1412.20276     375.6790     336.8735   1412.20276     375.6790     336.8735