#     FILENAME=!Skynet_57528_lach-cc-221_20634_21038.cyb.fits
#     BASENAME=Skynet_57528_lach-cc-221_20634_21038
#     SRC_NAME=lach-cc-221
#     OBSERVER=ccmadison16_9505
#     DATE_OBS=2016-05-20T19:52:43.560
#        OBSID=20634
#      SCANNUM=21038
#          MJD=57528.8293
#          UTC=71653
#     SCANTYPE=track
#     DATAMODE=HIRES
#     TUNEFREQ=1420.0000
# Actual_FREQ1=1420.0000
# Actual_FREQ2=1420.0000
#    LO1Tuning=6870.000
#     RFFILTER=1355_1435
#        OBSBW=-15.6250
#        NCHAN=1024 
#        FOCUS=37.0709
#           RA=07:06:13.58
#          DEC=-07:10:29.57
#      RA(hrs)=7.103800
#     DEC(deg)=-7.174900
#    AZIM(deg)=166.414
#    ELEV(deg)=43.359
#     IFattens=10.00, 9.00
#      WARNING=None
#    TCAL_XL1=7.9635
#    TCAL_YR1=9.1340
#    TCAL_XL2=7.9635
#    TCAL_YR2=9.1340
#     TRX_XL1=11.7060
#     TRX_YR1=11.7060
#     TRX_XL2=11.7060
#     TRX_YR2=11.7060
#        TAVE=1.0000
#Freq1(MHz)          XL1          YR1  Freq2(MHz)          XL2          YR2 

   1427.81250     351.7762     265.8228   1427.81250     351.7762     265.8228
   1427.79724     352.0142     266.0520   1427.79724     352.0142     266.0520
   1427.78198     353.4260     266.5977   1427.78198     353.4260     266.5977
   1427.76672     354.0406     267.2799   1427.76672     354.0406     267.2799
   1427.75146     354.7982     267.8466   1427.75146     354.7982     267.8466
   1427.73621     355.3066     268.2119   1427.73621     355.3066     268.2119
   1427.72095     356.7187     268.3151   1427.72095     356.7187     268.3151
   1427.70569     357.8166     269.0901   1427.70569     357.8166     269.0901
   1427.69043     358.3167     270.7470   1427.69043     358.3167     270.7470
   1427.67517     359.7270     271.2202   1427.67517     359.7270     271.2202
   1427.65991     360.7936     271.9114   1427.65991     360.7936     271.9114
   1427.64465     361.4983     272.6413   1427.64465     361.4983     272.6413
   1427.62939     362.9736     273.6096   1427.62939     362.9736     273.6096
   1427.61414     364.1768     274.4119   1427.61414     364.1768     274.4119
   1427.59888     365.2361     275.1714   1427.59888     365.2361     275.1714
   1427.58362     366.9834     275.9871   1427.58362     366.9834     275.9871
   1427.56836     367.9267     277.2648   1427.56836     367.9267     277.2648
   1427.55310     369.4807     278.1190   1427.55310     369.4807     278.1190
   1427.53784     371.6218     279.7361   1427.53784     371.6218     279.7361
   1427.52258     372.9141     280.5267   1427.52258     372.9141     280.5267
   1427.50732     374.6118     281.4421   1427.50732     374.6118     281.4421
   1427.49207     375.5278     282.2747   1427.49207     375.5278     282.2747
   1427.47681     377.9407     284.0137   1427.47681     377.9407     284.0137
   1427.46155     379.5882     285.1532   1427.46155     379.5882     285.1532
   1427.44629     381.5410     286.3542   1427.44629     381.5410     286.3542
   1427.43103     383.1661     287.5616   1427.43103     383.1661     287.5616
   1427.41577     384.9241     289.0259   1427.41577     384.9241     289.0259
   1427.40051     385.8352     290.1014   1427.40051     385.8352     290.1014
   1427.38525     389.0459     292.2315   1427.38525     389.0459     292.2315
   1427.37000     389.8780     293.0587   1427.37000     389.8780     293.0587
   1427.35474     391.7534     294.8362   1427.35474     391.7534     294.8362
   1427.33948     394.2644     296.4328   1427.33948     394.2644     296.4328
   1427.32422     396.3979     297.1468   1427.32422     396.3979     297.1468
   1427.30896     398.0834     298.8923   1427.30896     398.0834     298.8923
   1427.29370     400.7664     300.9681   1427.29370     400.7664     300.9681
   1427.27844     402.5738     302.0945   1427.27844     402.5738     302.0945
   1427.26318     404.7015     303.8764   1427.26318     404.7015     303.8764
   1427.24792     406.7296     305.2550   1427.24792     406.7296     305.2550
   1427.23267     408.8541     307.7125   1427.23267     408.8541     307.7125
   1427.21741     411.7538     309.3548   1427.21741     411.7538     309.3548
   1427.20215     413.8775     311.2702   1427.20215     413.8775     311.2702
   1427.18689     415.7592     312.6867   1427.18689     415.7592     312.6867
   1427.17163     418.2528     314.7085   1427.17163     418.2528     314.7085
   1427.15637     420.7995     316.4443   1427.15637     420.7995     316.4443
   1427.14111     423.7305     318.3978   1427.14111     423.7305     318.3978
   1427.12585     425.1023     320.2448   1427.12585     425.1023     320.2448
   1427.11060     427.8045     322.6407   1427.11060     427.8045     322.6407
   1427.09534     430.4440     324.4127   1427.09534     430.4440     324.4127
   1427.08008     433.4311     326.2734   1427.08008     433.4311     326.2734
   1427.06482     435.3654     328.1237   1427.06482     435.3654     328.1237
   1427.04956     437.8677     330.5697   1427.04956     437.8677     330.5697
   1427.03430     441.2360     332.3012   1427.03430     441.2360     332.3012
   1427.01904     442.6815     334.4879   1427.01904     442.6815     334.4879
   1427.00378     446.1620     335.9295   1427.00378     446.1620     335.9295
   1426.98853     448.1672     338.3503   1426.98853     448.1672     338.3503
   1426.97327     451.2495     340.3733   1426.97327     451.2495     340.3733
   1426.95801     453.4274     342.6186   1426.95801     453.4274     342.6186
   1426.94275     455.8353     345.0387   1426.94275     455.8353     345.0387
   1426.92749     458.8615     347.3986   1426.92749     458.8615     347.3986
   1426.91223     461.5793     349.6965   1426.91223     461.5793     349.6965
   1426.89697     464.4842     351.5511   1426.89697     464.4842     351.5511
   1426.88171     467.3569     353.7386   1426.88171     467.3569     353.7386
   1426.86646     469.8106     356.1846   1426.86646     469.8106     356.1846
   1426.85120     472.4821     358.4250   1426.85120     472.4821     358.4250
   1426.83594     475.0311     360.5788   1426.83594     475.0311     360.5788
   1426.82068     478.0500     362.9911   1426.82068     478.0500     362.9911
   1426.80542     480.4524     365.0002   1426.80542     480.4524     365.0002
   1426.79016     483.1043     367.2858   1426.79016     483.1043     367.2858
   1426.77490     485.3900     369.8326   1426.77490     485.3900     369.8326
   1426.75964     487.9841     372.5260   1426.75964     487.9841     372.5260
   1426.74438     491.1825     374.7102   1426.74438     491.1825     374.7102
   1426.72913     494.0767     377.1875   1426.72913     494.0767     377.1875
   1426.71387     497.5906     379.3538   1426.71387     497.5906     379.3538
   1426.69861     499.9255     381.9837   1426.69861     499.9255     381.9837
   1426.68335     501.9293     384.3271   1426.68335     501.9293     384.3271
   1426.66809     505.1430     386.7231   1426.66809     505.1430     386.7231
   1426.65283     508.6259     388.7713   1426.65283     508.6259     388.7713
   1426.63757     510.6247     391.4836   1426.63757     510.6247     391.4836
   1426.62231     515.1070     394.9358   1426.62231     515.1070     394.9358
   1426.60706     517.0988     396.6021   1426.60706     517.0988     396.6021
   1426.59180     519.0292     398.6825   1426.59180     519.0292     398.6825
   1426.57654     521.4385     400.7109   1426.57654     521.4385     400.7109
   1426.56128     524.9539     403.7348   1426.56128     524.9539     403.7348
   1426.54602     526.0824     406.0303   1426.54602     526.0824     406.0303
   1426.53076     530.1018     408.9677   1426.53076     530.1018     408.9677
   1426.51550     532.2882     410.8373   1426.51550     532.2882     410.8373
   1426.50024     535.3275     413.4144   1426.50024     535.3275     413.4144
   1426.48499     538.6097     416.5348   1426.48499     538.6097     416.5348
   1426.46973     540.5510     418.5179   1426.46973     540.5510     418.5179
   1426.45447     544.1609     421.1366   1426.45447     544.1609     421.1366
   1426.43921     546.6208     423.3081   1426.43921     546.6208     423.3081
   1426.42395     548.0421     427.0520   1426.42395     548.0421     427.0520
   1426.40869     552.6638     429.0260   1426.40869     552.6638     429.0260
   1426.39343     553.0746     430.4033   1426.39343     553.0746     430.4033
   1426.37817     557.6636     434.0443   1426.37817     557.6636     434.0443
   1426.36292     558.7294     435.6384   1426.36292     558.7294     435.6384
   1426.34766     561.3266     438.2868   1426.34766     561.3266     438.2868
   1426.33240     563.4774     441.2444   1426.33240     563.4774     441.2444
   1426.31714     566.9625     443.7100   1426.31714     566.9625     443.7100
   1426.30188     569.9738     446.3407   1426.30188     569.9738     446.3407
   1426.28662     571.5149     448.8672   1426.28662     571.5149     448.8672
   1426.27136     574.1873     450.7217   1426.27136     574.1873     450.7217
   1426.25610     577.2627     452.7958   1426.25610     577.2627     452.7958
   1426.24084     579.9510     456.1118   1426.24084     579.9510     456.1118
   1426.22559     581.8962     458.5325   1426.22559     581.8962     458.5325
   1426.21033     584.4846     461.0675   1426.21033     584.4846     461.0675
   1426.19507     586.4637     463.0858   1426.19507     586.4637     463.0858
   1426.17981     589.3956     466.0847   1426.17981     589.3956     466.0847
   1426.16455     590.4895     467.7609   1426.16455     590.4895     467.7609
   1426.14929     593.1637     470.7310   1426.14929     593.1637     470.7310
   1426.13403     595.5111     473.6563   1426.13403     595.5111     473.6563
   1426.11877     597.7275     475.2922   1426.11877     597.7275     475.2922
   1426.10352     599.9406     476.9200   1426.10352     599.9406     476.9200
   1426.08826     602.6652     480.5507   1426.08826     602.6652     480.5507
   1426.07300     604.7989     482.5119   1426.07300     604.7989     482.5119
   1426.05774     606.9867     485.1290   1426.05774     606.9867     485.1290
   1426.04248     608.8182     487.6917   1426.04248     608.8182     487.6917
   1426.02722     611.1445     489.1642   1426.02722     611.1445     489.1642
   1426.01196     613.9351     491.7875   1426.01196     613.9351     491.7875
   1425.99670     615.9786     494.6228   1425.99670     615.9786     494.6228
   1425.98145     617.8633     496.6659   1425.98145     617.8633     496.6659
   1425.96619     619.7557     499.3813   1425.96619     619.7557     499.3813
   1425.95093     620.5489     500.8820   1425.95093     620.5489     500.8820
   1425.93567     624.0348     503.5658   1425.93567     624.0348     503.5658
   1425.92041     624.7175     506.2809   1425.92041     624.7175     506.2809
   1425.90515     628.3171     507.6625   1425.90515     628.3171     507.6625
   1425.88989     629.2026     510.3781   1425.88989     629.2026     510.3781
   1425.87463     631.1230     513.2068   1425.87463     631.1230     513.2068
   1425.85938     633.3589     514.9065   1425.85938     633.3589     514.9065
   1425.84412     635.5182     517.5174   1425.84412     635.5182     517.5174
   1425.82886     637.0509     519.5540   1425.82886     637.0509     519.5540
   1425.81360     638.5511     521.2916   1425.81360     638.5511     521.2916
   1425.79834     640.4471     523.7017   1425.79834     640.4471     523.7017
   1425.78308     642.5649     526.2639   1425.78308     642.5649     526.2639
   1425.76782     644.2426     528.1219   1425.76782     644.2426     528.1219
   1425.75256     644.5814     529.7013   1425.75256     644.5814     529.7013
   1425.73730     647.6690     532.2639   1425.73730     647.6690     532.2639
   1425.72205     647.7602     534.1351   1425.72205     647.7602     534.1351
   1425.70679     650.0749     536.0933   1425.70679     650.0749     536.0933
   1425.69153     651.7097     538.6375   1425.69153     651.7097     538.6375
   1425.67627     652.5001     540.1051   1425.67627     652.5001     540.1051
   1425.66101     654.7457     541.9222   1425.66101     654.7457     541.9222
   1425.64575     656.3624     545.0772   1425.64575     656.3624     545.0772
   1425.63049     658.6794     546.8633   1425.63049     658.6794     546.8633
   1425.61523     658.5338     549.5640   1425.61523     658.5338     549.5640
   1425.59998     660.4465     550.7606   1425.59998     660.4465     550.7606
   1425.58472     662.7339     552.5370   1425.58472     662.7339     552.5370
   1425.56946     663.5896     554.4985   1425.56946     663.5896     554.4985
   1425.55420     664.5665     556.6442   1425.55420     664.5665     556.6442
   1425.53894     665.3688     558.7489   1425.53894     665.3688     558.7489
   1425.52368     666.9863     559.7977   1425.52368     666.9863     559.7977
   1425.50842     667.6160     562.1194   1425.50842     667.6160     562.1194
   1425.49316     669.5630     563.9164   1425.49316     669.5630     563.9164
   1425.47791     671.2108     566.8011   1425.47791     671.2108     566.8011
   1425.46265     670.7495     568.5544   1425.46265     670.7495     568.5544
   1425.44739     672.7242     570.3715   1425.44739     672.7242     570.3715
   1425.43213     673.6243     572.3463   1425.43213     673.6243     572.3463
   1425.41687     675.8004     573.6071   1425.41687     675.8004     573.6071
   1425.40161     676.0938     574.8647   1425.40161     676.0938     574.8647
   1425.38635     677.3567     576.9376   1425.38635     677.3567     576.9376
   1425.37109     678.6841     578.4747   1425.37109     678.6841     578.4747
   1425.35583     678.6575     579.8492   1425.35583     678.6575     579.8492
   1425.34058     680.6517     581.5221   1425.34058     680.6517     581.5221
   1425.32532     681.1149     583.4587   1425.32532     681.1149     583.4587
   1425.31006     681.3724     585.6542   1425.31006     681.3724     585.6542
   1425.29480     682.7255     586.6346   1425.29480     682.7255     586.6346
   1425.27954     683.4753     588.6303   1425.27954     683.4753     588.6303
   1425.26428     684.2679     589.3920   1425.26428     684.2679     589.3920
   1425.24902     686.2389     591.7518   1425.24902     686.2389     591.7518
   1425.23376     685.5137     593.1183   1425.23376     685.5137     593.1183
   1425.21851     685.7089     594.4686   1425.21851     685.7089     594.4686
   1425.20325     687.1883     596.2027   1425.20325     687.1883     596.2027
   1425.18799     687.5307     597.5931   1425.18799     687.5307     597.5931
   1425.17273     689.2654     600.1211   1425.17273     689.2654     600.1211
   1425.15747     689.4999     600.9093   1425.15747     689.4999     600.9093
   1425.14221     690.3402     602.2925   1425.14221     690.3402     602.2925
   1425.12695     691.2229     604.4046   1425.12695     691.2229     604.4046
   1425.11169     691.1821     605.7198   1425.11169     691.1821     605.7198
   1425.09644     692.1134     606.9711   1425.09644     692.1134     606.9711
   1425.08118     692.0117     607.8734   1425.08118     692.0117     607.8734
   1425.06592     691.7729     609.4312   1425.06592     691.7729     609.4312
   1425.05066     693.5211     611.4601   1425.05066     693.5211     611.4601
   1425.03540     693.7819     611.4264   1425.03540     693.7819     611.4264
   1425.02014     694.5203     614.0907   1425.02014     694.5203     614.0907
   1425.00488     694.7742     614.5123   1425.00488     694.7742     614.5123
   1424.98962     695.4811     616.6650   1424.98962     695.4811     616.6650
   1424.97437     696.5477     618.1964   1424.97437     696.5477     618.1964
   1424.95911     696.4191     617.8911   1424.95911     696.4191     617.8911
   1424.94385     695.5792     619.8988   1424.94385     695.5792     619.8988
   1424.92859     696.4935     621.4296   1424.92859     696.4935     621.4296
   1424.91333     698.0346     622.0739   1424.91333     698.0346     622.0739
   1424.89807     697.2139     622.7068   1424.89807     697.2139     622.7068
   1424.88281     697.1105     625.6893   1424.88281     697.1105     625.6893
   1424.86755     698.9370     625.8628   1424.86755     698.9370     625.8628
   1424.85229     697.3746     625.8725   1424.85229     697.3746     625.8725
   1424.83704     698.0135     627.6572   1424.83704     698.0135     627.6572
   1424.82178     698.7723     628.7867   1424.82178     698.7723     628.7867
   1424.80652     699.7831     629.9512   1424.80652     699.7831     629.9512
   1424.79126     699.2820     630.7962   1424.79126     699.2820     630.7962
   1424.77600     700.5016     631.8239   1424.77600     700.5016     631.8239
   1424.76074     699.6617     632.2313   1424.76074     699.6617     632.2313
   1424.74548     699.7190     634.4774   1424.74548     699.7190     634.4774
   1424.73022     700.0831     634.1772   1424.73022     700.0831     634.1772
   1424.71497     701.2485     636.1025   1424.71497     701.2485     636.1025
   1424.69971     700.3351     636.4138   1424.69971     700.3351     636.4138
   1424.68445     702.2601     637.4413   1424.68445     702.2601     637.4413
   1424.66919     701.0718     638.9892   1424.66919     701.0718     638.9892
   1424.65393     699.8167     638.6877   1424.65393     699.8167     638.6877
   1424.63867     700.6464     640.2214   1424.63867     700.6464     640.2214
   1424.62341     700.6113     641.2149   1424.62341     700.6113     641.2149
   1424.60815     702.0198     640.9086   1424.60815     702.0198     640.9086
   1424.59290     701.7341     641.9655   1424.59290     701.7341     641.9655
   1424.57764     702.2798     643.5546   1424.57764     702.2798     643.5546
   1424.56238     701.3981     644.3602   1424.56238     701.3981     644.3602
   1424.54712     700.1864     644.0255   1424.54712     700.1864     644.0255
   1424.53186     701.3019     645.0439   1424.53186     701.3019     645.0439
   1424.51660     701.5698     646.3115   1424.51660     701.5698     646.3115
   1424.50134     701.0159     647.3386   1424.50134     701.0159     647.3386
   1424.48608     701.2094     646.5271   1424.48608     701.2094     646.5271
   1424.47083     702.5062     647.9423   1424.47083     702.5062     647.9423
   1424.45557     700.9247     647.6234   1424.45557     700.9247     647.6234
   1424.44031     701.0179     648.2944   1424.44031     701.0179     648.2944
   1424.42505     701.3314     649.4261   1424.42505     701.3314     649.4261
   1424.40979     700.8809     650.4417   1424.40979     700.8809     650.4417
   1424.39453     701.5743     649.9020   1424.39453     701.5743     649.9020
   1424.37927     700.8951     650.5610   1424.37927     700.8951     650.5610
   1424.36401     700.7421     651.4399   1424.36401     700.7421     651.4399
   1424.34875     699.7244     652.1285   1424.34875     699.7244     652.1285
   1424.33350     700.3019     652.3063   1424.33350     700.3019     652.3063
   1424.31824     700.1682     652.6062   1424.31824     700.1682     652.6062
   1424.30298     700.9685     652.5724   1424.30298     700.9685     652.5724
   1424.28772     700.5945     652.9546   1424.28772     700.5945     652.9546
   1424.27246     700.7800     653.5857   1424.27246     700.7800     653.5857
   1424.25720     699.5986     654.2554   1424.25720     699.5986     654.2554
   1424.24194     699.8661     653.8288   1424.24194     699.8661     653.8288
   1424.22668     699.8994     655.2635   1424.22668     699.8994     655.2635
   1424.21143     699.3755     654.8184   1424.21143     699.3755     654.8184
   1424.19617     701.0500     653.8288   1424.19617     701.0500     653.8288
   1424.18091     699.1957     655.3215   1424.18091     699.1957     655.3215
   1424.16565     699.3323     654.7098   1424.16565     699.3323     654.7098
   1424.15039     699.2761     655.4514   1424.15039     699.2761     655.4514
   1424.13513     698.7913     655.8280   1424.13513     698.7913     655.8280
   1424.11987     697.9445     656.3837   1424.11987     697.9445     656.3837
   1424.10461     698.7363     655.6681   1424.10461     698.7363     655.6681
   1424.08936     698.0617     655.6193   1424.08936     698.0617     655.6193
   1424.07410     697.0475     655.8476   1424.07410     697.0475     655.8476
   1424.05884     697.4889     656.4666   1424.05884     697.4889     656.4666
   1424.04358     696.9551     655.9398   1424.04358     696.9551     655.9398
   1424.02832     697.2683     656.7245   1424.02832     697.2683     656.7245
   1424.01306     697.2540     656.7012   1424.01306     697.2540     656.7012
   1423.99780     697.9868     656.5484   1423.99780     697.9868     656.5484
   1423.98254     696.3929     656.7890   1423.98254     696.3929     656.7890
   1423.96729     697.2300     655.4628   1423.96729     697.2300     655.4628
   1423.95203     695.7093     656.6833   1423.95203     695.7093     656.6833
   1423.93677     695.7622     655.5132   1423.93677     695.7622     655.5132
   1423.92151     695.5576     655.1999   1423.92151     695.5576     655.1999
   1423.90625     695.4222     655.8209   1423.90625     695.4222     655.8209
   1423.89099     696.1607     656.0955   1423.89099     696.1607     656.0955
   1423.87573     695.0968     655.1861   1423.87573     695.0968     655.1861
   1423.86047     694.8585     655.9772   1423.86047     694.8585     655.9772
   1423.84521     694.9160     655.1432   1423.84521     694.9160     655.1432
   1423.82996     695.0197     654.6129   1423.82996     695.0197     654.6129
   1423.81470     694.1346     654.8357   1423.81470     694.1346     654.8357
   1423.79944     694.3595     655.3920   1423.79944     694.3595     655.3920
   1423.78418     694.3749     653.9866   1423.78418     694.3749     653.9866
   1423.76892     693.0428     653.6064   1423.76892     693.0428     653.6064
   1423.75366     693.7317     654.0847   1423.75366     693.7317     654.0847
   1423.73840     692.9863     653.3778   1423.73840     692.9863     653.3778
   1423.72314     693.5688     653.0215   1423.72314     693.5688     653.0215
   1423.70789     691.6041     653.5732   1423.70789     691.6041     653.5732
   1423.69263     692.0950     651.9924   1423.69263     692.0950     651.9924
   1423.67737     691.6891     651.3616   1423.67737     691.6891     651.3616
   1423.66211     690.8447     651.3469   1423.66211     690.8447     651.3469
   1423.64685     691.6751     651.7802   1423.64685     691.6751     651.7802
   1423.63159     692.2436     650.5822   1423.63159     692.2436     650.5822
   1423.61633     691.4563     649.8847   1423.61633     691.4563     649.8847
   1423.60107     691.0417     650.1104   1423.60107     691.0417     650.1104
   1423.58582     690.7912     649.5095   1423.58582     690.7912     649.5095
   1423.57056     690.6895     648.2890   1423.57056     690.6895     648.2890
   1423.55530     691.2292     649.2913   1423.55530     691.2292     649.2913
   1423.54004     690.2244     647.5820   1423.54004     690.2244     647.5820
   1423.52478     690.9702     646.4939   1423.52478     690.9702     646.4939
   1423.50952     690.5417     646.7190   1423.50952     690.5417     646.7190
   1423.49426     689.1188     645.3425   1423.49426     689.1188     645.3425
   1423.47900     688.8997     645.1238   1423.47900     688.8997     645.1238
   1423.46375     688.1910     644.4426   1423.46375     688.1910     644.4426
   1423.44849     688.4955     643.4578   1423.44849     688.4955     643.4578
   1423.43323     688.4600     643.1024   1423.43323     688.4600     643.1024
   1423.41797     688.2719     641.3686   1423.41797     688.2719     641.3686
   1423.40271     687.4948     642.3456   1423.40271     687.4948     642.3456
   1423.38745     687.9314     640.6066   1423.38745     687.9314     640.6066
   1423.37219     687.9805     641.7446   1423.37219     687.9805     641.7446
   1423.35693     686.9284     640.2591   1423.35693     686.9284     640.2591
   1423.34167     687.2750     639.7702   1423.34167     687.2750     639.7702
   1423.32642     686.9318     637.5308   1423.32642     686.9318     637.5308
   1423.31116     685.3865     636.5372   1423.31116     685.3865     636.5372
   1423.29590     686.3775     637.2546   1423.29590     686.3775     637.2546
   1423.28064     686.5313     635.1288   1423.28064     686.5313     635.1288
   1423.26538     685.5900     635.5363   1423.26538     685.5900     635.5363
   1423.25012     684.2781     634.4131   1423.25012     684.2781     634.4131
   1423.23486     686.1484     632.7076   1423.23486     686.1484     632.7076
   1423.21960     685.1719     633.0905   1423.21960     685.1719     633.0905
   1423.20435     683.9672     631.9969   1423.20435     683.9672     631.9969
   1423.18909     685.2485     630.4341   1423.18909     685.2485     630.4341
   1423.17383     684.2612     630.0138   1423.17383     684.2612     630.0138
   1423.15857     683.1329     629.0483   1423.15857     683.1329     629.0483
   1423.14331     683.0656     628.4702   1423.14331     683.0656     628.4702
   1423.12805     683.2114     627.7102   1423.12805     683.2114     627.7102
   1423.11279     683.0793     626.7215   1423.11279     683.0793     626.7215
   1423.09753     682.5483     625.1384   1423.09753     682.5483     625.1384
   1423.08228     681.8052     624.3757   1423.08228     681.8052     624.3757
   1423.06702     683.1168     622.7391   1423.06702     683.1168     622.7391
   1423.05176     681.9067     621.6157   1423.05176     681.9067     621.6157
   1423.03650     680.4999     620.9722   1423.03650     680.4999     620.9722
   1423.02124     682.1811     620.2200   1423.02124     682.1811     620.2200
   1423.00598     681.8522     619.9651   1423.00598     681.8522     619.9651
   1422.99072     682.4374     618.3284   1422.99072     682.4374     618.3284
   1422.97546     680.6216     617.6958   1422.97546     680.6216     617.6958
   1422.96021     680.9371     616.8709   1422.96021     680.9371     616.8709
   1422.94495     680.4207     614.3075   1422.94495     680.4207     614.3075
   1422.92969     680.9316     614.8887   1422.92969     680.9316     614.8887
   1422.91443     679.8605     612.7020   1422.91443     679.8605     612.7020
   1422.89917     679.3712     611.9981   1422.89917     679.3712     611.9981
   1422.88391     679.9053     610.9622   1422.88391     679.9053     610.9622
   1422.86865     679.3272     610.1864   1422.86865     679.3272     610.1864
   1422.85339     679.2885     608.3318   1422.85339     679.2885     608.3318
   1422.83813     677.7486     607.8185   1422.83813     677.7486     607.8185
   1422.82288     679.1240     606.7823   1422.82288     679.1240     606.7823
   1422.80762     678.2322     604.6859   1422.80762     678.2322     604.6859
   1422.79236     678.4554     604.2650   1422.79236     678.4554     604.2650
   1422.77710     677.2836     603.3699   1422.77710     677.2836     603.3699
   1422.76184     677.7496     602.2517   1422.76184     677.7496     602.2517
   1422.74658     676.9182     600.4313   1422.74658     676.9182     600.4313
   1422.73132     677.6096     599.5206   1422.73132     677.6096     599.5206
   1422.71606     677.6164     598.6104   1422.71606     677.6164     598.6104
   1422.70081     676.7398     596.2525   1422.70081     676.7398     596.2525
   1422.68555     676.3043     594.6192   1422.68555     676.3043     594.6192
   1422.67029     677.7238     594.5461   1422.67029     677.7238     594.5461
   1422.65503     675.3873     592.5163   1422.65503     675.3873     592.5163
   1422.63977     675.6254     591.4895   1422.63977     675.6254     591.4895
   1422.62451     674.9911     590.7859   1422.62451     674.9911     590.7859
   1422.60925     675.4200     589.4675   1422.60925     675.4200     589.4675
   1422.59399     674.5612     588.4509   1422.59399     674.5612     588.4509
   1422.57874     674.6534     587.2215   1422.57874     674.6534     587.2215
   1422.56348     675.2964     584.2536   1422.56348     675.2964     584.2536
   1422.54822     674.7388     584.0541   1422.54822     674.7388     584.0541
   1422.53296     674.6596     582.5200   1422.53296     674.6596     582.5200
   1422.51770     673.7990     581.8640   1422.51770     673.7990     581.8640
   1422.50244     673.8826     580.1356   1422.50244     673.8826     580.1356
   1422.48718     673.6088     578.8751   1422.48718     673.6088     578.8751
   1422.47192     673.0504     577.5089   1422.47192     673.0504     577.5089
   1422.45667     673.1094     576.0406   1422.45667     673.1094     576.0406
   1422.44141     673.5503     576.2134   1422.44141     673.5503     576.2134
   1422.42615     673.7486     574.4507   1422.42615     673.7486     574.4507
   1422.41089     673.0596     572.3256   1422.41089     673.0596     572.3256
   1422.39563     673.0489     572.3384   1422.39563     673.0489     572.3384
   1422.38037     671.2697     570.3289   1422.38037     671.2697     570.3289
   1422.36511     671.3652     568.7159   1422.36511     671.3652     568.7159
   1422.34985     672.6409     567.3147   1422.34985     672.6409     567.3147
   1422.33459     671.0939     566.1611   1422.33459     671.0939     566.1611
   1422.31934     671.6982     565.2106   1422.31934     671.6982     565.2106
   1422.30408     671.0054     562.9105   1422.30408     671.0054     562.9105
   1422.28882     670.7729     561.9969   1422.28882     670.7729     561.9969
   1422.27356     670.1123     561.5475   1422.27356     670.1123     561.5475
   1422.25830     670.1317     559.6394   1422.25830     670.1317     559.6394
   1422.24304     669.9932     559.6138   1422.24304     669.9932     559.6138
   1422.22778     669.6726     557.1273   1422.22778     669.6726     557.1273
   1422.21252     668.9859     556.8718   1422.21252     668.9859     556.8718
   1422.19727     670.0966     554.3344   1422.19727     670.0966     554.3344
   1422.18201     669.5609     553.0057   1422.18201     669.5609     553.0057
   1422.16675     669.5034     551.3483   1422.16675     669.5034     551.3483
   1422.15149     669.2711     549.8671   1422.15149     669.2711     549.8671
   1422.13623     668.7404     549.6321   1422.13623     668.7404     549.6321
   1422.12097     668.9545     548.2216   1422.12097     668.9545     548.2216
   1422.10571     668.5460     546.7936   1422.10571     668.5460     546.7936
   1422.09045     668.2810     545.4473   1422.09045     668.2810     545.4473
   1422.07520     666.8904     544.0488   1422.07520     666.8904     544.0488
   1422.05994     667.8630     543.2519   1422.05994     667.8630     543.2519
   1422.04468     666.9526     541.6287   1422.04468     666.9526     541.6287
   1422.02942     667.4209     541.0487   1422.02942     667.4209     541.0487
   1422.01416     667.3619     539.0080   1422.01416     667.3619     539.0080
   1421.99890     666.3797     537.5684   1421.99890     666.3797     537.5684
   1421.98364     666.0140     535.4579   1421.98364     666.0140     535.4579
   1421.96838     665.6762     534.1923   1421.96838     665.6762     534.1923
   1421.95312     666.3556     533.6879   1421.95312     666.3556     533.6879
   1421.93787     666.6261     532.8049   1421.93787     666.6261     532.8049
   1421.92261     665.2539     531.4118   1421.92261     665.2539     531.4118
   1421.90735     664.3612     530.5212   1421.90735     664.3612     530.5212
   1421.89209     665.8298     528.7712   1421.89209     665.8298     528.7712
   1421.87683     663.9842     527.4556   1421.87683     663.9842     527.4556
   1421.86157     665.4319     525.2222   1421.86157     665.4319     525.2222
   1421.84631     664.3736     524.6303   1421.84631     664.3736     524.6303
   1421.83105     664.0963     523.1494   1421.83105     664.0963     523.1494
   1421.81580     664.1428     521.8033   1421.81580     664.1428     521.8033
   1421.80054     664.4288     520.5465   1421.80054     664.4288     520.5465
   1421.78528     663.5717     519.9692   1421.78528     663.5717     519.9692
   1421.77002     662.4345     518.7827   1421.77002     662.4345     518.7827
   1421.75476     662.6556     517.8939   1421.75476     662.6556     517.8939
   1421.73950     663.4236     515.4304   1421.73950     663.4236     515.4304
   1421.72424     661.6316     515.0282   1421.72424     661.6316     515.0282
   1421.70898     661.5296     513.7331   1421.70898     661.5296     513.7331
   1421.69373     662.3367     511.8284   1421.69373     662.3367     511.8284
   1421.67847     661.6746     510.6212   1421.67847     661.6746     510.6212
   1421.66321     662.2676     509.7894   1421.66321     662.2676     509.7894
   1421.64795     661.6067     508.1994   1421.64795     661.6067     508.1994
   1421.63269     661.7221     506.9069   1421.63269     661.7221     506.9069
   1421.61743     659.6964     505.7124   1421.61743     659.6964     505.7124
   1421.60217     659.7316     504.1923   1421.60217     659.7316     504.1923
   1421.58691     659.6821     504.1913   1421.58691     659.6821     504.1913
   1421.57166     659.9136     502.3649   1421.57166     659.9136     502.3649
   1421.55640     659.5015     500.7402   1421.55640     659.5015     500.7402
   1421.54114     659.4324     499.6449   1421.54114     659.4324     499.6449
   1421.52588     659.1761     498.7953   1421.52588     659.1761     498.7953
   1421.51062     658.4045     497.2324   1421.51062     658.4045     497.2324
   1421.49536     659.3061     496.3122   1421.49536     659.3061     496.3122
   1421.48010     658.0105     493.8981   1421.48010     658.0105     493.8981
   1421.46484     657.8476     494.1531   1421.46484     657.8476     494.1531
   1421.44958     657.9908     493.1819   1421.44958     657.9908     493.1819
   1421.43433     657.8494     491.3631   1421.43433     657.8494     491.3631
   1421.41907     657.6740     490.7757   1421.41907     657.6740     490.7757
   1421.40381     657.1953     488.7139   1421.40381     657.1953     488.7139
   1421.38855     656.1002     487.7860   1421.38855     656.1002     487.7860
   1421.37329     656.7708     486.6514   1421.37329     656.7708     486.6514
   1421.35803     656.2121     485.3152   1421.35803     656.2121     485.3152
   1421.34277     655.9771     484.7764   1421.34277     655.9771     484.7764
   1421.32751     656.3745     483.6568   1421.32751     656.3745     483.6568
   1421.31226     655.5549     482.0227   1421.31226     655.5549     482.0227
   1421.29700     654.5571     480.9907   1421.29700     654.5571     480.9907
   1421.28174     655.1456     479.7147   1421.28174     655.1456     479.7147
   1421.26648     655.2198     478.2339   1421.26648     655.2198     478.2339
   1421.25122     654.8794     478.5322   1421.25122     654.8794     478.5322
   1421.23596     655.7106     476.8086   1421.23596     655.7106     476.8086
   1421.22070     654.2213     475.6195   1421.22070     654.2213     475.6195
   1421.20544     654.8157     474.5438   1421.20544     654.8157     474.5438
   1421.19019     653.9896     473.9417   1421.19019     653.9896     473.9417
   1421.17493     652.0162     472.3287   1421.17493     652.0162     472.3287
   1421.15967     653.9556     471.1343   1421.15967     653.9556     471.1343
   1421.14441     652.9128     469.9039   1421.14441     652.9128     469.9039
   1421.12915     652.2413     468.9272   1421.12915     652.2413     468.9272
   1421.11389     652.1304     467.6454   1421.11389     652.1304     467.6454
   1421.09863     651.2777     467.4238   1421.09863     651.2777     467.4238
   1421.08337     650.6315     465.5415   1421.08337     650.6315     465.5415
   1421.06812     651.9662     464.6900   1421.06812     651.9662     464.6900
   1421.05286     651.4912     463.5264   1421.05286     651.4912     463.5264
   1421.03760     651.2963     462.7614   1421.03760     651.2963     462.7614
   1421.02234     650.3722     461.8761   1421.02234     650.3722     461.8761
   1421.00708     650.7452     459.9737   1421.00708     650.7452     459.9737
   1420.99182     650.7177     459.5905   1420.99182     650.7177     459.5905
   1420.97656     651.1085     458.8606   1420.97656     651.1085     458.8606
   1420.96130     649.8256     457.8612   1420.96130     649.8256     457.8612
   1420.94604     650.4587     457.4528   1420.94604     650.4587     457.4528
   1420.93079     649.8762     455.9050   1420.93079     649.8762     455.9050
   1420.91553     649.5590     455.1266   1420.91553     649.5590     455.1266
   1420.90027     648.9855     453.5509   1420.90027     648.9855     453.5509
   1420.88501     648.8444     452.9075   1420.88501     648.8444     452.9075
   1420.86975     649.1102     452.6632   1420.86975     649.1102     452.6632
   1420.85449     648.9451     451.7906   1420.85449     648.9451     451.7906
   1420.83923     650.0356     450.6605   1420.83923     650.0356     450.6605
   1420.82397     649.3577     449.6472   1420.82397     649.3577     449.6472
   1420.80872     649.6000     448.5271   1420.80872     649.6000     448.5271
   1420.79346     649.5655     448.1875   1420.79346     649.5655     448.1875
   1420.77820     648.5305     447.9344   1420.77820     648.5305     447.9344
   1420.76294     648.3394     446.7567   1420.76294     648.3394     446.7567
   1420.74768     648.9567     446.1657   1420.74768     648.9567     446.1657
   1420.73242     649.4805     445.4126   1420.73242     649.4805     445.4126
   1420.71716     649.1083     444.5057   1420.71716     649.1083     444.5057
   1420.70190     649.0481     443.2466   1420.70190     649.0481     443.2466
   1420.68665     647.8199     442.0447   1420.68665     647.8199     442.0447
   1420.67139     648.9809     440.9555   1420.67139     648.9809     440.9555
   1420.65613     648.6292     440.4763   1420.65613     648.6292     440.4763
   1420.64087     648.8347     439.6951   1420.64087     648.8347     439.6951
   1420.62561     647.9130     438.5048   1420.62561     647.9130     438.5048
   1420.61035     647.9611     437.9318   1420.61035     647.9611     437.9318
   1420.59509     647.8409     437.9739   1420.59509     647.8409     437.9739
   1420.57983     648.0256     438.0322   1420.57983     648.0256     438.0322
   1420.56458     649.2375     437.7908   1420.56458     649.2375     437.7908
   1420.54932     650.7334     437.5721   1420.54932     650.7334     437.5721
   1420.53406     653.0847     438.1938   1420.53406     653.0847     438.1938
   1420.51880     653.3209     437.5967   1420.51880     653.3209     437.5967
   1420.50354     654.2606     437.1302   1420.50354     654.2606     437.1302
   1420.48828     652.8811     435.2375   1420.48828     652.8811     435.2375
   1420.47302     650.4644     433.5364   1420.47302     650.4644     433.5364
   1420.45776     650.2642     432.9702   1420.45776     650.2642     432.9702
   1420.44250     649.9924     431.8494   1420.44250     649.9924     431.8494
   1420.42725     650.2068     430.8998   1420.42725     650.2068     430.8998
   1420.41199     649.7346     430.6420   1420.41199     649.7346     430.6420
   1420.39673     650.1268     429.8398   1420.39673     650.1268     429.8398
   1420.38147     650.4993     430.0768   1420.38147     650.4993     430.0768
   1420.36621     650.1508     429.5165   1420.36621     650.1508     429.5165
   1420.35095     652.1088     429.6438   1420.35095     652.1088     429.6438
   1420.33569     652.8004     430.0424   1420.33569     652.8004     430.0424
   1420.32043     655.9944     431.2167   1420.32043     655.9944     431.2167
   1420.30518     662.1106     433.8954   1420.30518     662.1106     433.8954
   1420.28992     672.8693     439.8148   1420.28992     672.8693     439.8148
   1420.27466     692.1678     451.0525   1420.27466     692.1678     451.0525
   1420.25940     728.8311     473.8376   1420.25940     728.8311     473.8376
   1420.24414     820.3929     530.0389   1420.24414     820.3929     530.0389
   1420.22888    1041.7146     668.2851   1420.22888    1041.7146     668.2851
   1420.21362    1096.0345     700.8937   1420.21362    1096.0345     700.8937
   1420.19836    1075.7256     688.0328   1420.19836    1075.7256     688.0328
   1420.18311    1139.0732     726.5833   1420.18311    1139.0732     726.5833
   1420.16785    1503.0854     957.1675   1420.16785    1503.0854     957.1675
   1420.15259    1969.0878    1242.5172   1420.15259    1969.0878    1242.5172
   1420.13733    1999.4932    1257.4584   1420.13733    1999.4932    1257.4584
   1420.12207    1672.7577    1051.1326   1420.12207    1672.7577    1051.1326
   1420.10681    1449.3466     913.4210   1420.10681    1449.3466     913.4210
   1420.09155    1287.3346     812.0281   1420.09155    1287.3346     812.0281
   1420.07629    1326.1200     834.8077   1420.07629    1326.1200     834.8077
   1420.06104    1571.6372     985.1304   1420.06104    1571.6372     985.1304
   1420.04578    1755.6757    1096.6760   1420.04578    1755.6757    1096.6760
   1420.03052    1537.0997     963.9655   1420.03052    1537.0997     963.9655
   1420.01526    1389.6237     871.0127   1420.01526    1389.6237     871.0127
   1420.00000    1504.0118     942.0620   1420.00000    1504.0118     942.0620
   1419.98474    1618.3998    1013.1110   1419.98474    1618.3998    1013.1110
   1419.96948    1700.4645    1061.3960   1419.96948    1700.4645    1061.3960
   1419.95422    1563.4121     973.3947   1419.95422    1563.4121     973.3947
   1419.93896    1481.2014     922.7557   1419.93896    1481.2014     922.7557
   1419.92371    1261.0244     787.3855   1419.92371    1261.0244     787.3855
   1419.90845     994.8672     624.5430   1419.90845     994.8672     624.5430
   1419.89319     855.7435     538.0144   1419.89319     855.7435     538.0144
   1419.87793     782.2768     493.3432   1419.87793     782.2768     493.3432
   1419.86267     736.3973     463.9821   1419.86267     736.3973     463.9821
   1419.84741     706.5613     445.8303   1419.84741     706.5613     445.8303
   1419.83215     689.0576     434.0790   1419.83215     689.0576     434.0790
   1419.81689     679.6169     428.3739   1419.81689     679.6169     428.3739
   1419.80164     673.9816     424.3845   1419.80164     673.9816     424.3845
   1419.78638     671.7058     422.5404   1419.78638     671.7058     422.5404
   1419.77112     669.2849     419.8523   1419.77112     669.2849     419.8523
   1419.75586     665.3469     417.2695   1419.75586     665.3469     417.2695
   1419.74060     661.7644     414.6663   1419.74060     661.7644     414.6663
   1419.72534     656.3985     411.6779   1419.72534     656.3985     411.6779
   1419.71008     652.5788     408.7317   1419.71008     652.5788     408.7317
   1419.69482     650.8578     407.3596   1419.69482     650.8578     407.3596
   1419.67957     649.5200     405.6191   1419.67957     649.5200     405.6191
   1419.66431     647.0964     404.5433   1419.66431     647.0964     404.5433
   1419.64905     646.4589     403.5025   1419.64905     646.4589     403.5025
   1419.63379     647.6746     403.0529   1419.63379     647.6746     403.0529
   1419.61853     645.8702     402.2477   1419.61853     645.8702     402.2477
   1419.60327     646.2335     402.1190   1419.60327     646.2335     402.1190
   1419.58801     647.4959     401.6876   1419.58801     647.4959     401.6876
   1419.57275     646.1194     401.8319   1419.57275     646.1194     401.8319
   1419.55750     646.1239     400.5913   1419.55750     646.1239     400.5913
   1419.54224     646.5446     400.7072   1419.54224     646.5446     400.7072
   1419.52698     645.9482     400.4352   1419.52698     645.9482     400.4352
   1419.51172     646.0957     399.9500   1419.51172     646.0957     399.9500
   1419.49646     645.7687     400.0296   1419.49646     645.7687     400.0296
   1419.48120     646.7991     399.6330   1419.48120     646.7991     399.6330
   1419.46594     646.5984     399.2506   1419.46594     646.5984     399.2506
   1419.45068     647.1801     398.8140   1419.45068     647.1801     398.8140
   1419.43542     648.4015     399.3787   1419.43542     648.4015     399.3787
   1419.42017     647.7146     399.1036   1419.42017     647.7146     399.1036
   1419.40491     648.3108     399.2783   1419.40491     648.3108     399.2783
   1419.38965     648.6281     398.9070   1419.38965     648.6281     398.9070
   1419.37439     648.8328     399.1085   1419.37439     648.8328     399.1085
   1419.35913     648.6260     398.5240   1419.35913     648.6260     398.5240
   1419.34387     648.7698     399.3352   1419.34387     648.7698     399.3352
   1419.32861     651.0165     398.8567   1419.32861     651.0165     398.8567
   1419.31335     650.3743     398.2617   1419.31335     650.3743     398.2617
   1419.29810     651.8052     398.7511   1419.29810     651.8052     398.7511
   1419.28284     650.8076     398.5912   1419.28284     650.8076     398.5912
   1419.26758     651.7870     398.8289   1419.26758     651.7870     398.8289
   1419.25232     653.3220     398.2672   1419.25232     653.3220     398.2672
   1419.23706     652.5661     399.4202   1419.23706     652.5661     399.4202
   1419.22180     653.5678     398.8274   1419.22180     653.5678     398.8274
   1419.20654     652.5547     398.8575   1419.20654     652.5547     398.8575
   1419.19128     653.7175     398.6061   1419.19128     653.7175     398.6061
   1419.17603     654.1472     399.1947   1419.17603     654.1472     399.1947
   1419.16077     655.4943     399.3548   1419.16077     655.4943     399.3548
   1419.14551     656.3094     399.6017   1419.14551     656.3094     399.6017
   1419.13025     656.1326     399.5092   1419.13025     656.1326     399.5092
   1419.11499     656.8081     398.8439   1419.11499     656.8081     398.8439
   1419.09973     658.0645     399.5062   1419.09973     658.0645     399.5062
   1419.08447     658.4875     399.6595   1419.08447     658.4875     399.6595
   1419.06921     658.1384     399.7630   1419.06921     658.1384     399.7630
   1419.05396     659.0903     400.1477   1419.05396     659.0903     400.1477
   1419.03870     659.2374     399.4265   1419.03870     659.2374     399.4265
   1419.02344     660.4162     400.1810   1419.02344     660.4162     400.1810
   1419.00818     661.4747     400.5096   1419.00818     661.4747     400.5096
   1418.99292     662.1439     400.4610   1418.99292     662.1439     400.4610
   1418.97766     662.0978     401.0834   1418.97766     662.0978     401.0834
   1418.96240     662.9922     400.8698   1418.96240     662.9922     400.8698
   1418.94714     664.7068     400.9520   1418.94714     664.7068     400.9520
   1418.93188     665.3688     401.2991   1418.93188     665.3688     401.2991
   1418.91663     664.0823     401.5208   1418.91663     664.0823     401.5208
   1418.90137     665.7870     401.7081   1418.90137     665.7870     401.7081
   1418.88611     667.0471     402.3292   1418.88611     667.0471     402.3292
   1418.87085     666.4685     401.8722   1418.87085     666.4685     401.8722
   1418.85559     667.9825     402.8354   1418.85559     667.9825     402.8354
   1418.84033     668.3607     402.3499   1418.84033     668.3607     402.3499
   1418.82507     670.2162     403.6068   1418.82507     670.2162     403.6068
   1418.80981     670.6607     402.8334   1418.80981     670.6607     402.8334
   1418.79456     670.9139     403.5047   1418.79456     670.9139     403.5047
   1418.77930     672.5753     404.0852   1418.77930     672.5753     404.0852
   1418.76404     673.3784     403.8761   1418.76404     673.3784     403.8761
   1418.74878     673.9290     404.0846   1418.74878     673.9290     404.0846
   1418.73352     675.4038     404.3702   1418.73352     675.4038     404.3702
   1418.71826     675.2423     405.3559   1418.71826     675.2423     405.3559
   1418.70300     675.8363     405.5880   1418.70300     675.8363     405.5880
   1418.68774     676.4053     406.0509   1418.68774     676.4053     406.0509
   1418.67249     677.3597     406.0812   1418.67249     677.3597     406.0812
   1418.65723     678.6512     405.7669   1418.65723     678.6512     405.7669
   1418.64197     679.1280     406.5691   1418.64197     679.1280     406.5691
   1418.62671     679.9966     406.9785   1418.62671     679.9966     406.9785
   1418.61145     680.5688     407.7330   1418.61145     680.5688     407.7330
   1418.59619     681.8078     407.6082   1418.59619     681.8078     407.6082
   1418.58093     682.7617     407.7796   1418.58093     682.7617     407.7796
   1418.56567     683.9798     408.5751   1418.56567     683.9798     408.5751
   1418.55042     685.1031     409.5583   1418.55042     685.1031     409.5583
   1418.53516     685.4235     409.6227   1418.53516     685.4235     409.6227
   1418.51990     686.0325     410.2531   1418.51990     686.0325     410.2531
   1418.50464     687.0668     410.2824   1418.50464     687.0668     410.2824
   1418.48938     688.0776     410.3304   1418.48938     688.0776     410.3304
   1418.47412     688.6216     410.7032   1418.47412     688.6216     410.7032
   1418.45886     690.4901     411.2961   1418.45886     690.4901     411.2961
   1418.44360     691.9921     412.3439   1418.44360     691.9921     412.3439
   1418.42834     692.3653     412.8967   1418.42834     692.3653     412.8967
   1418.41309     693.4894     412.5316   1418.41309     693.4894     412.5316
   1418.39783     694.2449     413.7515   1418.39783     694.2449     413.7515
   1418.38257     696.1189     413.8743   1418.38257     696.1189     413.8743
   1418.36731     696.2648     413.9681   1418.36731     696.2648     413.9681
   1418.35205     697.4353     414.9408   1418.35205     697.4353     414.9408
   1418.33679     698.8825     416.1010   1418.33679     698.8825     416.1010
   1418.32153     699.5386     415.5170   1418.32153     699.5386     415.5170
   1418.30627     699.9581     416.1668   1418.30627     699.9581     416.1668
   1418.29102     701.8720     416.8990   1418.29102     701.8720     416.8990
   1418.27576     702.7613     416.9804   1418.27576     702.7613     416.9804
   1418.26050     702.8360     418.4122   1418.26050     702.8360     418.4122
   1418.24524     704.1655     418.2766   1418.24524     704.1655     418.2766
   1418.22998     705.0075     418.8633   1418.22998     705.0075     418.8633
   1418.21472     705.5103     419.5516   1418.21472     705.5103     419.5516
   1418.19946     707.5877     419.3296   1418.19946     707.5877     419.3296
   1418.18420     708.3486     420.3629   1418.18420     708.3486     420.3629
   1418.16895     709.8949     421.1573   1418.16895     709.8949     421.1573
   1418.15369     709.9208     422.2331   1418.15369     709.9208     422.2331
   1418.13843     711.6769     422.7589   1418.13843     711.6769     422.7589
   1418.12317     712.9697     422.1690   1418.12317     712.9697     422.1690
   1418.10791     713.4228     423.4047   1418.10791     713.4228     423.4047
   1418.09265     714.7120     423.3712   1418.09265     714.7120     423.3712
   1418.07739     717.0525     424.5226   1418.07739     717.0525     424.5226
   1418.06213     716.5746     425.7160   1418.06213     716.5746     425.7160
   1418.04688     718.6720     425.3243   1418.04688     718.6720     425.3243
   1418.03162     720.2866     426.5619   1418.03162     720.2866     426.5619
   1418.01636     720.8488     427.0500   1418.01636     720.8488     427.0500
   1418.00110     722.7538     427.2379   1418.00110     722.7538     427.2379
   1417.98584     722.1548     428.5665   1417.98584     722.1548     428.5665
   1417.97058     723.6847     428.8861   1417.97058     723.6847     428.8861
   1417.95532     725.8792     430.0352   1417.95532     725.8792     430.0352
   1417.94006     724.4421     430.3768   1417.94006     724.4421     430.3768
   1417.92480     728.0139     431.0863   1417.92480     728.0139     431.0863
   1417.90955     729.4626     430.9618   1417.90955     729.4626     430.9618
   1417.89429     729.3010     431.9954   1417.89429     729.3010     431.9954
   1417.87903     731.3665     433.2016   1417.87903     731.3665     433.2016
   1417.86377     731.7225     432.3642   1417.86377     731.7225     432.3642
   1417.84851     733.8444     433.4316   1417.84851     733.8444     433.4316
   1417.83325     734.0112     434.6219   1417.83325     734.0112     434.6219
   1417.81799     734.8117     435.2265   1417.81799     734.8117     435.2265
   1417.80273     737.0695     435.1303   1417.80273     737.0695     435.1303
   1417.78748     737.7979     436.0883   1417.78748     737.7979     436.0883
   1417.77222     739.2238     437.2145   1417.77222     739.2238     437.2145
   1417.75696     740.6831     437.3953   1417.75696     740.6831     437.3953
   1417.74170     742.2375     438.5330   1417.74170     742.2375     438.5330
   1417.72644     741.9237     438.5677   1417.72644     741.9237     438.5677
   1417.71118     744.3376     440.2052   1417.71118     744.3376     440.2052
   1417.69592     744.5919     440.0440   1417.69592     744.5919     440.0440
   1417.68066     746.0515     441.2184   1417.68066     746.0515     441.2184
   1417.66541     747.3790     442.2776   1417.66541     747.3790     442.2776
   1417.65015     747.6734     442.4177   1417.65015     747.6734     442.4177
   1417.63489     747.4156     443.0716   1417.63489     747.4156     443.0716
   1417.61963     752.0999     443.9850   1417.61963     752.0999     443.9850
   1417.60437     751.2393     444.3292   1417.60437     751.2393     444.3292
   1417.58911     752.4632     445.6639   1417.58911     752.4632     445.6639
   1417.57385     753.4498     444.8486   1417.57385     753.4498     444.8486
   1417.55859     754.7715     446.1461   1417.55859     754.7715     446.1461
   1417.54333     755.4208     447.1410   1417.54333     755.4208     447.1410
   1417.52808     756.4938     447.3777   1417.52808     756.4938     447.3777
   1417.51282     757.6011     448.2283   1417.51282     757.6011     448.2283
   1417.49756     757.9690     448.8924   1417.49756     757.9690     448.8924
   1417.48230     759.2532     449.4097   1417.48230     759.2532     449.4097
   1417.46704     760.8171     450.3449   1417.46704     760.8171     450.3449
   1417.45178     761.2842     450.2974   1417.45178     761.2842     450.2974
   1417.43652     764.2451     451.4469   1417.43652     764.2451     451.4469
   1417.42126     763.4096     452.0997   1417.42126     763.4096     452.0997
   1417.40601     765.2900     452.4223   1417.40601     765.2900     452.4223
   1417.39075     765.4954     453.1360   1417.39075     765.4954     453.1360
   1417.37549     766.8815     453.9359   1417.37549     766.8815     453.9359
   1417.36023     767.5735     454.9191   1417.36023     767.5735     454.9191
   1417.34497     768.4689     454.8359   1417.34497     768.4689     454.8359
   1417.32971     769.7223     455.6816   1417.32971     769.7223     455.6816
   1417.31445     770.8288     456.1829   1417.31445     770.8288     456.1829
   1417.29919     771.5875     457.0675   1417.29919     771.5875     457.0675
   1417.28394     772.7352     458.1834   1417.28394     772.7352     458.1834
   1417.26868     774.3887     457.7879   1417.26868     774.3887     457.7879
   1417.25342     775.4056     458.3593   1417.25342     775.4056     458.3593
   1417.23816     775.7631     459.1381   1417.23816     775.7631     459.1381
   1417.22290     776.5320     459.7278   1417.22290     776.5320     459.7278
   1417.20764     777.3629     461.2523   1417.20764     777.3629     461.2523
   1417.19238     778.0112     460.5568   1417.19238     778.0112     460.5568
   1417.17712     779.0652     461.4378   1417.17712     779.0652     461.4378
   1417.16187     779.5093     462.0301   1417.16187     779.5093     462.0301
   1417.14661     781.7415     462.9148   1417.14661     781.7415     462.9148
   1417.13135     781.8287     463.5245   1417.13135     781.8287     463.5245
   1417.11609     781.4481     463.9824   1417.11609     781.4481     463.9824
   1417.10083     783.0244     464.8244   1417.10083     783.0244     464.8244
   1417.08557     784.6740     464.9890   1417.08557     784.6740     464.9890
   1417.07031     786.3349     465.9088   1417.07031     786.3349     465.9088
   1417.05505     786.4551     465.5299   1417.05505     786.4551     465.5299
   1417.03979     786.2587     466.3071   1417.03979     786.2587     466.3071
   1417.02454     787.0304     466.3397   1417.02454     787.0304     466.3397
   1417.00928     787.9874     466.9233   1417.00928     787.9874     466.9233
   1416.99402     787.7360     467.4624   1416.99402     787.7360     467.4624
   1416.97876     789.5701     468.0152   1416.97876     789.5701     468.0152
   1416.96350     789.4846     468.6551   1416.96350     789.4846     468.6551
   1416.94824     790.3477     469.5521   1416.94824     790.3477     469.5521
   1416.93298     792.3736     470.1053   1416.93298     792.3736     470.1053
   1416.91772     791.0505     470.0312   1416.91772     791.0505     470.0312
   1416.90247     792.5175     470.3072   1416.90247     792.5175     470.3072
   1416.88721     792.9116     470.4456   1416.88721     792.9116     470.4456
   1416.87195     792.6305     470.8641   1416.87195     792.6305     470.8641
   1416.85669     793.4608     472.1723   1416.85669     793.4608     472.1723
   1416.84143     793.7704     471.7068   1416.84143     793.7704     471.7068
   1416.82617     793.4982     472.2534   1416.82617     793.4982     472.2534
   1416.81091     795.3231     471.7034   1416.81091     795.3231     471.7034
   1416.79565     796.7603     472.1368   1416.79565     796.7603     472.1368
   1416.78040     795.6805     473.6799   1416.78040     795.6805     473.6799
   1416.76514     796.9800     473.6276   1416.76514     796.9800     473.6276
   1416.74988     797.2557     474.0966   1416.74988     797.2557     474.0966
   1416.73462     797.5519     474.2979   1416.73462     797.5519     474.2979
   1416.71936     798.5397     474.0778   1416.71936     798.5397     474.0778
   1416.70410     797.9665     474.2650   1416.70410     797.9665     474.2650
   1416.68884     798.2297     475.3649   1416.68884     798.2297     475.3649
   1416.67358     799.7446     475.7417   1416.67358     799.7446     475.7417
   1416.65833     798.9086     475.2047   1416.65833     798.9086     475.2047
   1416.64307     798.9691     475.6660   1416.64307     798.9691     475.6660
   1416.62781     800.4655     475.8875   1416.62781     800.4655     475.8875
   1416.61255     799.6096     475.5129   1416.61255     799.6096     475.5129
   1416.59729     799.0623     476.5377   1416.59729     799.0623     476.5377
   1416.58203     800.4214     476.8900   1416.58203     800.4214     476.8900
   1416.56677     800.1077     476.9221   1416.56677     800.1077     476.9221
   1416.55151     802.1279     476.7493   1416.55151     802.1279     476.7493
   1416.53625     800.6936     477.3528   1416.53625     800.6936     477.3528
   1416.52100     799.6624     476.2182   1416.52100     799.6624     476.2182
   1416.50574     800.6170     477.2082   1416.50574     800.6170     477.2082
   1416.49048     800.6069     476.7403   1416.49048     800.6069     476.7403
   1416.47522     801.4907     477.2279   1416.47522     801.4907     477.2279
   1416.45996     800.7128     477.4254   1416.45996     800.7128     477.4254
   1416.44470     802.3383     476.8194   1416.44470     802.3383     476.8194
   1416.42944     801.2775     477.3740   1416.42944     801.2775     477.3740
   1416.41418     801.6042     477.5151   1416.41418     801.6042     477.5151
   1416.39893     800.1367     477.7922   1416.39893     800.1367     477.7922
   1416.38367     800.6362     477.6111   1416.38367     800.6362     477.6111
   1416.36841     801.1522     477.8531   1416.36841     801.1522     477.8531
   1416.35315     800.9821     477.5601   1416.35315     800.9821     477.5601
   1416.33789     800.1985     477.7845   1416.33789     800.1985     477.7845
   1416.32263     799.2741     477.5306   1416.32263     799.2741     477.5306
   1416.30737     800.7231     477.7764   1416.30737     800.7231     477.7764
   1416.29211     800.7369     477.5239   1416.29211     800.7369     477.5239
   1416.27686     800.0391     478.1873   1416.27686     800.0391     478.1873
   1416.26160     798.6335     478.1183   1416.26160     798.6335     478.1183
   1416.24634     799.8612     476.8415   1416.24634     799.8612     476.8415
   1416.23108     799.1550     477.0337   1416.23108     799.1550     477.0337
   1416.21582     798.7300     477.3842   1416.21582     798.7300     477.3842
   1416.20056     799.1013     477.8913   1416.20056     799.1013     477.8913
   1416.18530     797.4631     477.4055   1416.18530     797.4631     477.4055
   1416.17004     797.3156     477.3349   1416.17004     797.3156     477.3349
   1416.15479     799.2361     477.7953   1416.15479     799.2361     477.7953
   1416.13953     796.2205     477.2426   1416.13953     796.2205     477.2426
   1416.12427     796.3822     477.3436   1416.12427     796.3822     477.3436
   1416.10901     795.5164     476.3818   1416.10901     795.5164     476.3818
   1416.09375     797.4738     476.8481   1416.09375     797.4738     476.8481
   1416.07849     795.7012     476.5103   1416.07849     795.7012     476.5103
   1416.06323     795.9031     477.0028   1416.06323     795.9031     477.0028
   1416.04797     795.4208     477.5725   1416.04797     795.4208     477.5725
   1416.03271     794.5057     476.4981   1416.03271     794.5057     476.4981
   1416.01746     795.1474     476.4868   1416.01746     795.1474     476.4868
   1416.00220     794.5251     476.9169   1416.00220     794.5251     476.9169
   1415.98694     792.1909     476.5374   1415.98694     792.1909     476.5374
   1415.97168     791.6085     475.8635   1415.97168     791.6085     475.8635
   1415.95642     792.0740     475.8876   1415.95642     792.0740     475.8876
   1415.94116     791.3275     476.1488   1415.94116     791.3275     476.1488
   1415.92590     790.1970     475.7594   1415.92590     790.1970     475.7594
   1415.91064     789.8982     475.6767   1415.91064     789.8982     475.6767
   1415.89539     789.5529     475.3138   1415.89539     789.5529     475.3138
   1415.88013     787.3186     475.2678   1415.88013     787.3186     475.2678
   1415.86487     787.9998     475.3416   1415.86487     787.9998     475.3416
   1415.84961     787.3551     475.5450   1415.84961     787.3551     475.5450
   1415.83435     786.6752     474.5921   1415.83435     786.6752     474.5921
   1415.81909     786.6506     473.8997   1415.81909     786.6506     473.8997
   1415.80383     786.1706     473.7346   1415.80383     786.1706     473.7346
   1415.78857     785.8042     474.6236   1415.78857     785.8042     474.6236
   1415.77332     784.1671     473.8612   1415.77332     784.1671     473.8612
   1415.75806     783.1662     475.1344   1415.75806     783.1662     475.1344
   1415.74280     782.0507     473.6527   1415.74280     782.0507     473.6527
   1415.72754     781.5759     473.3235   1415.72754     781.5759     473.3235
   1415.71228     781.2939     473.0693   1415.71228     781.2939     473.0693
   1415.69702     780.4028     473.6290   1415.69702     780.4028     473.6290
   1415.68176     779.1039     472.7334   1415.68176     779.1039     472.7334
   1415.66650     778.3638     473.1519   1415.66650     778.3638     473.1519
   1415.65125     778.2434     472.6968   1415.65125     778.2434     472.6968
   1415.63599     776.7732     472.8582   1415.63599     776.7732     472.8582
   1415.62073     774.7078     471.7845   1415.62073     774.7078     471.7845
   1415.60547     773.5555     470.8617   1415.60547     773.5555     470.8617
   1415.59021     774.0214     470.7772   1415.59021     774.0214     470.7772
   1415.57495     774.0223     471.6444   1415.57495     774.0223     471.6444
   1415.55969     771.8020     471.0002   1415.55969     771.8020     471.0002
   1415.54443     769.7726     471.1002   1415.54443     769.7726     471.1002
   1415.52917     770.1193     470.3243   1415.52917     770.1193     470.3243
   1415.51392     769.1581     470.5401   1415.51392     769.1581     470.5401
   1415.49866     767.8488     469.9823   1415.49866     767.8488     469.9823
   1415.48340     766.5120     469.8012   1415.48340     766.5120     469.8012
   1415.46814     765.4364     469.5992   1415.46814     765.4364     469.5992
   1415.45288     766.1063     469.2632   1415.45288     766.1063     469.2632
   1415.43762     764.3318     468.7698   1415.43762     764.3318     468.7698
   1415.42236     763.8635     468.4792   1415.42236     763.8635     468.4792
   1415.40710     760.1605     468.3983   1415.40710     760.1605     468.3983
   1415.39185     760.1562     468.0479   1415.39185     760.1562     468.0479
   1415.37659     759.4160     467.7477   1415.37659     759.4160     467.7477
   1415.36133     757.7993     467.4080   1415.36133     757.7993     467.4080
   1415.34607     755.7204     466.7264   1415.34607     755.7204     466.7264
   1415.33081     755.8621     467.0700   1415.33081     755.8621     467.0700
   1415.31555     754.3073     466.0662   1415.31555     754.3073     466.0662
   1415.30029     753.4039     466.3791   1415.30029     753.4039     466.3791
   1415.28503     750.6765     465.3351   1415.28503     750.6765     465.3351
   1415.26978     750.9726     465.7457   1415.26978     750.9726     465.7457
   1415.25452     748.7652     464.8440   1415.25452     748.7652     464.8440
   1415.23926     749.0061     464.0106   1415.23926     749.0061     464.0106
   1415.22400     745.6845     463.7989   1415.22400     745.6845     463.7989
   1415.20874     746.0286     463.5516   1415.20874     746.0286     463.5516
   1415.19348     743.5891     463.1618   1415.19348     743.5891     463.1618
   1415.17822     743.1659     463.3263   1415.17822     743.1659     463.3263
   1415.16296     740.3372     462.0139   1415.16296     740.3372     462.0139
   1415.14771     740.5287     461.5172   1415.14771     740.5287     461.5172
   1415.13245     737.9075     460.5522   1415.13245     737.9075     460.5522
   1415.11719     735.1354     461.1161   1415.11719     735.1354     461.1161
   1415.10193     735.5042     460.5797   1415.10193     735.5042     460.5797
   1415.08667     734.1022     459.7219   1415.08667     734.1022     459.7219
   1415.07141     732.1825     459.9372   1415.07141     732.1825     459.9372
   1415.05615     729.7598     459.1376   1415.05615     729.7598     459.1376
   1415.04089     728.5232     458.4753   1415.04089     728.5232     458.4753
   1415.02563     727.8659     458.3947   1415.02563     727.8659     458.3947
   1415.01038     724.9847     457.1202   1415.01038     724.9847     457.1202
   1414.99512     723.5270     456.8978   1414.99512     723.5270     456.8978
   1414.97986     721.6811     456.2735   1414.97986     721.6811     456.2735
   1414.96460     720.4962     455.2659   1414.96460     720.4962     455.2659
   1414.94934     718.9343     454.5973   1414.94934     718.9343     454.5973
   1414.93408     717.2710     454.1720   1414.93408     717.2710     454.1720
   1414.91882     714.6660     454.0715   1414.91882     714.6660     454.0715
   1414.90356     713.0094     453.8601   1414.90356     713.0094     453.8601
   1414.88831     711.9500     452.7415   1414.88831     711.9500     452.7415
   1414.87305     710.5922     453.0382   1414.87305     710.5922     453.0382
   1414.85779     707.3488     450.7838   1414.85779     707.3488     450.7838
   1414.84253     706.4425     450.5627   1414.84253     706.4425     450.5627
   1414.82727     705.4926     449.6478   1414.82727     705.4926     449.6478
   1414.81201     702.8497     449.0207   1414.81201     702.8497     449.0207
   1414.79675     700.9087     447.9821   1414.79675     700.9087     447.9821
   1414.78149     698.4174     447.7877   1414.78149     698.4174     447.7877
   1414.76624     696.4856     446.8675   1414.76624     696.4856     446.8675
   1414.75098     694.4011     446.0660   1414.75098     694.4011     446.0660
   1414.73572     693.1445     445.8156   1414.73572     693.1445     445.8156
   1414.72046     689.0445     444.6943   1414.72046     689.0445     444.6943
   1414.70520     687.7878     444.3657   1414.70520     687.7878     444.3657
   1414.68994     685.2847     443.1253   1414.68994     685.2847     443.1253
   1414.67468     684.4991     442.8020   1414.67468     684.4991     442.8020
   1414.65942     680.9488     441.2176   1414.65942     680.9488     441.2176
   1414.64417     679.2194     440.4771   1414.64417     679.2194     440.4771
   1414.62891     677.3799     439.2976   1414.62891     677.3799     439.2976
   1414.61365     674.9540     438.2739   1414.61365     674.9540     438.2739
   1414.59839     673.0515     437.1685   1414.59839     673.0515     437.1685
   1414.58313     670.9052     437.1522   1414.58313     670.9052     437.1522
   1414.56787     668.0911     436.0779   1414.56787     668.0911     436.0779
   1414.55261     667.0941     434.6481   1414.55261     667.0941     434.6481
   1414.53735     663.4899     433.8514   1414.53735     663.4899     433.8514
   1414.52209     660.7997     433.0856   1414.52209     660.7997     433.0856
   1414.50684     658.8341     432.0704   1414.50684     658.8341     432.0704
   1414.49158     657.0345     431.0061   1414.49158     657.0345     431.0061
   1414.47632     653.7537     428.9681   1414.47632     653.7537     428.9681
   1414.46106     651.5743     429.0876   1414.46106     651.5743     429.0876
   1414.44580     649.6763     428.6631   1414.44580     649.6763     428.6631
   1414.43054     647.5347     426.6554   1414.43054     647.5347     426.6554
   1414.41528     645.0571     425.6948   1414.41528     645.0571     425.6948
   1414.40002     642.5435     424.5405   1414.40002     642.5435     424.5405
   1414.38477     640.6643     424.1421   1414.38477     640.6643     424.1421
   1414.36951     636.8779     422.2581   1414.36951     636.8779     422.2581
   1414.35425     634.0623     421.5240   1414.35425     634.0623     421.5240
   1414.33899     631.1349     419.5732   1414.33899     631.1349     419.5732
   1414.32373     630.5894     418.8261   1414.32373     630.5894     418.8261
   1414.30847     626.9012     418.0584   1414.30847     626.9012     418.0584
   1414.29321     623.5117     417.1420   1414.29321     623.5117     417.1420
   1414.27795     621.2169     415.8920   1414.27795     621.2169     415.8920
   1414.26270     618.7650     414.1657   1414.26270     618.7650     414.1657
   1414.24744     615.6258     413.2778   1414.24744     615.6258     413.2778
   1414.23218     612.7780     411.4263   1414.23218     612.7780     411.4263
   1414.21692     610.9843     410.2362   1414.21692     610.9843     410.2362
   1414.20166     607.3100     409.5248   1414.20166     607.3100     409.5248
   1414.18640     604.4412     407.9409   1414.18640     604.4412     407.9409
   1414.17114     601.3948     407.2122   1414.17114     601.3948     407.2122
   1414.15588     598.6822     405.5017   1414.15588     598.6822     405.5017
   1414.14062     595.6011     403.9921   1414.14062     595.6011     403.9921
   1414.12537     592.3856     402.9031   1414.12537     592.3856     402.9031
   1414.11011     589.9852     401.3081   1414.11011     589.9852     401.3081
   1414.09485     588.6436     399.8083   1414.09485     588.6436     399.8083
   1414.07959     585.7753     398.6115   1414.07959     585.7753     398.6115
   1414.06433     583.0073     396.8901   1414.06433     583.0073     396.8901
   1414.04907     579.7657     396.4990   1414.04907     579.7657     396.4990
   1414.03381     576.7219     395.2422   1414.03381     576.7219     395.2422
   1414.01855     574.2414     393.1616   1414.01855     574.2414     393.1616
   1414.00330     595.7894     399.4937   1414.00330     595.7894     399.4937
   1413.98804     569.5153     391.3917   1413.98804     569.5153     391.3917
   1413.97278     565.5130     388.9426   1413.97278     565.5130     388.9426
   1413.95752     562.0256     387.5741   1413.95752     562.0256     387.5741
   1413.94226     559.2578     386.1265   1413.94226     559.2578     386.1265
   1413.92700     555.6032     384.8626   1413.92700     555.6032     384.8626
   1413.91174     553.3264     383.2209   1413.91174     553.3264     383.2209
   1413.89648     549.8766     382.0834   1413.89648     549.8766     382.0834
   1413.88123     546.7887     379.6236   1413.88123     546.7887     379.6236
   1413.86597     544.0717     378.6146   1413.86597     544.0717     378.6146
   1413.85071     541.3172     377.2010   1413.85071     541.3172     377.2010
   1413.83545     538.7229     375.1124   1413.83545     538.7229     375.1124
   1413.82019     535.0942     374.6802   1413.82019     535.0942     374.6802
   1413.80493     531.7735     372.0070   1413.80493     531.7735     372.0070
   1413.78967     529.1797     370.5347   1413.78967     529.1797     370.5347
   1413.77441     525.8997     369.2371   1413.77441     525.8997     369.2371
   1413.75916     523.3245     368.3219   1413.75916     523.3245     368.3219
   1413.74390     519.4645     366.3625   1413.74390     519.4645     366.3625
   1413.72864     516.9879     365.1201   1413.72864     516.9879     365.1201
   1413.71338     514.4046     363.1161   1413.71338     514.4046     363.1161
   1413.69812     511.3250     361.9298   1413.69812     511.3250     361.9298
   1413.68286     508.4103     360.0872   1413.68286     508.4103     360.0872
   1413.66760     505.4086     358.1513   1413.66760     505.4086     358.1513
   1413.65234     501.9583     356.7255   1413.65234     501.9583     356.7255
   1413.63708     499.2509     354.6976   1413.63708     499.2509     354.6976
   1413.62183     496.1537     353.4636   1413.62183     496.1537     353.4636
   1413.60657     492.2371     351.9669   1413.60657     492.2371     351.9669
   1413.59131     490.9140     350.9097   1413.59131     490.9140     350.9097
   1413.57605     488.1255     349.2694   1413.57605     488.1255     349.2694
   1413.56079     483.9148     347.5165   1413.56079     483.9148     347.5165
   1413.54553     481.1129     345.3143   1413.54553     481.1129     345.3143
   1413.53027     478.6647     344.8231   1413.53027     478.6647     344.8231
   1413.51501     475.6891     342.7473   1413.51501     475.6891     342.7473
   1413.49976     472.7682     341.4463   1413.49976     472.7682     341.4463
   1413.48450     469.0301     339.9220   1413.48450     469.0301     339.9220
   1413.46924     466.8710     337.7855   1413.46924     466.8710     337.7855
   1413.45398     463.5528     336.5614   1413.45398     463.5528     336.5614
   1413.43872     461.7610     335.1531   1413.43872     461.7610     335.1531
   1413.42346     458.8598     333.4070   1413.42346     458.8598     333.4070
   1413.40820     455.3610     331.4786   1413.40820     455.3610     331.4786
   1413.39294     452.6022     330.2379   1413.39294     452.6022     330.2379
   1413.37769     450.1426     328.1697   1413.37769     450.1426     328.1697
   1413.36243     447.8457     326.5394   1413.36243     447.8457     326.5394
   1413.34717     444.2184     325.9325   1413.34717     444.2184     325.9325
   1413.33191     442.2548     324.1281   1413.33191     442.2548     324.1281
   1413.31665     440.1775     322.0301   1413.31665     440.1775     322.0301
   1413.30139     436.7167     320.7050   1413.30139     436.7167     320.7050
   1413.28613     434.1851     319.3514   1413.28613     434.1851     319.3514
   1413.27087     431.4195     317.2431   1413.27087     431.4195     317.2431
   1413.25562     429.2629     315.9935   1413.25562     429.2629     315.9935
   1413.24036     426.7237     314.7664   1413.24036     426.7237     314.7664
   1413.22510     424.1527     313.1299   1413.22510     424.1527     313.1299
   1413.20984     421.9943     311.8728   1413.20984     421.9943     311.8728
   1413.19458     418.3461     310.0182   1413.19458     418.3461     310.0182
   1413.17932     416.2424     308.6553   1413.17932     416.2424     308.6553
   1413.16406     414.0254     307.4649   1413.16406     414.0254     307.4649
   1413.14880     412.2816     306.3840   1413.14880     412.2816     306.3840
   1413.13354     409.3488     305.0896   1413.13354     409.3488     305.0896
   1413.11829     407.9702     303.4290   1413.11829     407.9702     303.4290
   1413.10303     405.0417     302.0601   1413.10303     405.0417     302.0601
   1413.08777     402.5640     300.7089   1413.08777     402.5640     300.7089
   1413.07251     399.6342     299.1160   1413.07251     399.6342     299.1160
   1413.05725     398.5228     297.8762   1413.05725     398.5228     297.8762
   1413.04199     396.2010     296.7553   1413.04199     396.2010     296.7553
   1413.02673     394.4153     295.4698   1413.02673     394.4153     295.4698
   1413.01147     392.1389     294.0571   1413.01147     392.1389     294.0571
   1412.99622     390.4677     292.8295   1412.99622     390.4677     292.8295
   1412.98096     388.3129     291.9357   1412.98096     388.3129     291.9357
   1412.96570     386.2750     290.6233   1412.96570     386.2750     290.6233
   1412.95044     384.7523     289.5388   1412.95044     384.7523     289.5388
   1412.93518     382.4545     288.4309   1412.93518     382.4545     288.4309
   1412.91992     380.7968     286.7111   1412.91992     380.7968     286.7111
   1412.90466     379.6507     285.4560   1412.90466     379.6507     285.4560
   1412.88940     377.8345     284.6947   1412.88940     377.8345     284.6947
   1412.87415     375.9073     283.8216   1412.87415     375.9073     283.8216
   1412.85889     374.3396     282.7435   1412.85889     374.3396     282.7435
   1412.84363     372.6058     282.0466   1412.84363     372.6058     282.0466
   1412.82837     371.1114     280.5392   1412.82837     371.1114     280.5392
   1412.81311     369.6955     279.5483   1412.81311     369.6955     279.5483
   1412.79785     367.9629     278.3311   1412.79785     367.9629     278.3311
   1412.78259     366.9067     277.2448   1412.78259     366.9067     277.2448
   1412.76733     365.3849     276.5752   1412.76733     365.3849     276.5752
   1412.75208     363.1854     275.7339   1412.75208     363.1854     275.7339
   1412.73682     362.1601     274.7650   1412.73682     362.1601     274.7650
   1412.72156     361.9017     273.8679   1412.72156     361.9017     273.8679
   1412.70630     360.0448     273.4399   1412.70630     360.0448     273.4399
   1412.69104     358.6396     272.6581   1412.69104     358.6396     272.6581
   1412.67578     358.8655     271.9637   1412.67578     358.8655     271.9637
   1412.66052     356.6410     271.0465   1412.66052     356.6410     271.0465
   1412.64526     356.1032     270.2395   1412.64526     356.1032     270.2395
   1412.63000     355.2714     269.6170   1412.63000     355.2714     269.6170
   1412.61475     354.7618     269.0239   1412.61475     354.7618     269.0239
   1412.59949     353.5047     268.2973   1412.59949     353.5047     268.2973
   1412.58423     352.4243     268.1561   1412.58423     352.4243     268.1561
   1412.56897     351.9810     267.3352   1412.56897     351.9810     267.3352
   1412.55371     351.7503     266.6520   1412.55371     351.7503     266.6520
   1412.53845     351.2411     267.0329   1412.53845     351.2411     267.0329
   1412.52319     350.0395     266.4854   1412.52319     350.0395     266.4854
   1412.50793     350.2194     265.7718   1412.50793     350.2194     265.7718
   1412.49268     349.2722     265.1669   1412.49268     349.2722     265.1669
   1412.47742     349.0945     264.7540   1412.47742     349.0945     264.7540
   1412.46216     349.0762     264.6987   1412.46216     349.0762     264.6987
   1412.44690     348.3835     264.3524   1412.44690     348.3835     264.3524
   1412.43164     348.1402     264.4126   1412.43164     348.1402     264.4126
   1412.41638     348.5115     263.9544   1412.41638     348.5115     263.9544
   1412.40112     347.8224     263.9265   1412.40112     347.8224     263.9265
   1412.38586     347.6526     264.0926   1412.38586     347.6526     264.0926
   1412.37061     348.1497     263.7606   1412.37061     348.1497     263.7606
   1412.35535     347.6719     263.8860   1412.35535     347.6719     263.8860
   1412.34009     347.5196     263.6063   1412.34009     347.5196     263.6063
   1412.32483     347.9869     264.1353   1412.32483     347.9869     264.1353
   1412.30957     348.2590     263.8603   1412.30957     348.2590     263.8603
   1412.29431     348.5109     264.1005   1412.29431     348.5109     264.1005
   1412.27905     348.5249     264.4429   1412.27905     348.5249     264.4429
   1412.26379     349.5102     264.0532   1412.26379     349.5102     264.0532
   1412.24854     349.6441     264.9185   1412.24854     349.6441     264.9185
   1412.23328     349.7955     264.7251   1412.23328     349.7955     264.7251
   1412.21802     350.4304     265.0073   1412.21802     350.4304     265.0073
   1412.20276     350.6015     265.5984   1412.20276     350.6015     265.5984