#     FILENAME=!Skynet_57528_lach-cc-230_20646_21027.cyb.fits
#     BASENAME=Skynet_57528_lach-cc-230_20646_21027
#     SRC_NAME=lach-cc-230
#     OBSERVER=ccmadison16_9505
#     DATE_OBS=2016-05-20T19:30:04.680
#        OBSID=20646
#      SCANNUM=21027
#          MJD=57528.8136
#          UTC=70294
#     SCANTYPE=track
#     DATAMODE=HIRES
#     TUNEFREQ=1420.0000
# Actual_FREQ1=1420.0000
# Actual_FREQ2=1420.0000
#    LO1Tuning=6870.000
#     RFFILTER=1355_1435
#        OBSBW=-15.6250
#        NCHAN=1024 
#        FOCUS=37.0709
#           RA=07:23:16.46
#          DEC=-15:08:35.79
#      RA(hrs)=7.387900
#     DEC(deg)=-15.143300
#    AZIM(deg)=156.862
#    ELEV(deg)=33.218
#     IFattens=10.00, 9.00
#      WARNING=None
#    TCAL_XL1=7.9635
#    TCAL_YR1=9.1340
#    TCAL_XL2=7.9635
#    TCAL_YR2=9.1340
#     TRX_XL1=11.7060
#     TRX_YR1=11.7060
#     TRX_XL2=11.7060
#     TRX_YR2=11.7060
#        TAVE=1.0000
#Freq1(MHz)          XL1          YR1  Freq2(MHz)          XL2          YR2 

   1427.81250     363.5740     283.7799   1427.81250     363.5740     283.7799
   1427.79724     364.8522     284.5785   1427.79724     364.8522     284.5785
   1427.78198     365.5952     285.0756   1427.78198     365.5952     285.0756
   1427.76672     366.1688     285.0453   1427.76672     366.1688     285.0453
   1427.75146     366.1862     285.8007   1427.75146     366.1862     285.8007
   1427.73621     367.6908     286.6021   1427.73621     367.6908     286.6021
   1427.72095     368.8750     286.9914   1427.72095     368.8750     286.9914
   1427.70569     369.7018     287.7474   1427.70569     369.7018     287.7474
   1427.69043     371.2232     288.7176   1427.69043     371.2232     288.7176
   1427.67517     372.7234     289.4110   1427.67517     372.7234     289.4110
   1427.65991     373.0047     290.1606   1427.65991     373.0047     290.1606
   1427.64465     374.6921     291.3426   1427.64465     374.6921     291.3426
   1427.62939     375.7392     292.2476   1427.62939     375.7392     292.2476
   1427.61414     377.1104     292.9644   1427.61414     377.1104     292.9644
   1427.59888     377.9435     293.9025   1427.59888     377.9435     293.9025
   1427.58362     379.7190     295.2905   1427.58362     379.7190     295.2905
   1427.56836     381.7448     296.1386   1427.56836     381.7448     296.1386
   1427.55310     382.9954     297.3295   1427.55310     382.9954     297.3295
   1427.53784     384.5004     298.7754   1427.53784     384.5004     298.7754
   1427.52258     386.2989     299.7868   1427.52258     386.2989     299.7868
   1427.50732     387.2831     301.0579   1427.50732     387.2831     301.0579
   1427.49207     389.5627     302.2655   1427.49207     389.5627     302.2655
   1427.47681     390.6306     303.8430   1427.47681     390.6306     303.8430
   1427.46155     393.0453     304.7826   1427.46155     393.0453     304.7826
   1427.44629     393.6927     306.4583   1427.44629     393.6927     306.4583
   1427.43103     396.3604     307.5189   1427.43103     396.3604     307.5189
   1427.41577     397.9645     309.1344   1427.41577     397.9645     309.1344
   1427.40051     400.1589     310.7068   1427.40051     400.1589     310.7068
   1427.38525     402.5651     312.2006   1427.38525     402.5651     312.2006
   1427.37000     404.1826     313.8038   1427.37000     404.1826     313.8038
   1427.35474     406.3635     314.9743   1427.35474     406.3635     314.9743
   1427.33948     408.0622     317.1759   1427.33948     408.0622     317.1759
   1427.32422     410.7336     318.2624   1427.32422     410.7336     318.2624
   1427.30896     412.2545     319.7499   1427.30896     412.2545     319.7499
   1427.29370     414.3375     321.7291   1427.29370     414.3375     321.7291
   1427.27844     417.4047     323.4327   1427.27844     417.4047     323.4327
   1427.26318     419.2984     325.5982   1427.26318     419.2984     325.5982
   1427.24792     421.9232     327.0077   1427.24792     421.9232     327.0077
   1427.23267     423.2867     328.4059   1427.23267     423.2867     328.4059
   1427.21741     426.7327     331.1018   1427.21741     426.7327     331.1018
   1427.20215     428.8682     332.8016   1427.20215     428.8682     332.8016
   1427.18689     431.0456     334.1504   1427.18689     431.0456     334.1504
   1427.17163     434.2227     335.9838   1427.17163     434.2227     335.9838
   1427.15637     436.4778     338.2498   1427.15637     436.4778     338.2498
   1427.14111     438.6440     340.3409   1427.14111     438.6440     340.3409
   1427.12585     441.3521     342.9547   1427.12585     441.3521     342.9547
   1427.11060     443.3954     343.9702   1427.11060     443.3954     343.9702
   1427.09534     446.3351     346.4444   1427.09534     446.3351     346.4444
   1427.08008     448.7477     348.8818   1427.08008     448.7477     348.8818
   1427.06482     452.0687     350.6327   1427.06482     452.0687     350.6327
   1427.04956     453.5447     352.3755   1427.04956     453.5447     352.3755
   1427.03430     457.5042     354.9339   1427.03430     457.5042     354.9339
   1427.01904     459.7307     357.0266   1427.01904     459.7307     357.0266
   1427.00378     462.1867     358.6793   1427.00378     462.1867     358.6793
   1426.98853     465.0492     361.5077   1426.98853     465.0492     361.5077
   1426.97327     467.4879     364.1273   1426.97327     467.4879     364.1273
   1426.95801     470.5896     366.0428   1426.95801     470.5896     366.0428
   1426.94275     473.8236     368.1023   1426.94275     473.8236     368.1023
   1426.92749     475.8012     370.4448   1426.92749     475.8012     370.4448
   1426.91223     479.0100     372.8608   1426.91223     479.0100     372.8608
   1426.89697     481.8912     374.6430   1426.89697     481.8912     374.6430
   1426.88171     485.1697     377.0609   1426.88171     485.1697     377.0609
   1426.86646     487.7255     379.6980   1426.86646     487.7255     379.6980
   1426.85120     490.2617     381.8888   1426.85120     490.2617     381.8888
   1426.83594     492.7143     384.1911   1426.83594     492.7143     384.1911
   1426.82068     496.6011     385.9864   1426.82068     496.6011     385.9864
   1426.80542     498.8648     388.8900   1426.80542     498.8648     388.8900
   1426.79016     502.7794     391.5565   1426.79016     502.7794     391.5565
   1426.77490     505.0894     394.1951   1426.77490     505.0894     394.1951
   1426.75964     507.7576     395.6574   1426.75964     507.7576     395.6574
   1426.74438     510.6830     398.4663   1426.74438     510.6830     398.4663
   1426.72913     513.3875     401.7097   1426.72913     513.3875     401.7097
   1426.71387     515.1755     403.3820   1426.71387     515.1755     403.3820
   1426.69861     518.5827     405.2407   1426.69861     518.5827     405.2407
   1426.68335     522.6145     408.3026   1426.68335     522.6145     408.3026
   1426.66809     525.2172     411.3968   1426.66809     525.2172     411.3968
   1426.65283     528.5282     413.4383   1426.65283     528.5282     413.4383
   1426.63757     531.0778     415.5045   1426.63757     531.0778     415.5045
   1426.62231     539.7167     420.8132   1426.62231     539.7167     420.8132
   1426.60706     537.7158     420.4953   1426.60706     537.7158     420.4953
   1426.59180     540.2997     422.9744   1426.59180     540.2997     422.9744
   1426.57654     542.4233     425.3540   1426.57654     542.4233     425.3540
   1426.56128     545.8650     428.2925   1426.56128     545.8650     428.2925
   1426.54602     548.0556     430.3441   1426.54602     548.0556     430.3441
   1426.53076     551.6471     433.2901   1426.53076     551.6471     433.2901
   1426.51550     553.1197     435.3770   1426.51550     553.1197     435.3770
   1426.50024     557.3917     437.4875   1426.50024     557.3917     437.4875
   1426.48499     560.4138     439.5146   1426.48499     560.4138     439.5146
   1426.46973     562.7427     442.8719   1426.46973     562.7427     442.8719
   1426.45447     565.9017     445.9575   1426.45447     565.9017     445.9575
   1426.43921     568.5452     447.7999   1426.43921     568.5452     447.7999
   1426.42395     571.4578     449.8033   1426.42395     571.4578     449.8033
   1426.40869     573.6869     453.1833   1426.40869     573.6869     453.1833
   1426.39343     577.1508     455.5365   1426.39343     577.1508     455.5365
   1426.37817     580.4468     457.3354   1426.37817     580.4468     457.3354
   1426.36292     583.2141     460.2228   1426.36292     583.2141     460.2228
   1426.34766     585.3737     462.5923   1426.34766     585.3737     462.5923
   1426.33240     589.0804     465.1165   1426.33240     589.0804     465.1165
   1426.31714     590.9568     467.1755   1426.31714     590.9568     467.1755
   1426.30188     593.2131     470.3690   1426.30188     593.2131     470.3690
   1426.28662     595.6583     472.4213   1426.28662     595.6583     472.4213
   1426.27136     597.9340     475.0477   1426.27136     597.9340     475.0477
   1426.25610     601.1415     476.9069   1426.25610     601.1415     476.9069
   1426.24084     604.0834     479.6214   1426.24084     604.0834     479.6214
   1426.22559     607.3973     481.9272   1426.22559     607.3973     481.9272
   1426.21033     609.8098     484.5221   1426.21033     609.8098     484.5221
   1426.19507     612.6294     487.2618   1426.19507     612.6294     487.2618
   1426.17981     614.0216     488.7344   1426.17981     614.0216     488.7344
   1426.16455     616.6559     490.8690   1426.16455     616.6559     490.8690
   1426.14929     619.2775     493.7443   1426.14929     619.2775     493.7443
   1426.13403     621.5883     495.8082   1426.13403     621.5883     495.8082
   1426.11877     623.7777     498.4787   1426.11877     623.7777     498.4787
   1426.10352     626.3627     500.9546   1426.10352     626.3627     500.9546
   1426.08826     628.7437     502.9800   1426.08826     628.7437     502.9800
   1426.07300     631.2872     505.0399   1426.07300     631.2872     505.0399
   1426.05774     633.7777     507.2123   1426.05774     633.7777     507.2123
   1426.04248     636.2347     509.8958   1426.04248     636.2347     509.8958
   1426.02722     638.4911     512.5345   1426.02722     638.4911     512.5345
   1426.01196     639.5115     514.7193   1426.01196     639.5115     514.7193
   1425.99670     644.0323     516.7919   1425.99670     644.0323     516.7919
   1425.98145     645.6780     519.0075   1425.98145     645.6780     519.0075
   1425.96619     646.5823     521.1121   1425.96619     646.5823     521.1121
   1425.95093     650.1315     524.3594   1425.95093     650.1315     524.3594
   1425.93567     651.6838     526.1711   1425.93567     651.6838     526.1711
   1425.92041     653.5445     527.2576   1425.92041     653.5445     527.2576
   1425.90515     656.5814     530.1918   1425.90515     656.5814     530.1918
   1425.88989     657.7075     531.9251   1425.88989     657.7075     531.9251
   1425.87463     659.9283     534.8356   1425.87463     659.9283     534.8356
   1425.85938     662.7946     536.4247   1425.85938     662.7946     536.4247
   1425.84412     663.7932     538.1552   1425.84412     663.7932     538.1552
   1425.82886     664.8755     541.1038   1425.82886     664.8755     541.1038
   1425.81360     668.6039     543.3309   1425.81360     668.6039     543.3309
   1425.79834     670.3223     544.5584   1425.79834     670.3223     544.5584
   1425.78308     671.5205     546.5676   1425.78308     671.5205     546.5676
   1425.76782     673.8263     548.5148   1425.76782     673.8263     548.5148
   1425.75256     675.3298     551.4310   1425.75256     675.3298     551.4310
   1425.73730     677.1012     552.9398   1425.73730     677.1012     552.9398
   1425.72205     677.8460     554.6886   1425.72205     677.8460     554.6886
   1425.70679     680.0410     557.9573   1425.70679     680.0410     557.9573
   1425.69153     682.0554     559.3251   1425.69153     682.0554     559.3251
   1425.67627     683.5172     561.7831   1425.67627     683.5172     561.7831
   1425.66101     684.9965     563.8185   1425.66101     684.9965     563.8185
   1425.64575     687.3327     565.4758   1425.64575     687.3327     565.4758
   1425.63049     689.6854     567.3218   1425.63049     689.6854     567.3218
   1425.61523     689.9963     570.3020   1425.61523     689.9963     570.3020
   1425.59998     692.6125     570.7076   1425.59998     692.6125     570.7076
   1425.58472     693.3824     573.2837   1425.58472     693.3824     573.2837
   1425.56946     693.9954     574.3764   1425.56946     693.9954     574.3764
   1425.55420     696.0287     576.8195   1425.55420     696.0287     576.8195
   1425.53894     697.0880     578.8942   1425.53894     697.0880     578.8942
   1425.52368     698.9215     580.4563   1425.52368     698.9215     580.4563
   1425.50842     699.3964     582.2917   1425.50842     699.3964     582.2917
   1425.49316     701.8940     584.5515   1425.49316     701.8940     584.5515
   1425.47791     702.1310     585.4445   1425.47791     702.1310     585.4445
   1425.46265     704.1722     588.4848   1425.46265     704.1722     588.4848
   1425.44739     706.0818     589.8693   1425.44739     706.0818     589.8693
   1425.43213     705.1365     591.5555   1425.43213     705.1365     591.5555
   1425.41687     708.4164     594.2477   1425.41687     708.4164     594.2477
   1425.40161     708.4612     594.9857   1425.40161     708.4612     594.9857
   1425.38635     709.2612     597.0331   1425.38635     709.2612     597.0331
   1425.37109     710.5978     598.4634   1425.37109     710.5978     598.4634
   1425.35583     712.1628     599.8294   1425.35583     712.1628     599.8294
   1425.34058     712.5434     602.9534   1425.34058     712.5434     602.9534
   1425.32532     713.3369     602.9819   1425.32532     713.3369     602.9819
   1425.31006     714.1863     605.9718   1425.31006     714.1863     605.9718
   1425.29480     715.7458     607.6572   1425.29480     715.7458     607.6572
   1425.27954     716.1749     608.5237   1425.27954     716.1749     608.5237
   1425.26428     717.6606     609.9747   1425.26428     717.6606     609.9747
   1425.24902     717.0766     611.4249   1425.24902     717.0766     611.4249
   1425.23376     719.4320     612.7091   1425.23376     719.4320     612.7091
   1425.21851     720.0886     615.1216   1425.21851     720.0886     615.1216
   1425.20325     721.0163     616.1031   1425.20325     721.0163     616.1031
   1425.18799     721.5261     617.2845   1425.18799     721.5261     617.2845
   1425.17273     721.1503     619.6140   1425.17273     721.1503     619.6140
   1425.15747     723.1425     621.0863   1425.15747     723.1425     621.0863
   1425.14221     723.4375     621.9977   1425.14221     723.4375     621.9977
   1425.12695     724.9340     623.2916   1425.12695     724.9340     623.2916
   1425.11169     726.1115     623.9664   1425.11169     726.1115     623.9664
   1425.09644     725.5063     626.5562   1425.09644     725.5063     626.5562
   1425.08118     726.3811     628.4981   1425.08118     726.3811     628.4981
   1425.06592     728.4723     629.5483   1425.06592     728.4723     629.5483
   1425.05066     727.4918     631.0574   1425.05066     727.4918     631.0574
   1425.03540     727.4138     631.7673   1425.03540     727.4138     631.7673
   1425.02014     728.6333     633.4799   1425.02014     728.6333     633.4799
   1425.00488     728.1044     635.1661   1425.00488     728.1044     635.1661
   1424.98962     729.3964     636.0368   1424.98962     729.3964     636.0368
   1424.97437     729.7903     637.2526   1424.97437     729.7903     637.2526
   1424.95911     730.3446     638.2792   1424.95911     730.3446     638.2792
   1424.94385     729.4713     640.3559   1424.94385     729.4713     640.3559
   1424.92859     730.6223     641.4991   1424.92859     730.6223     641.4991
   1424.91333     731.8026     642.0073   1424.91333     731.8026     642.0073
   1424.89807     732.2126     643.1857   1424.89807     732.2126     643.1857
   1424.88281     732.9947     645.6061   1424.88281     732.9947     645.6061
   1424.86755     732.7946     645.6674   1424.86755     732.7946     645.6674
   1424.85229     733.1956     647.6482   1424.85229     733.1956     647.6482
   1424.83704     733.7722     648.1396   1424.83704     733.7722     648.1396
   1424.82178     732.4444     649.5471   1424.82178     732.4444     649.5471
   1424.80652     732.9706     650.6423   1424.80652     732.9706     650.6423
   1424.79126     733.7638     652.0529   1424.79126     733.7638     652.0529
   1424.77600     734.4493     652.5501   1424.77600     734.4493     652.5501
   1424.76074     733.7854     653.5170   1424.76074     733.7854     653.5170
   1424.74548     733.9375     654.8274   1424.74548     733.9375     654.8274
   1424.73022     734.4734     656.8130   1424.73022     734.4734     656.8130
   1424.71497     735.1871     656.3447   1424.71497     735.1871     656.3447
   1424.69971     733.4075     658.1176   1424.69971     733.4075     658.1176
   1424.68445     734.6664     659.3517   1424.68445     734.6664     659.3517
   1424.66919     734.2952     660.0515   1424.66919     734.2952     660.0515
   1424.65393     735.3600     660.1585   1424.65393     735.3600     660.1585
   1424.63867     733.9474     662.0032   1424.63867     733.9474     662.0032
   1424.62341     734.6110     662.9789   1424.62341     734.6110     662.9789
   1424.60815     735.3910     662.5074   1424.60815     735.3910     662.5074
   1424.59290     735.1993     663.7024   1424.59290     735.1993     663.7024
   1424.57764     735.1365     665.0845   1424.57764     735.1365     665.0845
   1424.56238     735.5572     665.7839   1424.56238     735.5572     665.7839
   1424.54712     734.3201     667.5768   1424.54712     734.3201     667.5768
   1424.53186     735.0422     667.5027   1424.53186     735.0422     667.5027
   1424.51660     735.5293     668.8704   1424.51660     735.5293     668.8704
   1424.50134     734.1062     668.1852   1424.50134     734.1062     668.1852
   1424.48608     735.8967     668.5986   1424.48608     735.8967     668.5986
   1424.47083     735.5363     669.2965   1424.47083     735.5363     669.2965
   1424.45557     735.1400     670.8229   1424.45557     735.1400     670.8229
   1424.44031     735.0290     672.0206   1424.44031     735.0290     672.0206
   1424.42505     735.5304     671.8733   1424.42505     735.5304     671.8733
   1424.40979     734.7979     673.1461   1424.40979     734.7979     673.1461
   1424.39453     735.8351     673.2084   1424.39453     735.8351     673.2084
   1424.37927     735.5059     673.1464   1424.37927     735.5059     673.1464
   1424.36401     736.4717     675.0059   1424.36401     736.4717     675.0059
   1424.34875     734.0036     675.4147   1424.34875     734.0036     675.4147
   1424.33350     734.3171     675.7579   1424.33350     734.3171     675.7579
   1424.31824     733.7521     675.5677   1424.31824     733.7521     675.5677
   1424.30298     734.2546     676.4636   1424.30298     734.2546     676.4636
   1424.28772     734.0889     676.9977   1424.28772     734.0889     676.9977
   1424.27246     733.4970     676.5182   1424.27246     733.4970     676.5182
   1424.25720     734.5141     677.5533   1424.25720     734.5141     677.5533
   1424.24194     734.0923     677.9825   1424.24194     734.0923     677.9825
   1424.22668     732.7831     679.6129   1424.22668     732.7831     679.6129
   1424.21143     733.6744     678.5923   1424.21143     733.6744     678.5923
   1424.19617     733.0988     679.0593   1424.19617     733.0988     679.0593
   1424.18091     731.2570     680.0305   1424.18091     731.2570     680.0305
   1424.16565     731.5330     679.1642   1424.16565     731.5330     679.1642
   1424.15039     732.3133     680.2655   1424.15039     732.3133     680.2655
   1424.13513     732.3566     680.3834   1424.13513     732.3566     680.3834
   1424.11987     732.1239     679.5421   1424.11987     732.1239     679.5421
   1424.10461     731.8159     680.3544   1424.10461     731.8159     680.3544
   1424.08936     732.0454     680.9570   1424.08936     732.0454     680.9570
   1424.07410     732.3505     681.1301   1424.07410     732.3505     681.1301
   1424.05884     729.6867     680.9937   1424.05884     729.6867     680.9937
   1424.04358     730.6284     681.0204   1424.04358     730.6284     681.0204
   1424.02832     730.9016     681.0649   1424.02832     730.9016     681.0649
   1424.01306     731.1394     681.5306   1424.01306     731.1394     681.5306
   1423.99780     728.6171     681.6466   1423.99780     728.6171     681.6466
   1423.98254     729.8895     681.8760   1423.98254     729.8895     681.8760
   1423.96729     730.8289     681.6563   1423.96729     730.8289     681.6563
   1423.95203     728.7331     682.0268   1423.95203     728.7331     682.0268
   1423.93677     728.8458     682.4785   1423.93677     728.8458     682.4785
   1423.92151     729.2501     682.3715   1423.92151     729.2501     682.3715
   1423.90625     727.8530     682.7547   1423.90625     727.8530     682.7547
   1423.89099     728.1145     681.3972   1423.89099     728.1145     681.3972
   1423.87573     728.6752     681.3325   1423.87573     728.6752     681.3325
   1423.86047     726.5012     682.1252   1423.86047     726.5012     682.1252
   1423.84521     727.3276     681.2399   1423.84521     727.3276     681.2399
   1423.82996     726.5668     681.3603   1423.82996     726.5668     681.3603
   1423.81470     727.1174     681.0536   1423.81470     727.1174     681.0536
   1423.79944     726.3785     679.8232   1423.79944     726.3785     679.8232
   1423.78418     726.0612     680.0445   1423.78418     726.0612     680.0445
   1423.76892     725.4700     680.1194   1423.76892     725.4700     680.1194
   1423.75366     725.5845     681.1668   1423.75366     725.5845     681.1668
   1423.73840     724.7177     680.5599   1423.73840     724.7177     680.5599
   1423.72314     724.2054     679.0359   1423.72314     724.2054     679.0359
   1423.70789     724.8929     679.8851   1423.70789     724.8929     679.8851
   1423.69263     723.8347     679.7831   1423.69263     723.8347     679.7831
   1423.67737     724.1123     679.3542   1423.67737     724.1123     679.3542
   1423.66211     723.2802     678.1797   1423.66211     723.2802     678.1797
   1423.64685     722.9950     678.3422   1423.64685     722.9950     678.3422
   1423.63159     722.1062     678.0457   1423.63159     722.1062     678.0457
   1423.61633     722.4119     677.2428   1423.61633     722.4119     677.2428
   1423.60107     721.3995     677.5823   1423.60107     721.3995     677.5823
   1423.58582     722.7410     677.4083   1423.58582     722.7410     677.4083
   1423.57056     722.5684     676.6364   1423.57056     722.5684     676.6364
   1423.55530     721.7134     675.8008   1423.55530     721.7134     675.8008
   1423.54004     721.0472     675.4424   1423.54004     721.0472     675.4424
   1423.52478     721.3365     673.9035   1423.52478     721.3365     673.9035
   1423.50952     720.8608     674.0812   1423.50952     720.8608     674.0812
   1423.49426     719.0922     674.0934   1423.49426     719.0922     674.0934
   1423.47900     721.1373     672.6152   1423.47900     721.1373     672.6152
   1423.46375     718.6469     674.0645   1423.46375     718.6469     674.0645
   1423.44849     718.4593     672.6627   1423.44849     718.4593     672.6627
   1423.43323     719.8095     672.5178   1423.43323     719.8095     672.5178
   1423.41797     719.9895     670.6958   1423.41797     719.9895     670.6958
   1423.40271     718.3500     670.7416   1423.40271     718.3500     670.7416
   1423.38745     717.3367     669.5138   1423.38745     717.3367     669.5138
   1423.37219     719.3528     668.7482   1423.37219     719.3528     668.7482
   1423.35693     718.1835     667.7859   1423.35693     718.1835     667.7859
   1423.34167     716.9862     667.7615   1423.34167     716.9862     667.7615
   1423.32642     717.0240     668.0239   1423.32642     717.0240     668.0239
   1423.31116     717.7603     666.8522   1423.31116     717.7603     666.8522
   1423.29590     716.6845     666.0549   1423.29590     716.6845     666.0549
   1423.28064     716.8518     664.6575   1423.28064     716.8518     664.6575
   1423.26538     715.8948     663.2445   1423.26538     715.8948     663.2445
   1423.25012     715.7771     662.5375   1423.25012     715.7771     662.5375
   1423.23486     715.4198     661.2415   1423.23486     715.4198     661.2415
   1423.21960     714.6254     660.9988   1423.21960     714.6254     660.9988
   1423.20435     714.4308     660.7076   1423.20435     714.4308     660.7076
   1423.18909     715.1079     659.8853   1423.18909     715.1079     659.8853
   1423.17383     715.0760     658.9714   1423.17383     715.0760     658.9714
   1423.15857     714.3973     657.5499   1423.15857     714.3973     657.5499
   1423.14331     713.6742     657.2531   1423.14331     713.6742     657.2531
   1423.12805     713.5339     655.3843   1423.12805     713.5339     655.3843
   1423.11279     713.9664     656.0929   1423.11279     713.9664     656.0929
   1423.09753     713.1302     654.2615   1423.09753     713.1302     654.2615
   1423.08228     712.6734     652.7360   1423.08228     712.6734     652.7360
   1423.06702     713.5447     651.2079   1423.06702     713.5447     651.2079
   1423.05176     711.7457     652.1265   1423.05176     711.7457     652.1265
   1423.03650     711.5862     650.4149   1423.03650     711.5862     650.4149
   1423.02124     711.9336     649.3350   1423.02124     711.9336     649.3350
   1423.00598     711.8237     649.0818   1423.00598     711.8237     649.0818
   1422.99072     709.8293     647.6968   1422.99072     709.8293     647.6968
   1422.97546     710.5207     646.7169   1422.97546     710.5207     646.7169
   1422.96021     709.9639     645.6351   1422.96021     709.9639     645.6351
   1422.94495     710.0747     644.6115   1422.94495     710.0747     644.6115
   1422.92969     709.3680     642.6800   1422.92969     709.3680     642.6800
   1422.91443     710.1158     641.3193   1422.91443     710.1158     641.3193
   1422.89917     708.7249     639.5919   1422.89917     708.7249     639.5919
   1422.88391     708.0396     639.9411   1422.88391     708.0396     639.9411
   1422.86865     709.0009     639.1655   1422.86865     709.0009     639.1655
   1422.85339     707.9467     638.9155   1422.85339     707.9467     638.9155
   1422.83813     708.5529     635.6913   1422.83813     708.5529     635.6913
   1422.82288     706.5309     634.3837   1422.82288     706.5309     634.3837
   1422.80762     706.7224     634.6469   1422.80762     706.7224     634.6469
   1422.79236     706.9277     632.2471   1422.79236     706.9277     632.2471
   1422.77710     706.5154     630.9671   1422.77710     706.5154     630.9671
   1422.76184     707.6223     631.0778   1422.76184     707.6223     631.0778
   1422.74658     706.8440     628.7431   1422.74658     706.8440     628.7431
   1422.73132     705.7246     627.5494   1422.73132     705.7246     627.5494
   1422.71606     706.1336     627.5493   1422.71606     706.1336     627.5493
   1422.70081     705.9493     626.1049   1422.70081     705.9493     626.1049
   1422.68555     706.1003     624.2242   1422.68555     706.1003     624.2242
   1422.67029     704.4340     624.0730   1422.67029     704.4340     624.0730
   1422.65503     704.3056     622.5798   1422.65503     704.3056     622.5798
   1422.63977     705.1464     620.2905   1422.63977     705.1464     620.2905
   1422.62451     703.8291     619.2309   1422.62451     703.8291     619.2309
   1422.60925     704.4500     617.8928   1422.60925     704.4500     617.8928
   1422.59399     703.0445     616.3616   1422.59399     703.0445     616.3616
   1422.57874     702.9064     615.1293   1422.57874     702.9064     615.1293
   1422.56348     703.0711     613.9794   1422.56348     703.0711     613.9794
   1422.54822     701.8236     612.3741   1422.54822     701.8236     612.3741
   1422.53296     701.7204     611.9059   1422.53296     701.7204     611.9059
   1422.51770     702.4171     609.7842   1422.51770     702.4171     609.7842
   1422.50244     702.3768     608.1397   1422.50244     702.3768     608.1397
   1422.48718     701.5109     607.5061   1422.48718     701.5109     607.5061
   1422.47192     701.9511     605.9897   1422.47192     701.9511     605.9897
   1422.45667     701.7031     604.4227   1422.45667     701.7031     604.4227
   1422.44141     702.4763     602.5193   1422.44141     702.4763     602.5193
   1422.42615     700.5475     601.9486   1422.42615     700.5475     601.9486
   1422.41089     700.8992     599.6805   1422.41089     700.8992     599.6805
   1422.39563     700.6061     599.5657   1422.39563     700.6061     599.5657
   1422.38037     700.5401     597.4817   1422.38037     700.5401     597.4817
   1422.36511     699.9301     595.7854   1422.36511     699.9301     595.7854
   1422.34985     698.6281     595.3760   1422.34985     698.6281     595.3760
   1422.33459     699.3481     593.5261   1422.33459     699.3481     593.5261
   1422.31934     700.1540     591.7642   1422.31934     700.1540     591.7642
   1422.30408     699.1064     591.0460   1422.30408     699.1064     591.0460
   1422.28882     698.3521     589.9185   1422.28882     698.3521     589.9185
   1422.27356     697.7440     587.9118   1422.27356     697.7440     587.9118
   1422.25830     698.7197     586.2749   1422.25830     698.7197     586.2749
   1422.24304     697.9095     585.5274   1422.24304     697.9095     585.5274
   1422.22778     698.4505     584.1702   1422.22778     698.4505     584.1702
   1422.21252     697.4799     582.4460   1422.21252     697.4799     582.4460
   1422.19727     697.6337     580.2441   1422.19727     697.6337     580.2441
   1422.18201     697.9675     579.7991   1422.18201     697.9675     579.7991
   1422.16675     696.9913     577.4815   1422.16675     696.9913     577.4815
   1422.15149     697.1962     577.3719   1422.15149     697.1962     577.3719
   1422.13623     696.5462     575.5830   1422.13623     696.5462     575.5830
   1422.12097     694.8611     574.2910   1422.12097     694.8611     574.2910
   1422.10571     696.0222     572.9143   1422.10571     696.0222     572.9143
   1422.09045     694.6118     571.8560   1422.09045     694.6118     571.8560
   1422.07520     695.8223     570.0244   1422.07520     695.8223     570.0244
   1422.05994     695.6592     568.6519   1422.05994     695.6592     568.6519
   1422.04468     695.8649     567.5613   1422.04468     695.8649     567.5613
   1422.02942     695.7113     566.2949   1422.02942     695.7113     566.2949
   1422.01416     694.5745     565.2098   1422.01416     694.5745     565.2098
   1421.99890     695.0714     563.7654   1421.99890     695.0714     563.7654
   1421.98364     694.9156     561.3363   1421.98364     694.9156     561.3363
   1421.96838     693.7543     560.9108   1421.96838     693.7543     560.9108
   1421.95312     694.3608     558.8920   1421.95312     694.3608     558.8920
   1421.93787     694.0695     557.9282   1421.93787     694.0695     557.9282
   1421.92261     693.5866     556.8622   1421.92261     693.5866     556.8622
   1421.90735     692.7858     555.6957   1421.90735     692.7858     555.6957
   1421.89209     693.2482     554.0820   1421.89209     693.2482     554.0820
   1421.87683     693.1270     552.4237   1421.87683     693.1270     552.4237
   1421.86157     692.3219     550.5556   1421.86157     692.3219     550.5556
   1421.84631     692.6165     548.9055   1421.84631     692.6165     548.9055
   1421.83105     693.0278     546.4908   1421.83105     693.0278     546.4908
   1421.81580     691.2831     546.8368   1421.81580     691.2831     546.8368
   1421.80054     691.6392     545.7112   1421.80054     691.6392     545.7112
   1421.78528     691.5758     543.6870   1421.78528     691.5758     543.6870
   1421.77002     691.6227     541.8447   1421.77002     691.6227     541.8447
   1421.75476     690.6500     542.0723   1421.75476     690.6500     542.0723
   1421.73950     690.6802     540.0425   1421.73950     690.6802     540.0425
   1421.72424     690.9159     538.2728   1421.72424     690.9159     538.2728
   1421.70898     690.2091     536.8004   1421.70898     690.2091     536.8004
   1421.69373     689.8934     534.7972   1421.69373     689.8934     534.7972
   1421.67847     689.4087     534.3077   1421.67847     689.4087     534.3077
   1421.66321     690.3139     532.8886   1421.66321     690.3139     532.8886
   1421.64795     688.9870     531.6649   1421.64795     688.9870     531.6649
   1421.63269     689.5062     530.9537   1421.63269     689.5062     530.9537
   1421.61743     688.4254     529.3898   1421.61743     688.4254     529.3898
   1421.60217     688.7174     527.6383   1421.60217     688.7174     527.6383
   1421.58691     688.9658     526.4966   1421.58691     688.9658     526.4966
   1421.57166     687.9857     525.2497   1421.57166     687.9857     525.2497
   1421.55640     688.2936     523.0598   1421.55640     688.2936     523.0598
   1421.54114     687.6361     521.7774   1421.54114     687.6361     521.7774
   1421.52588     687.8697     521.1259   1421.52588     687.8697     521.1259
   1421.51062     687.3872     520.2543   1421.51062     687.3872     520.2543
   1421.49536     687.4852     519.3209   1421.49536     687.4852     519.3209
   1421.48010     685.3090     517.1859   1421.48010     685.3090     517.1859
   1421.46484     685.8349     515.5163   1421.46484     685.8349     515.5163
   1421.44958     686.3585     515.3910   1421.44958     686.3585     515.3910
   1421.43433     684.8918     513.5032   1421.43433     684.8918     513.5032
   1421.41907     684.7366     512.6268   1421.41907     684.7366     512.6268
   1421.40381     685.1823     511.1041   1421.40381     685.1823     511.1041
   1421.38855     684.1531     509.8554   1421.38855     684.1531     509.8554
   1421.37329     685.8646     508.3459   1421.37329     685.8646     508.3459
   1421.35803     685.9029     506.5630   1421.35803     685.9029     506.5630
   1421.34277     684.3072     505.9347   1421.34277     684.3072     505.9347
   1421.32751     684.6049     504.5823   1421.32751     684.6049     504.5823
   1421.31226     684.3106     503.6945   1421.31226     684.3106     503.6945
   1421.29700     683.5326     501.9715   1421.29700     683.5326     501.9715
   1421.28174     683.8715     499.9568   1421.28174     683.8715     499.9568
   1421.26648     683.8256     498.6723   1421.26648     683.8256     498.6723
   1421.25122     682.5614     498.8572   1421.25122     682.5614     498.8572
   1421.23596     682.4866     497.2073   1421.23596     682.4866     497.2073
   1421.22070     682.1996     496.0002   1421.22070     682.1996     496.0002
   1421.20544     682.4119     494.3435   1421.20544     682.4119     494.3435
   1421.19019     681.1279     494.3989   1421.19019     681.1279     494.3989
   1421.17493     680.9035     491.8530   1421.17493     680.9035     491.8530
   1421.15967     681.3058     491.1671   1421.15967     681.3058     491.1671
   1421.14441     681.9429     489.8660   1421.14441     681.9429     489.8660
   1421.12915     680.6797     489.5912   1421.12915     680.6797     489.5912
   1421.11389     679.8467     487.8015   1421.11389     679.8467     487.8015
   1421.09863     680.7327     486.8475   1421.09863     680.7327     486.8475
   1421.08337     679.9047     485.1036   1421.08337     679.9047     485.1036
   1421.06812     679.6090     484.4404   1421.06812     679.6090     484.4404
   1421.05286     679.3741     483.4644   1421.05286     679.3741     483.4644
   1421.03760     679.5609     482.2415   1421.03760     679.5609     482.2415
   1421.02234     679.1879     481.2825   1421.02234     679.1879     481.2825
   1421.00708     679.3649     479.6861   1421.00708     679.3649     479.6861
   1420.99182     677.9952     479.1890   1420.99182     677.9952     479.1890
   1420.97656     678.8564     479.1750   1420.97656     678.8564     479.1750
   1420.96130     678.8509     477.5019   1420.96130     678.8509     477.5019
   1420.94604     678.1953     475.9243   1420.94604     678.1953     475.9243
   1420.93079     678.1751     474.5713   1420.93079     678.1751     474.5713
   1420.91553     677.6534     474.1213   1420.91553     677.6534     474.1213
   1420.90027     677.9128     472.6420   1420.90027     677.9128     472.6420
   1420.88501     677.5706     472.0865   1420.88501     677.5706     472.0865
   1420.86975     677.1071     471.0685   1420.86975     677.1071     471.0685
   1420.85449     676.2437     469.5378   1420.85449     676.2437     469.5378
   1420.83923     677.5790     469.4518   1420.83923     677.5790     469.4518
   1420.82397     676.6715     467.7244   1420.82397     676.6715     467.7244
   1420.80872     677.5607     466.5831   1420.80872     677.5607     466.5831
   1420.79346     677.9687     466.4174   1420.79346     677.9687     466.4174
   1420.77820     676.9656     466.8695   1420.77820     676.9656     466.8695
   1420.76294     677.5811     464.2625   1420.76294     677.5811     464.2625
   1420.74768     676.4705     464.2013   1420.74768     676.4705     464.2013
   1420.73242     677.4620     462.5286   1420.73242     677.4620     462.5286
   1420.71716     677.4197     462.4884   1420.71716     677.4197     462.4884
   1420.70190     676.7618     461.3835   1420.70190     676.7618     461.3835
   1420.68665     676.1206     460.7022   1420.68665     676.1206     460.7022
   1420.67139     677.4011     459.5840   1420.67139     677.4011     459.5840
   1420.65613     676.2470     458.2701   1420.65613     676.2470     458.2701
   1420.64087     675.9688     457.8918   1420.64087     675.9688     457.8918
   1420.62561     675.1550     457.0810   1420.62561     675.1550     457.0810
   1420.61035     675.6022     455.9492   1420.61035     675.6022     455.9492
   1420.59509     676.4828     455.1185   1420.59509     676.4828     455.1185
   1420.57983     676.7668     454.6216   1420.57983     676.7668     454.6216
   1420.56458     677.7674     454.5660   1420.56458     677.7674     454.5660
   1420.54932     678.6909     454.8428   1420.54932     678.6909     454.8428
   1420.53406     680.3082     455.1188   1420.53406     680.3082     455.1188
   1420.51880     680.8773     454.4389   1420.51880     680.8773     454.4389
   1420.50354     681.4706     454.8575   1420.50354     681.4706     454.8575
   1420.48828     680.3963     453.1912   1420.48828     680.3963     453.1912
   1420.47302     680.3759     452.7003   1420.47302     680.3759     452.7003
   1420.45776     678.4815     450.8996   1420.45776     678.4815     450.8996
   1420.44250     678.4208     448.3961   1420.44250     678.4208     448.3961
   1420.42725     677.8754     448.5778   1420.42725     677.8754     448.5778
   1420.41199     676.3381     448.0905   1420.41199     676.3381     448.0905
   1420.39673     677.9634     447.0825   1420.39673     677.9634     447.0825
   1420.38147     677.1142     446.1702   1420.38147     677.1142     446.1702
   1420.36621     678.0999     446.1404   1420.36621     678.0999     446.1404
   1420.35095     678.3975     446.1096   1420.35095     678.3975     446.1096
   1420.33569     679.2643     445.9961   1420.33569     679.2643     445.9961
   1420.32043     680.0623     446.1571   1420.32043     680.0623     446.1571
   1420.30518     682.8038     446.7339   1420.30518     682.8038     446.7339
   1420.28992     686.5566     448.4632   1420.28992     686.5566     448.4632
   1420.27466     696.1117     453.1038   1420.27466     696.1117     453.1038
   1420.25940     717.7508     466.8514   1420.25940     717.7508     466.8514
   1420.24414     795.7580     513.5735   1420.24414     795.7580     513.5735
   1420.22888    1071.6538     686.2505   1420.22888    1071.6538     686.2505
   1420.21362    1248.1685     795.9197   1420.21362    1248.1685     795.9197
   1420.19836    1149.4692     730.9565   1420.19836    1149.4692     730.9565
   1420.18311    1004.5999     638.6662   1420.18311    1004.5999     638.6662
   1420.16785    1127.5638     714.5704   1420.16785    1127.5638     714.5704
   1420.15259    1459.5468     918.5573   1420.15259    1459.5468     918.5573
   1420.13733    1791.7137    1126.1677   1420.13733    1791.7137    1126.1677
   1420.12207    1712.5494    1075.5684   1420.12207    1712.5494    1075.5684
   1420.10681    1521.3298     957.1167   1420.10681    1521.3298     957.1167
   1420.09155    1279.4880     808.3546   1420.09155    1279.4880     808.3546
   1420.07629    1177.4158     740.1208   1420.07629    1177.4158     740.1208
   1420.06104    1371.8247     859.4244   1420.06104    1371.8247     859.4244
   1420.04578    1651.5250    1030.6000   1420.04578    1651.5250    1030.6000
   1420.03052    1609.2374    1000.4631   1420.03052    1609.2374    1000.4631
   1420.01526    1533.4464     956.1904   1420.01526    1533.4464     956.1904
   1420.00000    1587.3937     988.8784   1420.00000    1587.3937     988.8784
   1419.98474    1641.3419    1021.5669   1419.98474    1641.3419    1021.5669
   1419.96948    1411.8915     880.3705   1419.96948    1411.8915     880.3705
   1419.95422    1239.9019     772.8382   1419.95422    1239.9019     772.8382
   1419.93896    1220.9568     759.5659   1419.93896    1220.9568     759.5659
   1419.92371    1299.7236     807.8965   1419.92371    1299.7236     807.8965
   1419.90845    1494.4438     923.7324   1419.90845    1494.4438     923.7324
   1419.89319    1511.7917     934.3430   1419.89319    1511.7917     934.3430
   1419.87793    1340.0146     829.0037   1419.87793    1340.0146     829.0037
   1419.86267    1191.8723     740.7073   1419.86267    1191.8723     740.7073
   1419.84741    1036.7834     646.3309   1419.84741    1036.7834     646.3309
   1419.83215     915.5192     569.9238   1419.83215     915.5192     569.9238
   1419.81689     829.0051     518.5537   1419.81689     829.0051     518.5537
   1419.80164     778.0938     487.9388   1419.80164     778.0938     487.9388
   1419.78638     746.9750     467.7754   1419.78638     746.9750     467.7754
   1419.77112     728.4471     455.2854   1419.77112     728.4471     455.2854
   1419.75586     713.7091     446.6618   1419.75586     713.7091     446.6618
   1419.74060     702.6983     439.2158   1419.74060     702.6983     439.2158
   1419.72534     694.7834     434.2901   1419.72534     694.7834     434.2901
   1419.71008     686.4226     429.4718   1419.71008     686.4226     429.4718
   1419.69482     682.5763     425.6770   1419.69482     682.5763     425.6770
   1419.67957     679.0404     423.0089   1419.67957     679.0404     423.0089
   1419.66431     676.0355     421.1576   1419.66431     676.0355     421.1576
   1419.64905     673.2145     419.5957   1419.64905     673.2145     419.5957
   1419.63379     672.9821     418.3071   1419.63379     672.9821     418.3071
   1419.61853     672.1410     417.7382   1419.61853     672.1410     417.7382
   1419.60327     671.1269     417.2833   1419.60327     671.1269     417.2833
   1419.58801     671.3932     417.2718   1419.58801     671.3932     417.2718
   1419.57275     671.1573     416.4904   1419.57275     671.1573     416.4904
   1419.55750     671.1938     415.7979   1419.55750     671.1938     415.7979
   1419.54224     670.6553     415.5560   1419.54224     670.6553     415.5560
   1419.52698     671.8323     415.9513   1419.52698     671.8323     415.9513
   1419.51172     670.9827     414.9777   1419.51172     670.9827     414.9777
   1419.49646     672.1005     415.2533   1419.49646     672.1005     415.2533
   1419.48120     672.2283     414.4796   1419.48120     672.2283     414.4796
   1419.46594     672.9601     415.2063   1419.46594     672.9601     415.2063
   1419.45068     671.6219     414.5087   1419.45068     671.6219     414.5087
   1419.43542     671.6524     413.8741   1419.43542     671.6524     413.8741
   1419.42017     671.6271     415.0427   1419.42017     671.6271     415.0427
   1419.40491     672.8949     414.5367   1419.40491     672.8949     414.5367
   1419.38965     675.1777     413.8586   1419.38965     675.1777     413.8586
   1419.37439     673.5240     414.3426   1419.37439     673.5240     414.3426
   1419.35913     674.1880     413.6295   1419.35913     674.1880     413.6295
   1419.34387     674.9673     413.8254   1419.34387     674.9673     413.8254
   1419.32861     674.5963     413.6333   1419.32861     674.5963     413.6333
   1419.31335     675.8326     414.3031   1419.31335     675.8326     414.3031
   1419.29810     675.6743     414.1359   1419.29810     675.6743     414.1359
   1419.28284     676.8207     414.1192   1419.28284     676.8207     414.1192
   1419.26758     678.2536     415.1926   1419.26758     678.2536     415.1926
   1419.25232     677.2300     414.5842   1419.25232     677.2300     414.5842
   1419.23706     677.3629     413.7242   1419.23706     677.3629     413.7242
   1419.22180     679.3836     414.2677   1419.22180     679.3836     414.2677
   1419.20654     678.5311     414.0096   1419.20654     678.5311     414.0096
   1419.19128     678.8928     414.9595   1419.19128     678.8928     414.9595
   1419.17603     679.8065     414.8714   1419.17603     679.8065     414.8714
   1419.16077     680.0170     414.3737   1419.16077     680.0170     414.3737
   1419.14551     680.3472     414.4812   1419.14551     680.3472     414.4812
   1419.13025     680.8700     414.3977   1419.13025     680.8700     414.3977
   1419.11499     682.0909     415.6760   1419.11499     682.0909     415.6760
   1419.09973     681.4548     415.3208   1419.09973     681.4548     415.3208
   1419.08447     682.2917     415.5331   1419.08447     682.2917     415.5331
   1419.06921     684.8102     415.3740   1419.06921     684.8102     415.3740
   1419.05396     683.6580     415.9534   1419.05396     683.6580     415.9534
   1419.03870     685.8768     415.5839   1419.03870     685.8768     415.5839
   1419.02344     686.1329     415.6824   1419.02344     686.1329     415.6824
   1419.00818     685.6367     416.4396   1419.00818     685.6367     416.4396
   1418.99292     686.2805     416.7920   1418.99292     686.2805     416.7920
   1418.97766     686.2288     416.8371   1418.97766     686.2288     416.8371
   1418.96240     687.8273     417.1584   1418.96240     687.8273     417.1584
   1418.94714     689.5825     417.5266   1418.94714     689.5825     417.5266
   1418.93188     688.7051     417.6673   1418.93188     688.7051     417.6673
   1418.91663     688.4086     417.7388   1418.91663     688.4086     417.7388
   1418.90137     690.9281     418.4729   1418.90137     690.9281     418.4729
   1418.88611     690.5150     419.3219   1418.88611     690.5150     419.3219
   1418.87085     691.1582     418.2571   1418.87085     691.1582     418.2571
   1418.85559     693.3566     418.2375   1418.85559     693.3566     418.2375
   1418.84033     692.8157     418.4302   1418.84033     692.8157     418.4302
   1418.82507     692.6956     419.5374   1418.82507     692.6956     419.5374
   1418.80981     695.1922     419.8856   1418.80981     695.1922     419.8856
   1418.79456     695.9923     420.9563   1418.79456     695.9923     420.9563
   1418.77930     696.1464     420.3554   1418.77930     696.1464     420.3554
   1418.76404     697.1025     421.5542   1418.76404     697.1025     421.5542
   1418.74878     698.4792     420.9976   1418.74878     698.4792     420.9976
   1418.73352     699.0636     421.5429   1418.73352     699.0636     421.5429
   1418.71826     698.9225     421.7930   1418.71826     698.9225     421.7930
   1418.70300     700.2551     421.9868   1418.70300     700.2551     421.9868
   1418.68774     701.4667     422.9841   1418.68774     701.4667     422.9841
   1418.67249     703.0750     422.5142   1418.67249     703.0750     422.5142
   1418.65723     703.1278     422.6974   1418.65723     703.1278     422.6974
   1418.64197     703.6230     424.1706   1418.64197     703.6230     424.1706
   1418.62671     704.6722     423.8143   1418.62671     704.6722     423.8143
   1418.61145     705.8033     424.7337   1418.61145     705.8033     424.7337
   1418.59619     707.4135     425.5851   1418.59619     707.4135     425.5851
   1418.58093     708.6505     425.2711   1418.58093     708.6505     425.2711
   1418.56567     708.6342     426.5496   1418.56567     708.6342     426.5496
   1418.55042     708.9102     426.9340   1418.55042     708.9102     426.9340
   1418.53516     710.6348     427.3343   1418.53516     710.6348     427.3343
   1418.51990     710.8481     426.6536   1418.51990     710.8481     426.6536
   1418.50464     712.4395     427.8180   1418.50464     712.4395     427.8180
   1418.48938     712.3068     428.6025   1418.48938     712.3068     428.6025
   1418.47412     714.1876     429.1244   1418.47412     714.1876     429.1244
   1418.45886     715.7401     429.7722   1418.45886     715.7401     429.7722
   1418.44360     716.4693     429.8899   1418.44360     716.4693     429.8899
   1418.42834     717.6228     430.2420   1418.42834     717.6228     430.2420
   1418.41309     719.1789     430.9579   1418.41309     719.1789     430.9579
   1418.39783     718.4132     430.3879   1418.39783     718.4132     430.3879
   1418.38257     720.8553     432.0155   1418.38257     720.8553     432.0155
   1418.36731     721.9485     432.5015   1418.36731     721.9485     432.5015
   1418.35205     722.5446     433.0373   1418.35205     722.5446     433.0373
   1418.33679     723.9814     433.6690   1418.33679     723.9814     433.6690
   1418.32153     725.8361     434.2950   1418.32153     725.8361     434.2950
   1418.30627     725.7247     434.3916   1418.30627     725.7247     434.3916
   1418.29102     725.9680     435.2447   1418.29102     725.9680     435.2447
   1418.27576     726.9561     436.3686   1418.27576     726.9561     436.3686
   1418.26050     729.0335     436.5019   1418.26050     729.0335     436.5019
   1418.24524     729.8557     437.3557   1418.24524     729.8557     437.3557
   1418.22998     729.8466     437.1285   1418.22998     729.8466     437.1285
   1418.21472     731.4730     438.3900   1418.21472     731.4730     438.3900
   1418.19946     734.3378     438.0428   1418.19946     734.3378     438.0428
   1418.18420     734.6592     439.6695   1418.18420     734.6592     439.6695
   1418.16895     734.4480     439.2794   1418.16895     734.4480     439.2794
   1418.15369     737.3949     439.9398   1418.15369     737.3949     439.9398
   1418.13843     737.9111     440.9520   1418.13843     737.9111     440.9520
   1418.12317     738.9750     441.4857   1418.12317     738.9750     441.4857
   1418.10791     741.2249     441.8565   1418.10791     741.2249     441.8565
   1418.09265     740.4295     443.2391   1418.09265     740.4295     443.2391
   1418.07739     742.9073     443.1446   1418.07739     742.9073     443.1446
   1418.06213     743.1854     444.0157   1418.06213     743.1854     444.0157
   1418.04688     744.6214     444.6121   1418.04688     744.6214     444.6121
   1418.03162     745.1891     445.7391   1418.03162     745.1891     445.7391
   1418.01636     748.1508     445.4478   1418.01636     748.1508     445.4478
   1418.00110     749.2215     446.3404   1418.00110     749.2215     446.3404
   1417.98584     749.9880     446.6701   1417.98584     749.9880     446.6701
   1417.97058     751.2329     447.7682   1417.97058     751.2329     447.7682
   1417.95532     752.3510     448.8378   1417.95532     752.3510     448.8378
   1417.94006     752.9931     449.0594   1417.94006     752.9931     449.0594
   1417.92480     754.6157     449.2683   1417.92480     754.6157     449.2683
   1417.90955     756.5931     449.6886   1417.90955     756.5931     449.6886
   1417.89429     756.7507     450.6969   1417.89429     756.7507     450.6969
   1417.87903     758.4778     452.0738   1417.87903     758.4778     452.0738
   1417.86377     760.4175     452.1337   1417.86377     760.4175     452.1337
   1417.84851     760.9003     452.7615   1417.84851     760.9003     452.7615
   1417.83325     761.6902     454.1263   1417.83325     761.6902     454.1263
   1417.81799     762.8640     455.0972   1417.81799     762.8640     455.0972
   1417.80273     764.8231     454.5343   1417.80273     764.8231     454.5343
   1417.78748     766.7618     454.9981   1417.78748     766.7618     454.9981
   1417.77222     767.7368     456.3162   1417.77222     767.7368     456.3162
   1417.75696     767.8546     457.7808   1417.75696     767.8546     457.7808
   1417.74170     769.4212     458.1326   1417.74170     769.4212     458.1326
   1417.72644     770.2944     458.5560   1417.72644     770.2944     458.5560
   1417.71118     773.1806     458.9329   1417.71118     773.1806     458.9329
   1417.69592     772.5887     459.4499   1417.69592     772.5887     459.4499
   1417.68066     773.9316     460.3082   1417.68066     773.9316     460.3082
   1417.66541     775.6200     460.8870   1417.66541     775.6200     460.8870
   1417.65015     777.0587     461.6290   1417.65015     777.0587     461.6290
   1417.63489     779.7265     462.3569   1417.63489     779.7265     462.3569
   1417.61963     779.3148     462.9993   1417.61963     779.3148     462.9993
   1417.60437     780.1843     463.3640   1417.60437     780.1843     463.3640
   1417.58911     782.8011     464.8281   1417.58911     782.8011     464.8281
   1417.57385     783.0754     464.7776   1417.57385     783.0754     464.7776
   1417.55859     784.7187     465.6775   1417.55859     784.7187     465.6775
   1417.54333     786.1374     466.2917   1417.54333     786.1374     466.2917
   1417.52808     786.7232     466.7179   1417.52808     786.7232     466.7179
   1417.51282     788.8967     467.1727   1417.51282     788.8967     467.1727
   1417.49756     789.1850     468.1035   1417.49756     789.1850     468.1035
   1417.48230     789.7167     467.8141   1417.48230     789.7167     467.8141
   1417.46704     792.3679     469.6267   1417.46704     792.3679     469.6267
   1417.45178     792.7216     470.2649   1417.45178     792.7216     470.2649
   1417.43652     795.1918     471.4164   1417.43652     795.1918     471.4164
   1417.42126     794.2231     471.1884   1417.42126     794.2231     471.1884
   1417.40601     795.5380     471.5974   1417.40601     795.5380     471.5974
   1417.39075     798.6743     472.8541   1417.39075     798.6743     472.8541
   1417.37549     798.5827     473.1977   1417.37549     798.5827     473.1977
   1417.36023     799.9237     474.3739   1417.36023     799.9237     474.3739
   1417.34497     801.7715     474.1395   1417.34497     801.7715     474.1395
   1417.32971     801.4525     475.4126   1417.32971     801.4525     475.4126
   1417.31445     803.4691     476.0912   1417.31445     803.4691     476.0912
   1417.29919     804.5254     475.9969   1417.29919     804.5254     475.9969
   1417.28394     804.0878     477.3308   1417.28394     804.0878     477.3308
   1417.26868     805.0800     476.9186   1417.26868     805.0800     476.9186
   1417.25342     807.4736     477.5539   1417.25342     807.4736     477.5539
   1417.23816     809.0892     478.9131   1417.23816     809.0892     478.9131
   1417.22290     811.6608     479.2179   1417.22290     811.6608     479.2179
   1417.20764     809.3611     479.3660   1417.20764     809.3611     479.3660
   1417.19238     812.0547     480.4884   1417.19238     812.0547     480.4884
   1417.17712     812.8921     480.8591   1417.17712     812.8921     480.8591
   1417.16187     814.1375     481.6546   1417.16187     814.1375     481.6546
   1417.14661     813.4156     480.6605   1417.14661     813.4156     480.6605
   1417.13135     815.7295     482.0538   1417.13135     815.7295     482.0538
   1417.11609     815.2112     483.3959   1417.11609     815.2112     483.3959
   1417.10083     817.6436     483.6304   1417.10083     817.6436     483.6304
   1417.08557     818.6423     483.9798   1417.08557     818.6423     483.9798
   1417.07031     818.3931     484.6212   1417.07031     818.3931     484.6212
   1417.05505     820.2142     484.9862   1417.05505     820.2142     484.9862
   1417.03979     821.4325     485.7545   1417.03979     821.4325     485.7545
   1417.02454     821.0290     485.5038   1417.02454     821.0290     485.5038
   1417.00928     822.2177     486.5195   1417.00928     822.2177     486.5195
   1416.99402     823.5365     487.0626   1416.99402     823.5365     487.0626
   1416.97876     823.6605     486.5165   1416.97876     823.6605     486.5165
   1416.96350     824.2151     488.1805   1416.96350     824.2151     488.1805
   1416.94824     825.6425     487.1341   1416.94824     825.6425     487.1341
   1416.93298     825.9964     488.7014   1416.93298     825.9964     488.7014
   1416.91772     826.5321     488.3924   1416.91772     826.5321     488.3924
   1416.90247     828.6073     488.6357   1416.90247     828.6073     488.6357
   1416.88721     828.1100     488.3495   1416.88721     828.1100     488.3495
   1416.87195     828.5115     489.5250   1416.87195     828.5115     489.5250
   1416.85669     829.5746     489.5543   1416.85669     829.5746     489.5543
   1416.84143     829.7943     490.5580   1416.84143     829.7943     490.5580
   1416.82617     830.8258     491.1262   1416.82617     830.8258     491.1262
   1416.81091     831.2365     491.3436   1416.81091     831.2365     491.3436
   1416.79565     831.8882     490.4059   1416.79565     831.8882     490.4059
   1416.78040     832.0078     491.6167   1416.78040     832.0078     491.6167
   1416.76514     833.7109     491.5959   1416.76514     833.7109     491.5959
   1416.74988     834.0403     491.7394   1416.74988     834.0403     491.7394
   1416.73462     834.3355     492.0164   1416.73462     834.3355     492.0164
   1416.71936     834.9291     492.4629   1416.71936     834.9291     492.4629
   1416.70410     834.1796     492.4296   1416.70410     834.1796     492.4296
   1416.68884     835.6111     492.7932   1416.68884     835.6111     492.7932
   1416.67358     834.8826     492.5993   1416.67358     834.8826     492.5993
   1416.65833     834.1569     492.8445   1416.65833     834.1569     492.8445
   1416.64307     835.4607     492.8946   1416.64307     835.4607     492.8946
   1416.62781     835.1343     493.3032   1416.62781     835.1343     493.3032
   1416.61255     836.0574     493.5875   1416.61255     836.0574     493.5875
   1416.59729     836.4706     493.8925   1416.59729     836.4706     493.8925
   1416.58203     838.0616     494.4900   1416.58203     838.0616     494.4900
   1416.56677     837.1910     493.6637   1416.56677     837.1910     493.6637
   1416.55151     838.0979     493.5279   1416.55151     838.0979     493.5279
   1416.53625     837.5863     493.7497   1416.53625     837.5863     493.7497
   1416.52100     837.1822     493.4572   1416.52100     837.1822     493.4572
   1416.50574     836.9797     493.6925   1416.50574     836.9797     493.6925
   1416.49048     837.6797     493.9393   1416.49048     837.6797     493.9393
   1416.47522     838.4125     494.4427   1416.47522     838.4125     494.4427
   1416.45996     837.3625     494.1956   1416.45996     837.3625     494.1956
   1416.44470     836.6907     494.1747   1416.44470     836.6907     494.1747
   1416.42944     837.3719     493.9135   1416.42944     837.3719     493.9135
   1416.41418     838.7317     493.9326   1416.41418     838.7317     493.9326
   1416.39893     838.4377     494.2108   1416.39893     838.4377     494.2108
   1416.38367     837.7228     493.9823   1416.38367     837.7228     493.9823
   1416.36841     837.5143     493.0341   1416.36841     837.5143     493.0341
   1416.35315     836.9926     493.3960   1416.35315     836.9926     493.3960
   1416.33789     839.3560     493.4935   1416.33789     839.3560     493.4935
   1416.32263     836.0046     493.7941   1416.32263     836.0046     493.7941
   1416.30737     837.5228     493.5308   1416.30737     837.5228     493.5308
   1416.29211     836.4617     493.5658   1416.29211     836.4617     493.5658
   1416.27686     837.9632     493.2316   1416.27686     837.9632     493.2316
   1416.26160     836.0631     492.9583   1416.26160     836.0631     492.9583
   1416.24634     835.9443     492.7204   1416.24634     835.9443     492.7204
   1416.23108     836.7523     492.5162   1416.23108     836.7523     492.5162
   1416.21582     834.7770     492.0460   1416.21582     834.7770     492.0460
   1416.20056     834.0746     492.1548   1416.20056     834.0746     492.1548
   1416.18530     834.6385     492.5722   1416.18530     834.6385     492.5722
   1416.17004     833.4274     491.7784   1416.17004     833.4274     491.7784
   1416.15479     833.0416     491.8713   1416.15479     833.0416     491.8713
   1416.13953     832.2291     491.7336   1416.13953     832.2291     491.7336
   1416.12427     832.3922     491.0561   1416.12427     832.3922     491.0561
   1416.10901     831.0027     490.9477   1416.10901     831.0027     490.9477
   1416.09375     830.4761     490.7279   1416.09375     830.4761     490.7279
   1416.07849     829.8199     491.5014   1416.07849     829.8199     491.5014
   1416.06323     831.7192     490.9388   1416.06323     831.7192     490.9388
   1416.04797     828.2603     490.7266   1416.04797     828.2603     490.7266
   1416.03271     829.4223     490.8238   1416.03271     829.4223     490.8238
   1416.01746     829.6808     489.9605   1416.01746     829.6808     489.9605
   1416.00220     828.1271     490.3408   1416.00220     828.1271     490.3408
   1415.98694     826.0308     489.8613   1415.98694     826.0308     489.8613
   1415.97168     827.5773     489.3096   1415.97168     827.5773     489.3096
   1415.95642     826.3467     489.1004   1415.95642     826.3467     489.1004
   1415.94116     826.0513     489.1349   1415.94116     826.0513     489.1349
   1415.92590     823.4241     489.3204   1415.92590     823.4241     489.3204
   1415.91064     824.6693     488.2159   1415.91064     824.6693     488.2159
   1415.89539     822.9966     487.7716   1415.89539     822.9966     487.7716
   1415.88013     822.7118     488.3745   1415.88013     822.7118     488.3745
   1415.86487     824.1786     488.3900   1415.86487     824.1786     488.3900
   1415.84961     821.5923     487.4550   1415.84961     821.5923     487.4550
   1415.83435     819.6264     487.2449   1415.83435     819.6264     487.2449
   1415.81909     819.9274     487.4592   1415.81909     819.9274     487.4592
   1415.80383     818.4591     486.1984   1415.80383     818.4591     486.1984
   1415.78857     819.3016     486.9168   1415.78857     819.3016     486.9168
   1415.77332     818.4250     486.9135   1415.77332     818.4250     486.9135
   1415.75806     816.6242     486.5418   1415.75806     816.6242     486.5418
   1415.74280     816.0446     486.2372   1415.74280     816.0446     486.2372
   1415.72754     817.2236     485.7831   1415.72754     817.2236     485.7831
   1415.71228     813.2339     485.9985   1415.71228     813.2339     485.9985
   1415.69702     814.1921     485.4846   1415.69702     814.1921     485.4846
   1415.68176     812.7910     484.5243   1415.68176     812.7910     484.5243
   1415.66650     812.1617     485.1952   1415.66650     812.1617     485.1952
   1415.65125     810.0454     484.5755   1415.65125     810.0454     484.5755
   1415.63599     810.3524     484.3473   1415.63599     810.3524     484.3473
   1415.62073     809.6779     484.2471   1415.62073     809.6779     484.2471
   1415.60547     807.0555     484.4408   1415.60547     807.0555     484.4408
   1415.59021     807.5103     483.8552   1415.59021     807.5103     483.8552
   1415.57495     806.7278     482.5367   1415.57495     806.7278     482.5367
   1415.55969     804.9763     482.1332   1415.55969     804.9763     482.1332
   1415.54443     803.8769     482.2489   1415.54443     803.8769     482.2489
   1415.52917     804.1870     481.8280   1415.52917     804.1870     481.8280
   1415.51392     802.4980     482.4111   1415.51392     802.4980     482.4111
   1415.49866     799.7297     481.7868   1415.49866     799.7297     481.7868
   1415.48340     799.9988     481.0260   1415.48340     799.9988     481.0260
   1415.46814     798.5096     481.3568   1415.46814     798.5096     481.3568
   1415.45288     797.3511     481.3441   1415.45288     797.3511     481.3441
   1415.43762     795.1218     481.2219   1415.43762     795.1218     481.2219
   1415.42236     793.8906     480.0160   1415.42236     793.8906     480.0160
   1415.40710     792.6874     480.1740   1415.40710     792.6874     480.1740
   1415.39185     791.8613     480.2386   1415.39185     791.8613     480.2386
   1415.37659     791.5678     478.5857   1415.37659     791.5678     478.5857
   1415.36133     788.2624     478.7351   1415.36133     788.2624     478.7351
   1415.34607     788.9808     478.8340   1415.34607     788.9808     478.8340
   1415.33081     788.6038     478.2095   1415.33081     788.6038     478.2095
   1415.31555     785.7679     478.0140   1415.31555     785.7679     478.0140
   1415.30029     785.0574     477.8566   1415.30029     785.0574     477.8566
   1415.28503     784.1280     476.8493   1415.28503     784.1280     476.8493
   1415.26978     780.4138     476.6068   1415.26978     780.4138     476.6068
   1415.25452     780.4457     476.0703   1415.25452     780.4457     476.0703
   1415.23926     779.2514     475.7204   1415.23926     779.2514     475.7204
   1415.22400     777.7557     475.4423   1415.22400     777.7557     475.4423
   1415.20874     775.6778     475.9608   1415.20874     775.6778     475.9608
   1415.19348     775.6962     474.8073   1415.19348     775.6962     474.8073
   1415.17822     773.6924     475.0919   1415.17822     773.6924     475.0919
   1415.16296     771.9436     473.9775   1415.16296     771.9436     473.9775
   1415.14771     770.3983     473.2640   1415.14771     770.3983     473.2640
   1415.13245     768.9411     472.6446   1415.13245     768.9411     472.6446
   1415.11719     766.9183     473.4768   1415.11719     766.9183     473.4768
   1415.10193     764.7580     472.5930   1415.10193     764.7580     472.5930
   1415.08667     765.2398     472.3240   1415.08667     765.2398     472.3240
   1415.07141     762.5757     471.2458   1415.07141     762.5757     471.2458
   1415.05615     759.9741     470.8977   1415.05615     759.9741     470.8977
   1415.04089     759.1330     470.7925   1415.04089     759.1330     470.7925
   1415.02563     757.1976     469.4221   1415.02563     757.1976     469.4221
   1415.01038     755.2745     469.9840   1415.01038     755.2745     469.9840
   1414.99512     752.5148     469.8801   1414.99512     752.5148     469.8801
   1414.97986     752.1149     467.7200   1414.97986     752.1149     467.7200
   1414.96460     750.8835     467.2459   1414.96460     750.8835     467.2459
   1414.94934     748.2786     466.7849   1414.94934     748.2786     466.7849
   1414.93408     746.4593     467.1639   1414.93408     746.4593     467.1639
   1414.91882     744.0587     465.7056   1414.91882     744.0587     465.7056
   1414.90356     742.1848     466.2187   1414.90356     742.1848     466.2187
   1414.88831     740.9066     464.8683   1414.88831     740.9066     464.8683
   1414.87305     739.3214     464.2845   1414.87305     739.3214     464.2845
   1414.85779     736.2939     463.8629   1414.85779     736.2939     463.8629
   1414.84253     733.9088     463.0135   1414.84253     733.9088     463.0135
   1414.82727     732.1440     461.7920   1414.82727     732.1440     461.7920
   1414.81201     731.2931     461.3875   1414.81201     731.2931     461.3875
   1414.79675     728.5864     461.4909   1414.79675     728.5864     461.4909
   1414.78149     726.8839     460.8070   1414.78149     726.8839     460.8070
   1414.76624     726.2895     459.7684   1414.76624     726.2895     459.7684
   1414.75098     722.7443     459.2958   1414.75098     722.7443     459.2958
   1414.73572     720.6232     458.2446   1414.73572     720.6232     458.2446
   1414.72046     719.0510     457.5319   1414.72046     719.0510     457.5319
   1414.70520     716.2419     457.2563   1414.70520     716.2419     457.2563
   1414.68994     714.9191     456.4025   1414.68994     714.9191     456.4025
   1414.67468     711.5142     455.1002   1414.67468     711.5142     455.1002
   1414.65942     708.7570     454.8922   1414.65942     708.7570     454.8922
   1414.64417     707.8748     453.5426   1414.64417     707.8748     453.5426
   1414.62891     705.4523     452.5913   1414.62891     705.4523     452.5913
   1414.61365     701.9968     452.5944   1414.61365     701.9968     452.5944
   1414.59839     700.8973     451.5500   1414.59839     700.8973     451.5500
   1414.58313     697.3702     450.9190   1414.58313     697.3702     450.9190
   1414.56787     695.0847     449.3388   1414.56787     695.0847     449.3388
   1414.55261     693.0292     448.4732   1414.55261     693.0292     448.4732
   1414.53735     692.0676     447.7654   1414.53735     692.0676     447.7654
   1414.52209     688.4494     446.3170   1414.52209     688.4494     446.3170
   1414.50684     685.4443     445.6628   1414.50684     685.4443     445.6628
   1414.49158     682.5471     445.1076   1414.49158     682.5471     445.1076
   1414.47632     679.8303     444.1171   1414.47632     679.8303     444.1171
   1414.46106     677.8381     443.0023   1414.46106     677.8381     443.0023
   1414.44580     674.7242     441.5055   1414.44580     674.7242     441.5055
   1414.43054     672.4968     440.8242   1414.43054     672.4968     440.8242
   1414.41528     669.4130     439.2403   1414.41528     669.4130     439.2403
   1414.40002     667.2164     438.6706   1414.40002     667.2164     438.6706
   1414.38477     665.1212     437.7057   1414.38477     665.1212     437.7057
   1414.36951     662.6835     436.0926   1414.36951     662.6835     436.0926
   1414.35425     658.8696     435.7823   1414.35425     658.8696     435.7823
   1414.33899     657.6812     434.5709   1414.33899     657.6812     434.5709
   1414.32373     654.2075     433.0520   1414.32373     654.2075     433.0520
   1414.30847     650.8589     432.3957   1414.30847     650.8589     432.3957
   1414.29321     648.5934     431.0647   1414.29321     648.5934     431.0647
   1414.27795     646.0145     430.2512   1414.27795     646.0145     430.2512
   1414.26270     643.8132     429.1616   1414.26270     643.8132     429.1616
   1414.24744     640.3547     427.2386   1414.24744     640.3547     427.2386
   1414.23218     637.3270     426.1609   1414.23218     637.3270     426.1609
   1414.21692     634.9539     425.3833   1414.21692     634.9539     425.3833
   1414.20166     631.3885     424.0977   1414.20166     631.3885     424.0977
   1414.18640     628.8199     422.4527   1414.18640     628.8199     422.4527
   1414.17114     627.4476     421.1830   1414.17114     627.4476     421.1830
   1414.15588     623.1121     420.2863   1414.15588     623.1121     420.2863
   1414.14062     621.1904     419.5841   1414.14062     621.1904     419.5841
   1414.12537     618.2714     417.6833   1414.12537     618.2714     417.6833
   1414.11011     614.0699     416.5234   1414.11011     614.0699     416.5234
   1414.09485     611.4802     415.0432   1414.09485     611.4802     415.0432
   1414.07959     607.5442     413.7084   1414.07959     607.5442     413.7084
   1414.06433     605.0738     412.8649   1414.06433     605.0738     412.8649
   1414.04907     602.9078     411.9427   1414.04907     602.9078     411.9427
   1414.03381     600.2866     409.9835   1414.03381     600.2866     409.9835
   1414.01855     596.9586     408.0570   1414.01855     596.9586     408.0570
   1414.00330     615.4089     413.5381   1414.00330     615.4089     413.5381
   1413.98804     591.5214     406.5905   1413.98804     591.5214     406.5905
   1413.97278     586.6895     403.9595   1413.97278     586.6895     403.9595
   1413.95752     584.2711     402.9789   1413.95752     584.2711     402.9789
   1413.94226     581.0289     401.9182   1413.94226     581.0289     401.9182
   1413.92700     578.1340     400.5415   1413.92700     578.1340     400.5415
   1413.91174     575.4964     398.8844   1413.91174     575.4964     398.8844
   1413.89648     570.8528     397.0223   1413.89648     570.8528     397.0223
   1413.88123     568.6316     395.8002   1413.88123     568.6316     395.8002
   1413.86597     565.8005     394.7788   1413.86597     565.8005     394.7788
   1413.85071     562.6537     392.8705   1413.85071     562.6537     392.8705
   1413.83545     559.0421     391.2989   1413.83545     559.0421     391.2989
   1413.82019     555.4795     389.9105   1413.82019     555.4795     389.9105
   1413.80493     553.3517     388.7620   1413.80493     553.3517     388.7620
   1413.78967     550.2730     387.0403   1413.78967     550.2730     387.0403
   1413.77441     547.2650     385.4710   1413.77441     547.2650     385.4710
   1413.75916     543.5395     384.3725   1413.75916     543.5395     384.3725
   1413.74390     540.8297     383.1664   1413.74390     540.8297     383.1664
   1413.72864     538.5165     380.9017   1413.72864     538.5165     380.9017
   1413.71338     534.4132     379.4154   1413.71338     534.4132     379.4154
   1413.69812     531.5481     378.6373   1413.69812     531.5481     378.6373
   1413.68286     528.1069     376.3315   1413.68286     528.1069     376.3315
   1413.66760     525.3923     374.9084   1413.66760     525.3923     374.9084
   1413.65234     522.0887     373.6090   1413.65234     522.0887     373.6090
   1413.63708     518.3751     371.9142   1413.63708     518.3751     371.9142
   1413.62183     515.3292     370.6836   1413.62183     515.3292     370.6836
   1413.60657     513.0629     368.8129   1413.60657     513.0629     368.8129
   1413.59131     509.6870     366.7071   1413.59131     509.6870     366.7071
   1413.57605     506.2424     364.9502   1413.57605     506.2424     364.9502
   1413.56079     503.4397     363.5326   1413.56079     503.4397     363.5326
   1413.54553     500.3716     361.7430   1413.54553     500.3716     361.7430
   1413.53027     497.7883     360.5933   1413.53027     497.7883     360.5933
   1413.51501     494.4226     359.2728   1413.51501     494.4226     359.2728
   1413.49976     490.8706     357.1879   1413.49976     490.8706     357.1879
   1413.48450     487.5153     355.8489   1413.48450     487.5153     355.8489
   1413.46924     484.8211     353.8672   1413.46924     484.8211     353.8672
   1413.45398     482.7294     353.4039   1413.45398     482.7294     353.4039
   1413.43872     479.1728     350.7701   1413.43872     479.1728     350.7701
   1413.42346     476.0407     350.3812   1413.42346     476.0407     350.3812
   1413.40820     473.2193     347.1136   1413.40820     473.2193     347.1136
   1413.39294     470.4405     346.7092   1413.39294     470.4405     346.7092
   1413.37769     468.0210     345.2010   1413.37769     468.0210     345.2010
   1413.36243     465.2109     343.7591   1413.36243     465.2109     343.7591
   1413.34717     462.1088     342.1603   1413.34717     462.1088     342.1603
   1413.33191     458.5704     340.3412   1413.33191     458.5704     340.3412
   1413.31665     456.6464     338.0452   1413.31665     456.6464     338.0452
   1413.30139     454.4929     337.1787   1413.30139     454.4929     337.1787
   1413.28613     451.1043     335.7557   1413.28613     451.1043     335.7557
   1413.27087     447.7930     334.2388   1413.27087     447.7930     334.2388
   1413.25562     445.5968     332.7919   1413.25562     445.5968     332.7919
   1413.24036     443.0240     331.2496   1413.24036     443.0240     331.2496
   1413.22510     440.7811     330.0503   1413.22510     440.7811     330.0503
   1413.20984     437.1657     328.5816   1413.20984     437.1657     328.5816
   1413.19458     434.3776     326.8681   1413.19458     434.3776     326.8681
   1413.17932     432.5245     324.7386   1413.17932     432.5245     324.7386
   1413.16406     430.7322     324.0452   1413.16406     430.7322     324.0452
   1413.14880     428.3768     322.8079   1413.14880     428.3768     322.8079
   1413.13354     425.2399     321.2830   1413.13354     425.2399     321.2830
   1413.11829     422.3214     319.7369   1413.11829     422.3214     319.7369
   1413.10303     420.1908     318.5784   1413.10303     420.1908     318.5784
   1413.08777     418.2736     316.3600   1413.08777     418.2736     316.3600
   1413.07251     415.3264     315.6229   1413.07251     415.3264     315.6229
   1413.05725     413.8860     315.0222   1413.05725     413.8860     315.0222
   1413.04199     410.8918     313.1516   1413.04199     410.8918     313.1516
   1413.02673     409.1166     311.6433   1413.02673     409.1166     311.6433
   1413.01147     407.0023     310.8830   1413.01147     407.0023     310.8830
   1412.99622     404.6945     309.2163   1412.99622     404.6945     309.2163
   1412.98096     402.4872     307.7919   1412.98096     402.4872     307.7919
   1412.96570     400.6606     306.0232   1412.96570     400.6606     306.0232
   1412.95044     398.3283     305.4260   1412.95044     398.3283     305.4260
   1412.93518     396.7690     303.9673   1412.93518     396.7690     303.9673
   1412.91992     394.8240     303.3332   1412.91992     394.8240     303.3332
   1412.90466     392.5943     302.1374   1412.90466     392.5943     302.1374
   1412.88940     390.8026     301.1817   1412.88940     390.8026     301.1817
   1412.87415     389.8693     299.7243   1412.87415     389.8693     299.7243
   1412.85889     387.5867     298.2422   1412.85889     387.5867     298.2422
   1412.84363     386.0062     298.2004   1412.84363     386.0062     298.2004
   1412.82837     384.7264     296.6844   1412.82837     384.7264     296.6844
   1412.81311     382.6740     295.7830   1412.81311     382.6740     295.7830
   1412.79785     381.8766     294.7578   1412.79785     381.8766     294.7578
   1412.78259     379.5589     294.1636   1412.78259     379.5589     294.1636
   1412.76733     378.4664     292.6599   1412.76733     378.4664     292.6599
   1412.75208     377.2873     292.0589   1412.75208     377.2873     292.0589
   1412.73682     376.0827     291.1981   1412.73682     376.0827     291.1981
   1412.72156     374.1137     290.5831   1412.72156     374.1137     290.5831
   1412.70630     373.1450     289.9002   1412.70630     373.1450     289.9002
   1412.69104     371.8403     288.8072   1412.69104     371.8403     288.8072
   1412.67578     370.8442     288.4008   1412.67578     370.8442     288.4008
   1412.66052     370.2365     287.7409   1412.66052     370.2365     287.7409
   1412.64526     369.2798     287.0882   1412.64526     369.2798     287.0882
   1412.63000     367.9493     286.8388   1412.63000     367.9493     286.8388
   1412.61475     367.3083     285.0840   1412.61475     367.3083     285.0840
   1412.59949     366.0858     284.9961   1412.59949     366.0858     284.9961
   1412.58423     364.8800     284.2868   1412.58423     364.8800     284.2868
   1412.56897     364.7805     283.6794   1412.56897     364.7805     283.6794
   1412.55371     363.8410     283.5609   1412.55371     363.8410     283.5609
   1412.53845     363.1084     283.0761   1412.53845     363.1084     283.0761
   1412.52319     363.1150     282.7556   1412.52319     363.1150     282.7556
   1412.50793     361.7505     282.6509   1412.50793     361.7505     282.6509
   1412.49268     361.7690     282.1414   1412.49268     361.7690     282.1414
   1412.47742     361.4475     282.0424   1412.47742     361.4475     282.0424
   1412.46216     360.7146     281.8484   1412.46216     360.7146     281.8484
   1412.44690     360.8318     281.9219   1412.44690     360.8318     281.9219
   1412.43164     360.3443     281.1691   1412.43164     360.3443     281.1691
   1412.41638     359.5704     281.1117   1412.41638     359.5704     281.1117
   1412.40112     360.1016     281.4717   1412.40112     360.1016     281.4717
   1412.38586     360.1667     280.4406   1412.38586     360.1667     280.4406
   1412.37061     359.5157     280.5082   1412.37061     359.5157     280.5082
   1412.35535     360.4984     281.2240   1412.35535     360.4984     281.2240
   1412.34009     360.1546     281.0227   1412.34009     360.1546     281.0227
   1412.32483     359.7992     280.5630   1412.32483     359.7992     280.5630
   1412.30957     360.3922     281.5803   1412.30957     360.3922     281.5803
   1412.29431     360.4550     281.4344   1412.29431     360.4550     281.4344
   1412.27905     360.8412     281.7257   1412.27905     360.8412     281.7257
   1412.26379     361.4753     281.2992   1412.26379     361.4753     281.2992
   1412.24854     361.6841     282.6051   1412.24854     361.6841     282.6051
   1412.23328     362.8902     282.6350   1412.23328     362.8902     282.6350
   1412.21802     362.9637     282.9928   1412.21802     362.9637     282.9928
   1412.20276     363.5593     283.4836   1412.20276     363.5593     283.4836