#     FILENAME=!Skynet_57528_lachhhg94_20328_20901.cyb.fits
#     BASENAME=Skynet_57528_lachhhg94_20328_20901
#     SRC_NAME=lachhhg94
#     OBSERVER=hhgmadison16_9500
#     DATE_OBS=2016-05-20T15:11:43.930
#        OBSID=20328
#      SCANNUM=20901
#          MJD=57528.6342
#          UTC=54792
#     SCANTYPE=track
#     DATAMODE=HIRES
#     TUNEFREQ=1420.0000
# Actual_FREQ1=1420.0000
# Actual_FREQ2=1420.0000
#    LO1Tuning=6870.000
#     RFFILTER=1355_1435
#        OBSBW=-15.6250
#        NCHAN=1024 
#        FOCUS=37.0709
#           RA=21:29:28.41
#          DEC=51:09:39.64
#      RA(hrs)=21.491200
#     DEC(deg)=51.161000
#    AZIM(deg)=307.533
#    ELEV(deg)=44.096
#     IFattens=11.00, 10.00
#      WARNING=None
#    TCAL_XL1=7.9635
#    TCAL_YR1=9.1340
#    TCAL_XL2=7.9635
#    TCAL_YR2=9.1340
#     TRX_XL1=11.7060
#     TRX_YR1=11.7060
#     TRX_XL2=11.7060
#     TRX_YR2=11.7060
#        TAVE=1.0000
#Freq1(MHz)          XL1          YR1  Freq2(MHz)          XL2          YR2 

   1427.81250     301.0366     241.0273   1427.81250     301.0366     241.0273
   1427.79724     301.7840     241.7422   1427.79724     301.7840     241.7422
   1427.78198     302.2885     242.2603   1427.78198     302.2885     242.2603
   1427.76672     302.7343     243.1628   1427.76672     302.7343     243.1628
   1427.75146     303.5571     244.0829   1427.75146     303.5571     244.0829
   1427.73621     304.1092     244.3161   1427.73621     304.1092     244.3161
   1427.72095     304.5253     244.9095   1427.72095     304.5253     244.9095
   1427.70569     305.3132     245.6717   1427.70569     305.3132     245.6717
   1427.69043     305.8458     246.5709   1427.69043     305.8458     246.5709
   1427.67517     307.4803     247.2945   1427.67517     307.4803     247.2945
   1427.65991     308.6652     248.0137   1427.65991     308.6652     248.0137
   1427.64465     308.9055     249.4390   1427.64465     308.9055     249.4390
   1427.62939     310.3208     250.7541   1427.62939     310.3208     250.7541
   1427.61414     311.4056     251.1508   1427.61414     311.4056     251.1508
   1427.59888     312.3221     252.2630   1427.59888     312.3221     252.2630
   1427.58362     313.4540     253.3156   1427.58362     313.4540     253.3156
   1427.56836     314.8259     254.6955   1427.56836     314.8259     254.6955
   1427.55310     315.7475     255.5358   1427.55310     315.7475     255.5358
   1427.53784     317.7212     256.2713   1427.53784     317.7212     256.2713
   1427.52258     318.3599     257.5458   1427.52258     318.3599     257.5458
   1427.50732     320.2614     258.9622   1427.50732     320.2614     258.9622
   1427.49207     321.2563     260.0624   1427.49207     321.2563     260.0624
   1427.47681     322.3553     261.0623   1427.47681     322.3553     261.0623
   1427.46155     324.0035     262.6710   1427.46155     324.0035     262.6710
   1427.44629     325.6087     263.4955   1427.44629     325.6087     263.4955
   1427.43103     326.8937     264.8663   1427.43103     326.8937     264.8663
   1427.41577     329.1506     266.6209   1427.41577     329.1506     266.6209
   1427.40051     330.5608     268.0075   1427.40051     330.5608     268.0075
   1427.38525     332.6083     268.9979   1427.38525     332.6083     268.9979
   1427.37000     333.9278     270.4554   1427.37000     333.9278     270.4554
   1427.35474     335.8043     271.5761   1427.35474     335.8043     271.5761
   1427.33948     337.3465     273.2138   1427.33948     337.3465     273.2138
   1427.32422     339.4202     274.5042   1427.32422     339.4202     274.5042
   1427.30896     340.5903     276.0692   1427.30896     340.5903     276.0692
   1427.29370     343.2699     277.3883   1427.29370     343.2699     277.3883
   1427.27844     344.5433     278.9016   1427.27844     344.5433     278.9016
   1427.26318     346.9831     280.7419   1427.26318     346.9831     280.7419
   1427.24792     348.9897     282.5580   1427.24792     348.9897     282.5580
   1427.23267     350.1891     283.3373   1427.23267     350.1891     283.3373
   1427.21741     352.1823     285.7584   1427.21741     352.1823     285.7584
   1427.20215     354.4461     286.8109   1427.20215     354.4461     286.8109
   1427.18689     356.7183     288.8607   1427.18689     356.7183     288.8607
   1427.17163     358.5615     289.6270   1427.17163     358.5615     289.6270
   1427.15637     360.8849     291.8383   1427.15637     360.8849     291.8383
   1427.14111     362.5708     293.8855   1427.14111     362.5708     293.8855
   1427.12585     365.1196     295.0231   1427.12585     365.1196     295.0231
   1427.11060     367.4164     296.8741   1427.11060     367.4164     296.8741
   1427.09534     369.8267     298.2887   1427.09534     369.8267     298.2887
   1427.08008     371.3886     300.7733   1427.08008     371.3886     300.7733
   1427.06482     373.7747     302.1234   1427.06482     373.7747     302.1234
   1427.04956     376.8617     304.1790   1427.04956     376.8617     304.1790
   1427.03430     378.5490     305.8087   1427.03430     378.5490     305.8087
   1427.01904     381.0140     307.1890   1427.01904     381.0140     307.1890
   1427.00378     382.9556     308.9556   1427.00378     382.9556     308.9556
   1426.98853     385.2974     310.9909   1426.98853     385.2974     310.9909
   1426.97327     387.5496     312.8272   1426.97327     387.5496     312.8272
   1426.95801     390.2396     314.6689   1426.95801     390.2396     314.6689
   1426.94275     393.0967     316.1861   1426.94275     393.0967     316.1861
   1426.92749     395.2461     317.8391   1426.92749     395.2461     317.8391
   1426.91223     397.2236     319.8203   1426.91223     397.2236     319.8203
   1426.89697     399.4821     321.2008   1426.89697     399.4821     321.2008
   1426.88171     402.3683     323.8391   1426.88171     402.3683     323.8391
   1426.86646     404.8925     325.3665   1426.86646     404.8925     325.3665
   1426.85120     406.9539     326.9801   1426.85120     406.9539     326.9801
   1426.83594     409.8781     329.8077   1426.83594     409.8781     329.8077
   1426.82068     411.4485     331.2077   1426.82068     411.4485     331.2077
   1426.80542     414.7778     332.9243   1426.80542     414.7778     332.9243
   1426.79016     417.4792     335.1163   1426.79016     417.4792     335.1163
   1426.77490     419.6976     336.7454   1426.77490     419.6976     336.7454
   1426.75964     421.5259     338.4857   1426.75964     421.5259     338.4857
   1426.74438     424.6010     340.2545   1426.74438     424.6010     340.2545
   1426.72913     426.8477     342.1025   1426.72913     426.8477     342.1025
   1426.71387     430.1228     344.0163   1426.71387     430.1228     344.0163
   1426.69861     432.4688     346.0196   1426.69861     432.4688     346.0196
   1426.68335     434.9604     348.5689   1426.68335     434.9604     348.5689
   1426.66809     436.4420     349.5379   1426.66809     436.4420     349.5379
   1426.65283     438.8198     351.6009   1426.65283     438.8198     351.6009
   1426.63757     442.4910     353.6558   1426.63757     442.4910     353.6558
   1426.62231     447.3151     357.2598   1426.62231     447.3151     357.2598
   1426.60706     447.3947     357.0946   1426.60706     447.3947     357.0946
   1426.59180     449.4019     359.0521   1426.59180     449.4019     359.0521
   1426.57654     452.2729     361.8475   1426.57654     452.2729     361.8475
   1426.56128     454.0876     362.7747   1426.56128     454.0876     362.7747
   1426.54602     456.9729     364.5793   1426.54602     456.9729     364.5793
   1426.53076     459.2791     366.7015   1426.53076     459.2791     366.7015
   1426.51550     461.6796     368.5802   1426.51550     461.6796     368.5802
   1426.50024     464.3734     370.3391   1426.50024     464.3734     370.3391
   1426.48499     467.4386     371.6953   1426.48499     467.4386     371.6953
   1426.46973     469.8187     373.9620   1426.46973     469.8187     373.9620
   1426.45447     471.9289     374.7110   1426.45447     471.9289     374.7110
   1426.43921     474.0916     377.9468   1426.43921     474.0916     377.9468
   1426.42395     476.9961     378.9314   1426.42395     476.9961     378.9314
   1426.40869     478.5540     381.3502   1426.40869     478.5540     381.3502
   1426.39343     481.5924     382.7721   1426.39343     481.5924     382.7721
   1426.37817     484.2165     384.7578   1426.37817     484.2165     384.7578
   1426.36292     486.2776     386.3585   1426.36292     486.2776     386.3585
   1426.34766     488.4975     388.1304   1426.34766     488.4975     388.1304
   1426.33240     490.9378     389.9853   1426.33240     490.9378     389.9853
   1426.31714     493.0419     391.3969   1426.31714     493.0419     391.3969
   1426.30188     495.4138     392.9622   1426.30188     495.4138     392.9622
   1426.28662     497.7138     395.5620   1426.28662     497.7138     395.5620
   1426.27136     500.1464     396.2346   1426.27136     500.1464     396.2346
   1426.25610     502.3810     398.3909   1426.25610     502.3810     398.3909
   1426.24084     504.3748     399.6161   1426.24084     504.3748     399.6161
   1426.22559     507.4189     401.3369   1426.22559     507.4189     401.3369
   1426.21033     509.0572     403.2319   1426.21033     509.0572     403.2319
   1426.19507     510.6733     404.9365   1426.19507     510.6733     404.9365
   1426.17981     513.7923     406.0918   1426.17981     513.7923     406.0918
   1426.16455     515.0737     407.7623   1426.16455     515.0737     407.7623
   1426.14929     517.6449     409.4752   1426.14929     517.6449     409.4752
   1426.13403     519.4930     411.6949   1426.13403     519.4930     411.6949
   1426.11877     521.5988     412.5551   1426.11877     521.5988     412.5551
   1426.10352     523.9488     413.8115   1426.10352     523.9488     413.8115
   1426.08826     525.8935     415.6583   1426.08826     525.8935     415.6583
   1426.07300     527.9688     417.3955   1426.07300     527.9688     417.3955
   1426.05774     529.3723     418.3654   1426.05774     529.3723     418.3654
   1426.04248     531.3099     420.5099   1426.04248     531.3099     420.5099
   1426.02722     534.4217     421.3436   1426.02722     534.4217     421.3436
   1426.01196     535.5763     422.9286   1426.01196     535.5763     422.9286
   1425.99670     538.2612     424.0804   1425.99670     538.2612     424.0804
   1425.98145     539.2091     425.9365   1425.98145     539.2091     425.9365
   1425.96619     541.8579     428.0796   1425.96619     541.8579     428.0796
   1425.95093     542.4660     428.6147   1425.95093     542.4660     428.6147
   1425.93567     544.9694     430.4666   1425.93567     544.9694     430.4666
   1425.92041     547.2581     431.6748   1425.92041     547.2581     431.6748
   1425.90515     549.7094     433.2628   1425.90515     549.7094     433.2628
   1425.88989     550.4723     434.1724   1425.88989     550.4723     434.1724
   1425.87463     552.7280     436.1783   1425.87463     552.7280     436.1783
   1425.85938     553.8581     437.3856   1425.85938     553.8581     437.3856
   1425.84412     555.4243     439.0489   1425.84412     555.4243     439.0489
   1425.82886     556.8519     440.6127   1425.82886     556.8519     440.6127
   1425.81360     558.8051     440.8907   1425.81360     558.8051     440.8907
   1425.79834     561.0094     442.9320   1425.79834     561.0094     442.9320
   1425.78308     562.1464     444.2363   1425.78308     562.1464     444.2363
   1425.76782     562.8428     445.1592   1425.76782     562.8428     445.1592
   1425.75256     565.2012     446.0296   1425.75256     565.2012     446.0296
   1425.73730     566.6783     447.2037   1425.73730     566.6783     447.2037
   1425.72205     567.5626     448.6089   1425.72205     567.5626     448.6089
   1425.70679     569.6318     450.1818   1425.70679     569.6318     450.1818
   1425.69153     570.5660     450.8152   1425.69153     570.5660     450.8152
   1425.67627     572.3943     451.7725   1425.67627     572.3943     451.7725
   1425.66101     573.4772     453.8014   1425.66101     573.4772     453.8014
   1425.64575     573.9191     455.6788   1425.64575     573.9191     455.6788
   1425.63049     576.7626     455.3260   1425.63049     576.7626     455.3260
   1425.61523     577.6753     456.5408   1425.61523     577.6753     456.5408
   1425.59998     578.1595     458.5845   1425.59998     578.1595     458.5845
   1425.58472     579.3860     459.7648   1425.58472     579.3860     459.7648
   1425.56946     580.2412     460.9710   1425.56946     580.2412     460.9710
   1425.55420     582.4346     461.7006   1425.55420     582.4346     461.7006
   1425.53894     582.4854     462.8837   1425.53894     582.4854     462.8837
   1425.52368     584.8091     463.6117   1425.52368     584.8091     463.6117
   1425.50842     585.4984     464.9146   1425.50842     585.4984     464.9146
   1425.49316     586.0689     465.7553   1425.49316     586.0689     465.7553
   1425.47791     587.9420     467.6003   1425.47791     587.9420     467.6003
   1425.46265     587.9277     467.5742   1425.46265     587.9277     467.5742
   1425.44739     589.1342     469.7210   1425.44739     589.1342     469.7210
   1425.43213     589.9973     470.4160   1425.43213     589.9973     470.4160
   1425.41687     591.9352     471.0999   1425.41687     591.9352     471.0999
   1425.40161     592.5778     472.1290   1425.40161     592.5778     472.1290
   1425.38635     593.9248     472.7263   1425.38635     593.9248     472.7263
   1425.37109     593.9510     474.8688   1425.37109     593.9510     474.8688
   1425.35583     595.0426     475.1245   1425.35583     595.0426     475.1245
   1425.34058     595.0008     476.1302   1425.34058     595.0008     476.1302
   1425.32532     596.0366     477.3653   1425.32532     596.0366     477.3653
   1425.31006     596.8580     477.7783   1425.31006     596.8580     477.7783
   1425.29480     597.8120     478.9684   1425.29480     597.8120     478.9684
   1425.27954     598.3973     479.8892   1425.27954     598.3973     479.8892
   1425.26428     598.7193     480.4876   1425.26428     598.7193     480.4876
   1425.24902     600.6461     481.5414   1425.24902     600.6461     481.5414
   1425.23376     601.2617     482.3599   1425.23376     601.2617     482.3599
   1425.21851     601.8782     483.6609   1425.21851     601.8782     483.6609
   1425.20325     601.6000     484.3242   1425.20325     601.6000     484.3242
   1425.18799     602.7487     485.4400   1425.18799     602.7487     485.4400
   1425.17273     604.2092     486.5766   1425.17273     604.2092     486.5766
   1425.15747     604.0380     487.5409   1425.15747     604.0380     487.5409
   1425.14221     604.3295     487.3474   1425.14221     604.3295     487.3474
   1425.12695     604.3387     488.4607   1425.12695     604.3387     488.4607
   1425.11169     604.9874     488.9987   1425.11169     604.9874     488.9987
   1425.09644     605.1837     489.8038   1425.09644     605.1837     489.8038
   1425.08118     605.8319     491.1950   1425.08118     605.8319     491.1950
   1425.06592     606.3528     491.4937   1425.06592     606.3528     491.4937
   1425.05066     606.5573     492.0022   1425.05066     606.5573     492.0022
   1425.03540     607.4641     492.7142   1425.03540     607.4641     492.7142
   1425.02014     607.5704     493.9176   1425.02014     607.5704     493.9176
   1425.00488     607.9024     494.6776   1425.00488     607.9024     494.6776
   1424.98962     608.6221     496.1035   1424.98962     608.6221     496.1035
   1424.97437     608.1173     496.0661   1424.97437     608.1173     496.0661
   1424.95911     608.6915     497.2901   1424.95911     608.6915     497.2901
   1424.94385     609.1968     498.8916   1424.94385     609.1968     498.8916
   1424.92859     608.6712     498.7402   1424.92859     608.6712     498.7402
   1424.91333     609.1832     499.7502   1424.91333     609.1832     499.7502
   1424.89807     610.6182     500.3188   1424.89807     610.6182     500.3188
   1424.88281     609.3150     500.7701   1424.88281     609.3150     500.7701
   1424.86755     610.6097     501.4697   1424.86755     610.6097     501.4697
   1424.85229     610.6520     502.6434   1424.85229     610.6520     502.6434
   1424.83704     610.5547     502.5666   1424.83704     610.5547     502.5666
   1424.82178     611.6581     503.9406   1424.82178     611.6581     503.9406
   1424.80652     610.5607     504.7773   1424.80652     610.5607     504.7773
   1424.79126     611.4723     504.8244   1424.79126     611.4723     504.8244
   1424.77600     611.9225     505.7149   1424.77600     611.9225     505.7149
   1424.76074     611.9036     506.0043   1424.76074     611.9036     506.0043
   1424.74548     610.6647     506.9745   1424.74548     610.6647     506.9745
   1424.73022     611.3435     506.8889   1424.73022     611.3435     506.8889
   1424.71497     611.9545     508.0566   1424.71497     611.9545     508.0566
   1424.69971     612.0006     509.2039   1424.69971     612.0006     509.2039
   1424.68445     611.8136     509.7329   1424.68445     611.8136     509.7329
   1424.66919     611.7078     509.4068   1424.66919     611.7078     509.4068
   1424.65393     612.2794     509.8795   1424.65393     612.2794     509.8795
   1424.63867     612.0983     511.2272   1424.63867     612.0983     511.2272
   1424.62341     612.2375     511.4537   1424.62341     612.2375     511.4537
   1424.60815     611.3975     512.9093   1424.60815     611.3975     512.9093
   1424.59290     611.4460     512.9982   1424.59290     611.4460     512.9982
   1424.57764     611.9234     513.0938   1424.57764     611.9234     513.0938
   1424.56238     611.5804     513.8945   1424.56238     611.5804     513.8945
   1424.54712     610.9030     514.7567   1424.54712     610.9030     514.7567
   1424.53186     611.6978     515.3767   1424.53186     611.6978     515.3767
   1424.51660     612.7410     516.2940   1424.51660     612.7410     516.2940
   1424.50134     611.4017     516.2053   1424.50134     611.4017     516.2053
   1424.48608     611.6420     517.5336   1424.48608     611.6420     517.5336
   1424.47083     610.7243     517.2901   1424.47083     610.7243     517.2901
   1424.45557     609.9557     518.5126   1424.45557     609.9557     518.5126
   1424.44031     611.1182     519.5719   1424.44031     611.1182     519.5719
   1424.42505     611.3140     519.1443   1424.42505     611.3140     519.1443
   1424.40979     610.8225     519.4351   1424.40979     610.8225     519.4351
   1424.39453     610.1083     520.6510   1424.39453     610.1083     520.6510
   1424.37927     609.5984     521.2484   1424.37927     609.5984     521.2484
   1424.36401     609.2859     521.4906   1424.36401     609.2859     521.4906
   1424.34875     610.0823     521.5423   1424.34875     610.0823     521.5423
   1424.33350     610.4388     522.4567   1424.33350     610.4388     522.4567
   1424.31824     610.2816     523.1599   1424.31824     610.2816     523.1599
   1424.30298     609.9514     523.1404   1424.30298     609.9514     523.1404
   1424.28772     608.6248     523.6124   1424.28772     608.6248     523.6124
   1424.27246     608.4708     523.3775   1424.27246     608.4708     523.3775
   1424.25720     609.2554     525.3748   1424.25720     609.2554     525.3748
   1424.24194     609.1414     525.5750   1424.24194     609.1414     525.5750
   1424.22668     608.7472     526.8046   1424.22668     608.7472     526.8046
   1424.21143     608.2027     526.5288   1424.21143     608.2027     526.5288
   1424.19617     608.9176     526.9402   1424.19617     608.9176     526.9402
   1424.18091     607.6949     527.6987   1424.18091     607.6949     527.6987
   1424.16565     608.5195     527.3092   1424.16565     608.5195     527.3092
   1424.15039     607.8110     528.1300   1424.15039     607.8110     528.1300
   1424.13513     607.0922     527.6492   1424.13513     607.0922     527.6492
   1424.11987     606.7437     529.3837   1424.11987     606.7437     529.3837
   1424.10461     606.7244     529.3550   1424.10461     606.7244     529.3550
   1424.08936     607.2554     530.5423   1424.08936     607.2554     530.5423
   1424.07410     607.1722     530.4852   1424.07410     607.1722     530.4852
   1424.05884     605.6784     531.3358   1424.05884     605.6784     531.3358
   1424.04358     605.0919     531.2945   1424.04358     605.0919     531.2945
   1424.02832     605.1445     532.4053   1424.02832     605.1445     532.4053
   1424.01306     605.8949     532.2863   1424.01306     605.8949     532.2863
   1423.99780     605.5798     533.7123   1423.99780     605.5798     533.7123
   1423.98254     605.3300     533.1682   1423.98254     605.3300     533.1682
   1423.96729     604.3385     533.6942   1423.96729     604.3385     533.6942
   1423.95203     604.4091     534.1468   1423.95203     604.4091     534.1468
   1423.93677     603.7220     534.0514   1423.93677     603.7220     534.0514
   1423.92151     603.9666     534.4156   1423.92151     603.9666     534.4156
   1423.90625     605.0922     535.1440   1423.90625     605.0922     535.1440
   1423.89099     604.4389     536.0029   1423.89099     604.4389     536.0029
   1423.87573     604.3804     536.7398   1423.87573     604.3804     536.7398
   1423.86047     603.8295     536.9653   1423.86047     603.8295     536.9653
   1423.84521     602.4316     536.9301   1423.84521     602.4316     536.9301
   1423.82996     601.9332     536.7712   1423.82996     601.9332     536.7712
   1423.81470     602.4937     537.1461   1423.81470     602.4937     537.1461
   1423.79944     602.4083     536.8685   1423.79944     602.4083     536.8685
   1423.78418     601.4950     537.3737   1423.78418     601.4950     537.3737
   1423.76892     602.9059     537.6702   1423.76892     602.9059     537.6702
   1423.75366     602.4829     538.4087   1423.75366     602.4829     538.4087
   1423.73840     601.5555     538.1926   1423.73840     601.5555     538.1926
   1423.72314     600.7771     538.8627   1423.72314     600.7771     538.8627
   1423.70789     601.0507     539.7244   1423.70789     601.0507     539.7244
   1423.69263     600.8285     539.6820   1423.69263     600.8285     539.6820
   1423.67737     599.9764     540.4941   1423.67737     599.9764     540.4941
   1423.66211     600.4097     540.1518   1423.66211     600.4097     540.1518
   1423.64685     599.6554     539.7003   1423.64685     599.6554     539.7003
   1423.63159     599.9824     540.4708   1423.63159     599.9824     540.4708
   1423.61633     599.8926     541.3649   1423.61633     599.8926     541.3649
   1423.60107     599.2567     541.5472   1423.60107     599.2567     541.5472
   1423.58582     598.9905     541.7193   1423.58582     598.9905     541.7193
   1423.57056     599.3217     542.0900   1423.57056     599.3217     542.0900
   1423.55530     598.6540     542.4401   1423.55530     598.6540     542.4401
   1423.54004     598.6025     541.7783   1423.54004     598.6025     541.7783
   1423.52478     598.1042     541.9894   1423.52478     598.1042     541.9894
   1423.50952     597.8616     542.0995   1423.50952     597.8616     542.0995
   1423.49426     597.6597     541.4760   1423.49426     597.6597     541.4760
   1423.47900     597.3798     542.5421   1423.47900     597.3798     542.5421
   1423.46375     597.8881     541.8569   1423.46375     597.8881     541.8569
   1423.44849     597.1265     542.0382   1423.44849     597.1265     542.0382
   1423.43323     598.1251     542.0169   1423.43323     598.1251     542.0169
   1423.41797     597.2615     542.4011   1423.41797     597.2615     542.4011
   1423.40271     596.2180     542.5078   1423.40271     596.2180     542.5078
   1423.38745     595.8884     543.7917   1423.38745     595.8884     543.7917
   1423.37219     597.1614     543.8569   1423.37219     597.1614     543.8569
   1423.35693     596.0231     542.9150   1423.35693     596.0231     542.9150
   1423.34167     595.8464     542.6134   1423.34167     595.8464     542.6134
   1423.32642     596.2866     543.3141   1423.32642     596.2866     543.3141
   1423.31116     595.1954     542.9024   1423.31116     595.1954     542.9024
   1423.29590     595.3734     543.1844   1423.29590     595.3734     543.1844
   1423.28064     595.2331     542.9750   1423.28064     595.2331     542.9750
   1423.26538     595.4482     542.9401   1423.26538     595.4482     542.9401
   1423.25012     595.4022     541.9723   1423.25012     595.4022     541.9723
   1423.23486     594.7805     542.9239   1423.23486     594.7805     542.9239
   1423.21960     593.7684     542.8942   1423.21960     593.7684     542.8942
   1423.20435     593.6853     542.9523   1423.20435     593.6853     542.9523
   1423.18909     594.5951     542.8223   1423.18909     594.5951     542.8223
   1423.17383     593.3620     542.2508   1423.17383     593.3620     542.2508
   1423.15857     594.1294     542.1778   1423.15857     594.1294     542.1778
   1423.14331     593.5516     542.1713   1423.14331     593.5516     542.1713
   1423.12805     593.0088     541.6986   1423.12805     593.0088     541.6986
   1423.11279     592.9646     541.2624   1423.11279     592.9646     541.2624
   1423.09753     592.8327     541.5880   1423.09753     592.8327     541.5880
   1423.08228     593.1742     541.5872   1423.08228     593.1742     541.5872
   1423.06702     593.0534     541.1102   1423.06702     593.0534     541.1102
   1423.05176     592.0910     541.0889   1423.05176     592.0910     541.0889
   1423.03650     592.2604     540.9296   1423.03650     592.2604     540.9296
   1423.02124     592.1891     540.1622   1423.02124     592.1891     540.1622
   1423.00598     591.6775     539.7743   1423.00598     591.6775     539.7743
   1422.99072     591.4356     539.8077   1422.99072     591.4356     539.8077
   1422.97546     591.1896     539.3094   1422.97546     591.1896     539.3094
   1422.96021     591.5529     539.3037   1422.96021     591.5529     539.3037
   1422.94495     591.0255     538.2833   1422.94495     591.0255     538.2833
   1422.92969     589.6469     538.4517   1422.92969     589.6469     538.4517
   1422.91443     590.5777     538.7592   1422.91443     590.5777     538.7592
   1422.89917     590.7535     538.7654   1422.89917     590.7535     538.7654
   1422.88391     590.6281     537.6489   1422.88391     590.6281     537.6489
   1422.86865     590.0938     536.1597   1422.86865     590.0938     536.1597
   1422.85339     589.2137     535.9069   1422.85339     589.2137     535.9069
   1422.83813     589.1949     535.5403   1422.83813     589.1949     535.5403
   1422.82288     588.0334     536.3222   1422.82288     588.0334     536.3222
   1422.80762     589.0746     534.7469   1422.80762     589.0746     534.7469
   1422.79236     589.6871     535.0552   1422.79236     589.6871     535.0552
   1422.77710     588.6820     534.7286   1422.77710     588.6820     534.7286
   1422.76184     588.4863     534.2774   1422.76184     588.4863     534.2774
   1422.74658     588.2559     533.4957   1422.74658     588.2559     533.4957
   1422.73132     588.1801     532.3075   1422.73132     588.1801     532.3075
   1422.71606     588.1734     532.3623   1422.71606     588.1734     532.3623
   1422.70081     588.5631     531.8200   1422.70081     588.5631     531.8200
   1422.68555     588.3259     530.6328   1422.68555     588.3259     530.6328
   1422.67029     587.8647     530.1295   1422.67029     587.8647     530.1295
   1422.65503     587.8663     529.4340   1422.65503     587.8663     529.4340
   1422.63977     588.1761     529.1317   1422.63977     588.1761     529.1317
   1422.62451     586.7292     528.6602   1422.62451     586.7292     528.6602
   1422.60925     588.1884     527.9419   1422.60925     588.1884     527.9419
   1422.59399     586.4155     527.0945   1422.59399     586.4155     527.0945
   1422.57874     587.3258     526.3442   1422.57874     587.3258     526.3442
   1422.56348     586.2582     524.3220   1422.56348     586.2582     524.3220
   1422.54822     587.2876     524.6975   1422.54822     587.2876     524.6975
   1422.53296     586.1141     523.9020   1422.53296     586.1141     523.9020
   1422.51770     585.5136     523.3451   1422.51770     585.5136     523.3451
   1422.50244     586.5255     522.0571   1422.50244     586.5255     522.0571
   1422.48718     586.3876     522.0519   1422.48718     586.3876     522.0519
   1422.47192     585.8055     521.5701   1422.47192     585.8055     521.5701
   1422.45667     586.3844     521.1226   1422.45667     586.3844     521.1226
   1422.44141     586.4871     519.0757   1422.44141     586.4871     519.0757
   1422.42615     585.3854     519.1227   1422.42615     585.3854     519.1227
   1422.41089     584.9916     517.7191   1422.41089     584.9916     517.7191
   1422.39563     585.4314     517.2119   1422.39563     585.4314     517.2119
   1422.38037     584.6560     515.8886   1422.38037     584.6560     515.8886
   1422.36511     585.1589     515.9599   1422.36511     585.1589     515.9599
   1422.34985     583.9805     514.9906   1422.34985     583.9805     514.9906
   1422.33459     584.3623     513.9263   1422.33459     584.3623     513.9263
   1422.31934     584.2406     513.1249   1422.31934     584.2406     513.1249
   1422.30408     583.8787     512.0684   1422.30408     583.8787     512.0684
   1422.28882     583.9979     511.1277   1422.28882     583.9979     511.1277
   1422.27356     582.8767     510.4131   1422.27356     582.8767     510.4131
   1422.25830     582.9300     509.2284   1422.25830     582.9300     509.2284
   1422.24304     583.3025     508.8279   1422.24304     583.3025     508.8279
   1422.22778     582.6885     507.6409   1422.22778     582.6885     507.6409
   1422.21252     583.6476     506.9169   1422.21252     583.6476     506.9169
   1422.19727     582.9017     504.6617   1422.19727     582.9017     504.6617
   1422.18201     582.6774     503.7639   1422.18201     582.6774     503.7639
   1422.16675     582.6125     503.0473   1422.16675     582.6125     503.0473
   1422.15149     582.5009     502.2881   1422.15149     582.5009     502.2881
   1422.13623     583.5883     501.2531   1422.13623     583.5883     501.2531
   1422.12097     582.1556     500.2372   1422.12097     582.1556     500.2372
   1422.10571     582.4691     498.9240   1422.10571     582.4691     498.9240
   1422.09045     581.7823     497.5805   1422.09045     581.7823     497.5805
   1422.07520     581.8974     497.2040   1422.07520     581.8974     497.2040
   1422.05994     581.6276     496.0996   1422.05994     581.6276     496.0996
   1422.04468     581.0614     494.3990   1422.04468     581.0614     494.3990
   1422.02942     580.5892     493.2332   1422.02942     580.5892     493.2332
   1422.01416     580.7150     492.1939   1422.01416     580.7150     492.1939
   1421.99890     581.2314     491.8438   1421.99890     581.2314     491.8438
   1421.98364     580.1397     490.5551   1421.98364     580.1397     490.5551
   1421.96838     580.0110     489.6539   1421.96838     580.0110     489.6539
   1421.95312     579.9726     488.4855   1421.95312     579.9726     488.4855
   1421.93787     580.6602     487.2514   1421.93787     580.6602     487.2514
   1421.92261     579.8184     486.2542   1421.92261     579.8184     486.2542
   1421.90735     580.8094     484.8196   1421.90735     580.8094     484.8196
   1421.89209     578.7603     483.7833   1421.89209     578.7603     483.7833
   1421.87683     578.9777     481.8571   1421.87683     578.9777     481.8571
   1421.86157     579.6450     481.8609   1421.86157     579.6450     481.8609
   1421.84631     579.6702     480.7202   1421.84631     579.6702     480.7202
   1421.83105     578.3292     479.8413   1421.83105     578.3292     479.8413
   1421.81580     578.8001     477.7626   1421.81580     578.8001     477.7626
   1421.80054     579.1532     476.9373   1421.80054     579.1532     476.9373
   1421.78528     579.3701     475.8361   1421.78528     579.3701     475.8361
   1421.77002     578.2322     474.6149   1421.77002     578.2322     474.6149
   1421.75476     578.1783     473.0658   1421.75476     578.1783     473.0658
   1421.73950     577.6413     472.2094   1421.73950     577.6413     472.2094
   1421.72424     578.7576     471.2065   1421.72424     578.7576     471.2065
   1421.70898     578.0093     470.1030   1421.70898     578.0093     470.1030
   1421.69373     577.9397     468.3329   1421.69373     577.9397     468.3329
   1421.67847     577.4312     467.2520   1421.67847     577.4312     467.2520
   1421.66321     576.8563     466.7372   1421.66321     576.8563     466.7372
   1421.64795     576.9613     465.2024   1421.64795     576.9613     465.2024
   1421.63269     576.8757     464.1444   1421.63269     576.8757     464.1444
   1421.61743     576.8106     462.6728   1421.61743     576.8106     462.6728
   1421.60217     576.7457     461.4652   1421.60217     576.7457     461.4652
   1421.58691     577.0762     460.6160   1421.58691     577.0762     460.6160
   1421.57166     577.0908     459.8902   1421.57166     577.0908     459.8902
   1421.55640     576.9847     458.2874   1421.55640     576.9847     458.2874
   1421.54114     576.2532     457.2145   1421.54114     576.2532     457.2145
   1421.52588     576.3118     455.4051   1421.52588     576.3118     455.4051
   1421.51062     576.1653     454.1317   1421.51062     576.1653     454.1317
   1421.49536     575.7493     453.1257   1421.49536     575.7493     453.1257
   1421.48010     575.2911     450.9318   1421.48010     575.2911     450.9318
   1421.46484     575.4175     450.9233   1421.46484     575.4175     450.9233
   1421.44958     574.9453     449.7365   1421.44958     574.9453     449.7365
   1421.43433     574.5396     448.7591   1421.43433     574.5396     448.7591
   1421.41907     574.3856     447.1363   1421.41907     574.3856     447.1363
   1421.40381     575.8711     445.6559   1421.40381     575.8711     445.6559
   1421.38855     574.7535     444.2117   1421.38855     574.7535     444.2117
   1421.37329     575.2065     443.7510   1421.37329     575.2065     443.7510
   1421.35803     574.3326     441.9090   1421.35803     574.3326     441.9090
   1421.34277     575.2433     441.0960   1421.34277     575.2433     441.0960
   1421.32751     574.4333     440.5839   1421.32751     574.4333     440.5839
   1421.31226     574.4414     439.2926   1421.31226     574.4414     439.2926
   1421.29700     574.2654     438.1286   1421.29700     574.2654     438.1286
   1421.28174     574.6711     437.2148   1421.28174     574.6711     437.2148
   1421.26648     575.4500     435.6564   1421.26648     575.4500     435.6564
   1421.25122     574.9985     435.5103   1421.25122     574.9985     435.5103
   1421.23596     575.9522     434.9512   1421.23596     575.9522     434.9512
   1421.22070     575.5911     434.0661   1421.22070     575.5911     434.0661
   1421.20544     576.4844     433.7050   1421.20544     576.4844     433.7050
   1421.19019     579.6376     433.4877   1421.19019     579.6376     433.4877
   1421.17493     581.8777     434.0104   1421.17493     581.8777     434.0104
   1421.15967     585.7816     436.2158   1421.15967     585.7816     436.2158
   1421.14441     590.9573     439.7910   1421.14441     590.9573     439.7910
   1421.12915     600.0880     444.2515   1421.12915     600.0880     444.2515
   1421.11389     611.7688     451.5317   1421.11389     611.7688     451.5317
   1421.09863     624.7421     460.8631   1421.09863     624.7421     460.8631
   1421.08337     640.3256     470.5978   1421.08337     640.3256     470.5978
   1421.06812     659.6845     484.5208   1421.06812     659.6845     484.5208
   1421.05286     690.9287     504.5785   1421.05286     690.9287     504.5785
   1421.03760     716.7640     521.7076   1421.03760     716.7640     521.7076
   1421.02234     729.0527     528.1412   1421.02234     729.0527     528.1412
   1421.00708     737.2522     533.1436   1421.00708     737.2522     533.1436
   1420.99182     725.9969     524.7079   1420.99182     725.9969     524.7079
   1420.97656     703.9615     508.3789   1420.97656     703.9615     508.3789
   1420.96130     696.7565     502.0117   1420.96130     696.7565     502.0117
   1420.94604     723.0192     519.7712   1420.94604     723.0192     519.7712
   1420.93079     799.0107     572.0647   1420.93079     799.0107     572.0647
   1420.91553     929.8903     660.4572   1420.91553     929.8903     660.4572
   1420.90027    1078.1227     762.2438   1420.90027    1078.1227     762.2438
   1420.88501    1192.3199     838.3563   1420.88501    1192.3199     838.3563
   1420.86975    1262.3535     887.0473   1420.86975    1262.3535     887.0473
   1420.85449    1285.3666     900.4626   1420.85449    1285.3666     900.4626
   1420.83923    1243.1259     871.1193   1420.83923    1243.1259     871.1193
   1420.82397    1170.7402     815.3458   1420.82397    1170.7402     815.3458
   1420.80872    1158.3859     803.9741   1420.80872    1158.3859     803.9741
   1420.79346    1294.7279     892.1838   1420.79346    1294.7279     892.1838
   1420.77820    1500.7521    1031.8308   1420.77820    1500.7521    1031.8308
   1420.76294    1731.2036    1188.5734   1420.76294    1731.2036    1188.5734
   1420.74768    1835.8076    1253.8940   1420.74768    1835.8076    1253.8940
   1420.73242    1768.3927    1208.1777   1420.73242    1768.3927    1208.1777
   1420.71716    1725.1069    1175.4254   1420.71716    1725.1069    1175.4254
   1420.70190    1495.5792    1013.8664   1420.70190    1495.5792    1013.8664
   1420.68665    1246.4099     847.3796   1420.68665    1246.4099     847.3796
   1420.67139     992.6087     677.2468   1420.67139     992.6087     677.2468
   1420.65613     865.3676     590.8821   1420.65613     865.3676     590.8821
   1420.64087     876.2612     597.5947   1420.64087     876.2612     597.5947
   1420.62561    1020.6787     692.4198   1420.62561    1020.6787     692.4198
   1420.61035    1276.5133     861.4603   1420.61035    1276.5133     861.4603
   1420.59509    1484.7637     997.8455   1420.59509    1484.7637     997.8455
   1420.57983    1599.8132    1067.4705   1420.57983    1599.8132    1067.4705
   1420.56458    1679.7462    1117.7706   1420.56458    1679.7462    1117.7706
   1420.54932    1712.8927    1139.7748   1420.54932    1712.8927    1139.7748
   1420.53406    1688.6177    1120.8083   1420.53406    1688.6177    1120.8083
   1420.51880    1665.7908    1101.5431   1420.51880    1665.7908    1101.5431
   1420.50354    1395.7122     922.4096   1420.50354    1395.7122     922.4096
   1420.48828     992.3909     660.0562   1420.48828     992.3909     660.0562
   1420.47302     776.5868     517.6865   1420.47302     776.5868     517.6865
   1420.45776     669.2201     448.4648   1420.45776     669.2201     448.4648
   1420.44250     620.2203     415.3745   1420.44250     620.2203     415.3745
   1420.42725     597.3835     399.0495   1420.42725     597.3835     399.0495
   1420.41199     585.0187     390.8076   1420.41199     585.0187     390.8076
   1420.39673     579.3502     386.5365   1420.39673     579.3502     386.5365
   1420.38147     576.3218     384.3455   1420.38147     576.3218     384.3455
   1420.36621     573.8380     381.7795   1420.36621     573.8380     381.7795
   1420.35095     573.7656     380.0746   1420.35095     573.7656     380.0746
   1420.33569     573.9144     379.1599   1420.33569     573.9144     379.1599
   1420.32043     571.7698     379.1554   1420.32043     571.7698     379.1554
   1420.30518     572.3669     377.5529   1420.30518     572.3669     377.5529
   1420.28992     572.5389     376.5063   1420.28992     572.5389     376.5063
   1420.27466     572.1515     375.4513   1420.27466     572.1515     375.4513
   1420.25940     571.8022     375.1526   1420.25940     571.8022     375.1526
   1420.24414     570.7207     373.5137   1420.24414     570.7207     373.5137
   1420.22888     570.6642     372.8538   1420.22888     570.6642     372.8538
   1420.21362     571.3425     372.1188   1420.21362     571.3425     372.1188
   1420.19836     569.4938     371.0263   1420.19836     569.4938     371.0263
   1420.18311     568.9405     368.9453   1420.18311     568.9405     368.9453
   1420.16785     568.5243     368.6323   1420.16785     568.5243     368.6323
   1420.15259     567.2140     367.2420   1420.15259     567.2140     367.2420
   1420.13733     566.6866     367.3195   1420.13733     566.6866     367.3195
   1420.12207     565.7505     365.2551   1420.12207     565.7505     365.2551
   1420.10681     565.2892     364.2345   1420.10681     565.2892     364.2345
   1420.09155     565.6647     364.3651   1420.09155     565.6647     364.3651
   1420.07629     564.8540     364.3578   1420.07629     564.8540     364.3578
   1420.06104     564.8311     362.8641   1420.06104     564.8311     362.8641
   1420.04578     565.0862     362.6201   1420.04578     565.0862     362.6201
   1420.03052     565.2209     362.1170   1420.03052     565.2209     362.1170
   1420.01526     565.5482     361.7821   1420.01526     565.5482     361.7821
   1420.00000     565.9786     362.1653   1420.00000     565.9786     362.1653
   1419.98474     566.4092     362.5484   1419.98474     566.4092     362.5484
   1419.96948     566.2639     360.2757   1419.96948     566.2639     360.2757
   1419.95422     564.4727     359.1459   1419.95422     564.4727     359.1459
   1419.93896     565.1907     358.0381   1419.93896     565.1907     358.0381
   1419.92371     565.1012     357.9938   1419.92371     565.1012     357.9938
   1419.90845     565.0753     356.9275   1419.90845     565.0753     356.9275
   1419.89319     564.9577     356.5817   1419.89319     564.9577     356.5817
   1419.87793     565.2859     356.5072   1419.87793     565.2859     356.5072
   1419.86267     565.8536     355.7082   1419.86267     565.8536     355.7082
   1419.84741     565.9507     355.7655   1419.84741     565.9507     355.7655
   1419.83215     566.2950     355.6447   1419.83215     566.2950     355.6447
   1419.81689     565.7581     354.9027   1419.81689     565.7581     354.9027
   1419.80164     565.8756     354.6291   1419.80164     565.8756     354.6291
   1419.78638     566.5794     354.3359   1419.78638     566.5794     354.3359
   1419.77112     567.2929     354.2909   1419.77112     567.2929     354.2909
   1419.75586     566.3507     353.6458   1419.75586     566.3507     353.6458
   1419.74060     567.2157     352.8804   1419.74060     567.2157     352.8804
   1419.72534     566.8483     353.2255   1419.72534     566.8483     353.2255
   1419.71008     567.2249     352.7564   1419.71008     567.2249     352.7564
   1419.69482     567.6437     352.5370   1419.69482     567.6437     352.5370
   1419.67957     568.3297     352.5736   1419.67957     568.3297     352.5736
   1419.66431     568.6482     351.8608   1419.66431     568.6482     351.8608
   1419.64905     567.9827     352.2803   1419.64905     567.9827     352.2803
   1419.63379     568.4227     351.5284   1419.63379     568.4227     351.5284
   1419.61853     569.6323     351.6313   1419.61853     569.6323     351.6313
   1419.60327     568.8228     351.3755   1419.60327     568.8228     351.3755
   1419.58801     569.7266     351.0175   1419.58801     569.7266     351.0175
   1419.57275     569.6434     350.8593   1419.57275     569.6434     350.8593
   1419.55750     569.6877     350.9351   1419.55750     569.6877     350.9351
   1419.54224     571.1213     350.5129   1419.54224     571.1213     350.5129
   1419.52698     570.8790     350.4455   1419.52698     570.8790     350.4455
   1419.51172     571.5165     350.0635   1419.51172     571.5165     350.0635
   1419.49646     571.2983     350.1791   1419.49646     571.2983     350.1791
   1419.48120     571.9517     350.2713   1419.48120     571.9517     350.2713
   1419.46594     571.6573     350.1504   1419.46594     571.6573     350.1504
   1419.45068     571.2863     349.5261   1419.45068     571.2863     349.5261
   1419.43542     572.9199     350.2510   1419.43542     572.9199     350.2510
   1419.42017     572.7631     349.4311   1419.42017     572.7631     349.4311
   1419.40491     572.4955     349.7848   1419.40491     572.4955     349.7848
   1419.38965     572.9337     349.2299   1419.38965     572.9337     349.2299
   1419.37439     573.8434     349.5243   1419.37439     573.8434     349.5243
   1419.35913     573.6002     350.2600   1419.35913     573.6002     350.2600
   1419.34387     574.6380     349.9677   1419.34387     574.6380     349.9677
   1419.32861     575.1334     349.7679   1419.32861     575.1334     349.7679
   1419.31335     575.0087     349.9472   1419.31335     575.0087     349.9472
   1419.29810     575.0939     350.1245   1419.29810     575.0939     350.1245
   1419.28284     576.1505     349.1767   1419.28284     576.1505     349.1767
   1419.26758     576.3937     349.6207   1419.26758     576.3937     349.6207
   1419.25232     576.5939     349.6244   1419.25232     576.5939     349.6244
   1419.23706     577.0401     350.2621   1419.23706     577.0401     350.2621
   1419.22180     577.4961     349.7745   1419.22180     577.4961     349.7745
   1419.20654     577.2477     350.0300   1419.20654     577.2477     350.0300
   1419.19128     578.3433     349.8565   1419.19128     578.3433     349.8565
   1419.17603     578.4729     349.9636   1419.17603     578.4729     349.9636
   1419.16077     578.8730     350.6761   1419.16077     578.8730     350.6761
   1419.14551     579.9781     350.4270   1419.14551     579.9781     350.4270
   1419.13025     580.0313     350.3339   1419.13025     580.0313     350.3339
   1419.11499     579.7892     350.9716   1419.11499     579.7892     350.9716
   1419.09973     580.2589     350.9996   1419.09973     580.2589     350.9996
   1419.08447     582.2690     351.5849   1419.08447     582.2690     351.5849
   1419.06921     581.8311     351.1365   1419.06921     581.8311     351.1365
   1419.05396     581.7821     351.4911   1419.05396     581.7821     351.4911
   1419.03870     582.2172     351.1551   1419.03870     582.2172     351.1551
   1419.02344     583.1935     351.8256   1419.02344     583.1935     351.8256
   1419.00818     584.2454     352.1826   1419.00818     584.2454     352.1826
   1418.99292     584.0167     352.5219   1418.99292     584.0167     352.5219
   1418.97766     584.8225     352.7627   1418.97766     584.8225     352.7627
   1418.96240     584.2565     353.3651   1418.96240     584.2565     353.3651
   1418.94714     585.5118     353.2589   1418.94714     585.5118     353.2589
   1418.93188     585.8709     354.1509   1418.93188     585.8709     354.1509
   1418.91663     588.0424     353.5602   1418.91663     588.0424     353.5602
   1418.90137     587.2686     353.8714   1418.90137     587.2686     353.8714
   1418.88611     588.8357     353.8221   1418.88611     588.8357     353.8221
   1418.87085     588.9329     354.5759   1418.87085     588.9329     354.5759
   1418.85559     588.8064     355.0470   1418.85559     588.8064     355.0470
   1418.84033     589.2594     355.3956   1418.84033     589.2594     355.3956
   1418.82507     590.6359     355.9044   1418.82507     590.6359     355.9044
   1418.80981     591.4252     355.6824   1418.80981     591.4252     355.6824
   1418.79456     591.8194     356.7029   1418.79456     591.8194     356.7029
   1418.77930     591.5520     356.6861   1418.77930     591.5520     356.6861
   1418.76404     593.1979     357.2021   1418.76404     593.1979     357.2021
   1418.74878     592.9929     357.4308   1418.74878     592.9929     357.4308
   1418.73352     593.5375     358.0175   1418.73352     593.5375     358.0175
   1418.71826     594.4365     358.7720   1418.71826     594.4365     358.7720
   1418.70300     594.8304     358.5778   1418.70300     594.8304     358.5778
   1418.68774     594.0295     358.6356   1418.68774     594.0295     358.6356
   1418.67249     595.0966     359.7058   1418.67249     595.0966     359.7058
   1418.65723     597.2556     360.3005   1418.65723     597.2556     360.3005
   1418.64197     597.3994     361.1714   1418.64197     597.3994     361.1714
   1418.62671     596.9374     361.4653   1418.62671     596.9374     361.4653
   1418.61145     598.6310     361.3239   1418.61145     598.6310     361.3239
   1418.59619     599.9250     361.4328   1418.59619     599.9250     361.4328
   1418.58093     598.7639     362.4149   1418.58093     598.7639     362.4149
   1418.56567     599.3046     362.4823   1418.56567     599.3046     362.4823
   1418.55042     601.2580     362.9361   1418.55042     601.2580     362.9361
   1418.53516     601.4342     363.9825   1418.53516     601.4342     363.9825
   1418.51990     601.8745     364.8769   1418.51990     601.8745     364.8769
   1418.50464     603.1761     365.1003   1418.50464     603.1761     365.1003
   1418.48938     603.1263     365.3191   1418.48938     603.1263     365.3191
   1418.47412     604.2412     366.4821   1418.47412     604.2412     366.4821
   1418.45886     605.1344     366.8999   1418.45886     605.1344     366.8999
   1418.44360     605.3821     367.0327   1418.44360     605.3821     367.0327
   1418.42834     606.3079     367.5952   1418.42834     606.3079     367.5952
   1418.41309     607.8192     368.3188   1418.41309     607.8192     368.3188
   1418.39783     607.4850     369.0999   1418.39783     607.4850     369.0999
   1418.38257     607.4130     369.0042   1418.38257     607.4130     369.0042
   1418.36731     608.4899     369.4526   1418.36731     608.4899     369.4526
   1418.35205     610.3397     370.8294   1418.35205     610.3397     370.8294
   1418.33679     610.6215     371.3598   1418.33679     610.6215     371.3598
   1418.32153     611.1077     372.0601   1418.32153     611.1077     372.0601
   1418.30627     611.7587     372.4708   1418.30627     611.7587     372.4708
   1418.29102     611.4403     373.1090   1418.29102     611.4403     373.1090
   1418.27576     613.4600     374.2694   1418.27576     613.4600     374.2694
   1418.26050     614.1575     373.8492   1418.26050     614.1575     373.8492
   1418.24524     614.5068     375.0688   1418.24524     614.5068     375.0688
   1418.22998     615.3657     375.5683   1418.22998     615.3657     375.5683
   1418.21472     616.2547     376.0177   1418.21472     616.2547     376.0177
   1418.19946     616.4149     377.3820   1418.19946     616.4149     377.3820
   1418.18420     616.7097     377.2541   1418.18420     616.7097     377.2541
   1418.16895     617.8290     377.9392   1418.16895     617.8290     377.9392
   1418.15369     619.6052     378.3752   1418.15369     619.6052     378.3752
   1418.13843     619.4052     379.7019   1418.13843     619.4052     379.7019
   1418.12317     621.0371     380.1993   1418.12317     621.0371     380.1993
   1418.10791     621.1557     381.3372   1418.10791     621.1557     381.3372
   1418.09265     621.6971     381.9618   1418.09265     621.6971     381.9618
   1418.07739     622.6133     382.4722   1418.07739     622.6133     382.4722
   1418.06213     623.0399     382.9793   1418.06213     623.0399     382.9793
   1418.04688     624.5610     383.4627   1418.04688     624.5610     383.4627
   1418.03162     625.0510     384.1059   1418.03162     625.0510     384.1059
   1418.01636     625.3572     384.9289   1418.01636     625.3572     384.9289
   1418.00110     626.7846     385.5996   1418.00110     626.7846     385.5996
   1417.98584     627.5758     386.5281   1417.98584     627.5758     386.5281
   1417.97058     627.6753     387.3065   1417.97058     627.6753     387.3065
   1417.95532     629.2612     388.2488   1417.95532     629.2612     388.2488
   1417.94006     629.3809     389.3010   1417.94006     629.3809     389.3010
   1417.92480     629.5500     389.4291   1417.92480     629.5500     389.4291
   1417.90955     631.5829     390.8643   1417.90955     631.5829     390.8643
   1417.89429     631.6915     390.7294   1417.89429     631.6915     390.7294
   1417.87903     631.7941     392.0136   1417.87903     631.7941     392.0136
   1417.86377     633.4407     392.7649   1417.86377     633.4407     392.7649
   1417.84851     635.4752     393.5572   1417.84851     635.4752     393.5572
   1417.83325     633.8377     393.6573   1417.83325     633.8377     393.6573
   1417.81799     635.7660     394.9341   1417.81799     635.7660     394.9341
   1417.80273     636.6025     395.7833   1417.80273     636.6025     395.7833
   1417.78748     636.1705     395.8293   1417.78748     636.1705     395.8293
   1417.77222     637.1239     396.6645   1417.77222     637.1239     396.6645
   1417.75696     639.0121     397.2840   1417.75696     639.0121     397.2840
   1417.74170     637.8507     398.8272   1417.74170     637.8507     398.8272
   1417.72644     640.1761     398.6078   1417.72644     640.1761     398.6078
   1417.71118     640.2526     400.1177   1417.71118     640.2526     400.1177
   1417.69592     641.5065     401.2680   1417.69592     641.5065     401.2680
   1417.68066     641.7855     401.4150   1417.68066     641.7855     401.4150
   1417.66541     643.1841     402.4361   1417.66541     643.1841     402.4361
   1417.65015     644.0684     403.0690   1417.65015     644.0684     403.0690
   1417.63489     644.4953     403.8058   1417.63489     644.4953     403.8058
   1417.61963     644.6178     404.3693   1417.61963     644.6178     404.3693
   1417.60437     645.9525     405.2175   1417.60437     645.9525     405.2175
   1417.58911     645.5220     406.8544   1417.58911     645.5220     406.8544
   1417.57385     647.0917     406.8840   1417.57385     647.0917     406.8840
   1417.55859     648.8234     407.6556   1417.55859     648.8234     407.6556
   1417.54333     648.4401     408.9242   1417.54333     648.4401     408.9242
   1417.52808     649.7125     409.8908   1417.52808     649.7125     409.8908
   1417.51282     650.6992     409.8218   1417.51282     650.6992     409.8218
   1417.49756     649.1647     410.3523   1417.49756     649.1647     410.3523
   1417.48230     652.0851     411.5240   1417.48230     652.0851     411.5240
   1417.46704     651.7510     412.7326   1417.46704     651.7510     412.7326
   1417.45178     653.1708     412.6243   1417.45178     653.1708     412.6243
   1417.43652     654.2482     413.5652   1417.43652     654.2482     413.5652
   1417.42126     655.2689     413.9639   1417.42126     655.2689     413.9639
   1417.40601     654.9487     414.7847   1417.40601     654.9487     414.7847
   1417.39075     656.7959     415.5826   1417.39075     656.7959     415.5826
   1417.37549     656.5169     416.6787   1417.37549     656.5169     416.6787
   1417.36023     656.7791     417.4378   1417.36023     656.7791     417.4378
   1417.34497     659.0432     417.4574   1417.34497     659.0432     417.4574
   1417.32971     657.0477     418.0286   1417.32971     657.0477     418.0286
   1417.31445     659.0255     419.1425   1417.31445     659.0255     419.1425
   1417.29919     659.1194     419.6142   1417.29919     659.1194     419.6142
   1417.28394     660.3205     419.6081   1417.28394     660.3205     419.6081
   1417.26868     660.5187     420.7004   1417.26868     660.5187     420.7004
   1417.25342     660.5809     421.9932   1417.25342     660.5809     421.9932
   1417.23816     662.6614     421.7341   1417.23816     662.6614     421.7341
   1417.22290     663.1424     423.2099   1417.22290     663.1424     423.2099
   1417.20764     663.1903     423.1310   1417.20764     663.1903     423.1310
   1417.19238     663.7107     424.0076   1417.19238     663.7107     424.0076
   1417.17712     664.5215     424.4696   1417.17712     664.5215     424.4696
   1417.16187     664.3118     425.7804   1417.16187     664.3118     425.7804
   1417.14661     664.7052     426.5742   1417.14661     664.7052     426.5742
   1417.13135     666.0890     426.7393   1417.13135     666.0890     426.7393
   1417.11609     666.0825     426.7953   1417.11609     666.0825     426.7953
   1417.10083     666.9852     427.3246   1417.10083     666.9852     427.3246
   1417.08557     668.0393     428.0049   1417.08557     668.0393     428.0049
   1417.07031     668.2057     428.9585   1417.07031     668.2057     428.9585
   1417.05505     668.6686     428.6952   1417.05505     668.6686     428.6952
   1417.03979     669.3722     429.6024   1417.03979     669.3722     429.6024
   1417.02454     669.2678     430.8325   1417.02454     669.2678     430.8325
   1417.00928     670.2653     431.0265   1417.00928     670.2653     431.0265
   1416.99402     670.3644     430.9090   1416.99402     670.3644     430.9090
   1416.97876     671.7360     432.3600   1416.97876     671.7360     432.3600
   1416.96350     671.3531     432.2907   1416.96350     671.3531     432.2907
   1416.94824     671.3949     432.6093   1416.94824     671.3949     432.6093
   1416.93298     671.6122     432.8023   1416.93298     671.6122     432.8023
   1416.91772     672.3560     433.2008   1416.91772     672.3560     433.2008
   1416.90247     671.9698     433.7706   1416.90247     671.9698     433.7706
   1416.88721     672.9748     433.5298   1416.88721     672.9748     433.5298
   1416.87195     673.0826     434.0640   1416.87195     673.0826     434.0640
   1416.85669     673.6711     434.4617   1416.85669     673.6711     434.4617
   1416.84143     673.5467     435.9931   1416.84143     673.5467     435.9931
   1416.82617     674.3260     435.7558   1416.82617     674.3260     435.7558
   1416.81091     673.4622     435.2229   1416.81091     673.4622     435.2229
   1416.79565     674.0588     436.2046   1416.79565     674.0588     436.2046
   1416.78040     674.7197     436.1500   1416.78040     674.7197     436.1500
   1416.76514     675.3755     436.2066   1416.76514     675.3755     436.2066
   1416.74988     675.0441     436.6014   1416.74988     675.0441     436.6014
   1416.73462     675.6862     437.0334   1416.73462     675.6862     437.0334
   1416.71936     676.2719     437.6887   1416.71936     676.2719     437.6887
   1416.70410     676.2244     437.2498   1416.70410     676.2244     437.2498
   1416.68884     675.8297     437.7184   1416.68884     675.8297     437.7184
   1416.67358     676.4858     437.8587   1416.67358     676.4858     437.8587
   1416.65833     677.2681     438.0272   1416.65833     677.2681     438.0272
   1416.64307     676.6975     438.5484   1416.64307     676.6975     438.5484
   1416.62781     676.0522     438.2969   1416.62781     676.0522     438.2969
   1416.61255     676.9426     438.4105   1416.61255     676.9426     438.4105
   1416.59729     676.5091     438.5817   1416.59729     676.5091     438.5817
   1416.58203     676.1310     437.9852   1416.58203     676.1310     437.9852
   1416.56677     676.5506     438.0978   1416.56677     676.5506     438.0978
   1416.55151     676.7901     438.2786   1416.55151     676.7901     438.2786
   1416.53625     676.7511     438.6178   1416.53625     676.7511     438.6178
   1416.52100     676.4369     439.0644   1416.52100     676.4369     439.0644
   1416.50574     676.8417     438.4292   1416.50574     676.8417     438.4292
   1416.49048     676.9474     438.7785   1416.49048     676.9474     438.7785
   1416.47522     677.1065     438.2198   1416.47522     677.1065     438.2198
   1416.45996     676.1895     438.6305   1416.45996     676.1895     438.6305
   1416.44470     676.9615     438.5112   1416.44470     676.9615     438.5112
   1416.42944     676.7223     438.2249   1416.42944     676.7223     438.2249
   1416.41418     677.0916     438.1132   1416.41418     677.0916     438.1132
   1416.39893     675.9947     438.3816   1416.39893     675.9947     438.3816
   1416.38367     676.4440     438.4962   1416.38367     676.4440     438.4962
   1416.36841     676.6448     437.7215   1416.36841     676.6448     437.7215
   1416.35315     676.1025     437.7760   1416.35315     676.1025     437.7760
   1416.33789     675.8493     437.8762   1416.33789     675.8493     437.8762
   1416.32263     674.6141     436.8013   1416.32263     674.6141     436.8013
   1416.30737     675.2418     436.9907   1416.30737     675.2418     436.9907
   1416.29211     675.3980     436.2151   1416.29211     675.3980     436.2151
   1416.27686     674.9409     436.3504   1416.27686     674.9409     436.3504
   1416.26160     674.4322     436.3132   1416.26160     674.4322     436.3132
   1416.24634     675.2448     436.3620   1416.24634     675.2448     436.3620
   1416.23108     673.3226     436.0535   1416.23108     673.3226     436.0535
   1416.21582     673.1592     436.3104   1416.21582     673.1592     436.3104
   1416.20056     674.1485     435.2070   1416.20056     674.1485     435.2070
   1416.18530     672.9326     435.4554   1416.18530     672.9326     435.4554
   1416.17004     673.0822     434.7106   1416.17004     673.0822     434.7106
   1416.15479     673.0045     435.3162   1416.15479     673.0045     435.3162
   1416.13953     672.4414     433.8613   1416.13953     672.4414     433.8613
   1416.12427     673.0122     434.5236   1416.12427     673.0122     434.5236
   1416.10901     671.2953     434.4293   1416.10901     671.2953     434.4293
   1416.09375     670.8285     433.2368   1416.09375     670.8285     433.2368
   1416.07849     670.2362     433.3243   1416.07849     670.2362     433.3243
   1416.06323     670.7009     433.4438   1416.06323     670.7009     433.4438
   1416.04797     670.5284     433.0660   1416.04797     670.5284     433.0660
   1416.03271     670.2424     432.6895   1416.03271     670.2424     432.6895
   1416.01746     668.8519     431.5212   1416.01746     668.8519     431.5212
   1416.00220     670.1172     431.7444   1416.00220     670.1172     431.7444
   1415.98694     668.5574     431.7760   1415.98694     668.5574     431.7760
   1415.97168     668.5719     431.2120   1415.97168     668.5719     431.2120
   1415.95642     667.7497     429.7962   1415.95642     667.7497     429.7962
   1415.94116     667.3324     429.5562   1415.94116     667.3324     429.5562
   1415.92590     666.0436     429.4047   1415.92590     666.0436     429.4047
   1415.91064     665.3013     429.3894   1415.91064     665.3013     429.3894
   1415.89539     666.3917     429.3918   1415.89539     666.3917     429.3918
   1415.88013     664.4722     428.9666   1415.88013     664.4722     428.9666
   1415.86487     664.8342     427.3800   1415.86487     664.8342     427.3800
   1415.84961     664.6288     427.4176   1415.84961     664.6288     427.4176
   1415.83435     664.0344     427.9989   1415.83435     664.0344     427.9989
   1415.81909     663.2731     427.6037   1415.81909     663.2731     427.6037
   1415.80383     663.1367     427.1093   1415.80383     663.1367     427.1093
   1415.78857     661.2822     426.6139   1415.78857     661.2822     426.6139
   1415.77332     660.8997     425.2993   1415.77332     660.8997     425.2993
   1415.75806     661.0684     425.0230   1415.75806     661.0684     425.0230
   1415.74280     659.8772     424.7118   1415.74280     659.8772     424.7118
   1415.72754     658.3411     424.3112   1415.72754     658.3411     424.3112
   1415.71228     658.5682     423.6771   1415.71228     658.5682     423.6771
   1415.69702     657.5491     423.5104   1415.69702     657.5491     423.5104
   1415.68176     657.6002     422.9878   1415.68176     657.6002     422.9878
   1415.66650     656.3267     422.3594   1415.66650     656.3267     422.3594
   1415.65125     655.6334     421.8929   1415.65125     655.6334     421.8929
   1415.63599     655.3575     421.9915   1415.63599     655.3575     421.9915
   1415.62073     652.9749     420.9629   1415.62073     652.9749     420.9629
   1415.60547     653.1467     420.8016   1415.60547     653.1467     420.8016
   1415.59021     653.4951     419.4446   1415.59021     653.4951     419.4446
   1415.57495     651.9722     419.7709   1415.57495     651.9722     419.7709
   1415.55969     651.6542     418.3389   1415.55969     651.6542     418.3389
   1415.54443     650.6311     418.5087   1415.54443     650.6311     418.5087
   1415.52917     649.3707     417.5438   1415.52917     649.3707     417.5438
   1415.51392     649.1539     417.4860   1415.51392     649.1539     417.4860
   1415.49866     648.8637     417.0659   1415.49866     648.8637     417.0659
   1415.48340     646.6446     416.5304   1415.48340     646.6446     416.5304
   1415.46814     646.6221     415.7122   1415.46814     646.6221     415.7122
   1415.45288     644.6438     414.9729   1415.45288     644.6438     414.9729
   1415.43762     644.4318     414.8856   1415.43762     644.4318     414.8856
   1415.42236     643.3032     414.6386   1415.42236     643.3032     414.6386
   1415.40710     642.5742     413.6383   1415.40710     642.5742     413.6383
   1415.39185     642.1605     413.1880   1415.39185     642.1605     413.1880
   1415.37659     640.6715     412.5396   1415.37659     640.6715     412.5396
   1415.36133     640.0873     412.0191   1415.36133     640.0873     412.0191
   1415.34607     637.9092     411.6467   1415.34607     637.9092     411.6467
   1415.33081     636.6958     411.0193   1415.33081     636.6958     411.0193
   1415.31555     637.7213     410.2106   1415.31555     637.7213     410.2106
   1415.30029     636.1621     410.4599   1415.30029     636.1621     410.4599
   1415.28503     634.9980     408.8589   1415.28503     634.9980     408.8589
   1415.26978     633.8900     408.1378   1415.26978     633.8900     408.1378
   1415.25452     633.7466     407.8768   1415.25452     633.7466     407.8768
   1415.23926     632.5773     407.9390   1415.23926     632.5773     407.9390
   1415.22400     629.9037     406.8156   1415.22400     629.9037     406.8156
   1415.20874     629.8043     406.5656   1415.20874     629.8043     406.5656
   1415.19348     628.7827     405.8152   1415.19348     628.7827     405.8152
   1415.17822     626.2648     405.0175   1415.17822     626.2648     405.0175
   1415.16296     625.1348     404.9009   1415.16296     625.1348     404.9009
   1415.14771     624.7860     403.5849   1415.14771     624.7860     403.5849
   1415.13245     623.1020     402.7177   1415.13245     623.1020     402.7177
   1415.11719     622.8782     402.1703   1415.11719     622.8782     402.1703
   1415.10193     620.9942     402.1266   1415.10193     620.9942     402.1266
   1415.08667     619.8109     401.1347   1415.08667     619.8109     401.1347
   1415.07141     618.7755     400.0346   1415.07141     618.7755     400.0346
   1415.05615     616.7285     400.0553   1415.05615     616.7285     400.0553
   1415.04089     616.9351     398.9701   1415.04089     616.9351     398.9701
   1415.02563     614.8800     398.2772   1415.02563     614.8800     398.2772
   1415.01038     613.6971     397.9940   1415.01038     613.6971     397.9940
   1414.99512     611.8777     396.7525   1414.99512     611.8777     396.7525
   1414.97986     609.8777     395.4473   1414.97986     609.8777     395.4473
   1414.96460     609.8494     395.4083   1414.96460     609.8494     395.4083
   1414.94934     607.6111     395.1411   1414.94934     607.6111     395.1411
   1414.93408     606.9525     393.5488   1414.93408     606.9525     393.5488
   1414.91882     605.4464     392.4982   1414.91882     605.4464     392.4982
   1414.90356     603.6057     392.2245   1414.90356     603.6057     392.2245
   1414.88831     602.4981     391.8065   1414.88831     602.4981     391.8065
   1414.87305     601.2023     390.9178   1414.87305     601.2023     390.9178
   1414.85779     598.7456     390.5862   1414.85779     598.7456     390.5862
   1414.84253     598.0804     389.5623   1414.84253     598.0804     389.5623
   1414.82727     596.6425     388.5287   1414.82727     596.6425     388.5287
   1414.81201     593.9029     387.7273   1414.81201     593.9029     387.7273
   1414.79675     593.2446     386.8683   1414.79675     593.2446     386.8683
   1414.78149     591.5690     386.1793   1414.78149     591.5690     386.1793
   1414.76624     589.5502     385.1618   1414.76624     589.5502     385.1618
   1414.75098     588.1643     384.3839   1414.75098     588.1643     384.3839
   1414.73572     587.6303     383.9156   1414.73572     587.6303     383.9156
   1414.72046     585.0804     382.7395   1414.72046     585.0804     382.7395
   1414.70520     583.4876     381.9330   1414.70520     583.4876     381.9330
   1414.68994     582.4686     381.1814   1414.68994     582.4686     381.1814
   1414.67468     580.0927     380.0753   1414.67468     580.0927     380.0753
   1414.65942     578.8688     379.4137   1414.65942     578.8688     379.4137
   1414.64417     576.1859     377.7338   1414.64417     576.1859     377.7338
   1414.62891     574.6571     376.9639   1414.62891     574.6571     376.9639
   1414.61365     573.9459     376.0890   1414.61365     573.9459     376.0890
   1414.59839     570.7833     375.3226   1414.59839     570.7833     375.3226
   1414.58313     569.7399     374.4944   1414.58313     569.7399     374.4944
   1414.56787     568.0109     373.1648   1414.56787     568.0109     373.1648
   1414.55261     565.7119     372.1603   1414.55261     565.7119     372.1603
   1414.53735     563.9741     371.1601   1414.53735     563.9741     371.1601
   1414.52209     561.2911     369.8222   1414.52209     561.2911     369.8222
   1414.50684     560.3741     369.8002   1414.50684     560.3741     369.8002
   1414.49158     558.3026     368.3886   1414.49158     558.3026     368.3886
   1414.47632     557.0665     367.5438   1414.47632     557.0665     367.5438
   1414.46106     555.6040     365.9777   1414.46106     555.6040     365.9777
   1414.44580     552.6891     365.0566   1414.44580     552.6891     365.0566
   1414.43054     550.4963     364.3154   1414.43054     550.4963     364.3154
   1414.41528     548.5563     362.8550   1414.41528     548.5563     362.8550
   1414.40002     546.5764     362.0019   1414.40002     546.5764     362.0019
   1414.38477     545.1165     360.8032   1414.38477     545.1165     360.8032
   1414.36951     541.8466     359.3828   1414.36951     541.8466     359.3828
   1414.35425     539.9177     358.9329   1414.35425     539.9177     358.9329
   1414.33899     538.2263     357.7461   1414.33899     538.2263     357.7461
   1414.32373     535.6492     357.1564   1414.32373     535.6492     357.1564
   1414.30847     533.7722     355.4087   1414.30847     533.7722     355.4087
   1414.29321     532.1342     354.8365   1414.29321     532.1342     354.8365
   1414.27795     530.1036     352.9817   1414.27795     530.1036     352.9817
   1414.26270     528.0895     352.5934   1414.26270     528.0895     352.5934
   1414.24744     525.0421     351.0903   1414.24744     525.0421     351.0903
   1414.23218     523.1594     349.9034   1414.23218     523.1594     349.9034
   1414.21692     521.1372     349.2681   1414.21692     521.1372     349.2681
   1414.20166     518.4935     347.7687   1414.20166     518.4935     347.7687
   1414.18640     517.3305     346.1802   1414.18640     517.3305     346.1802
   1414.17114     514.5940     345.3983   1414.17114     514.5940     345.3983
   1414.15588     511.7899     344.7477   1414.15588     511.7899     344.7477
   1414.14062     510.3524     342.7598   1414.14062     510.3524     342.7598
   1414.12537     508.0392     341.6671   1414.12537     508.0392     341.6671
   1414.11011     505.5284     340.7696   1414.11011     505.5284     340.7696
   1414.09485     502.7250     339.3286   1414.09485     502.7250     339.3286
   1414.07959     500.4263     338.0105   1414.07959     500.4263     338.0105
   1414.06433     497.9510     336.8096   1414.06433     497.9510     336.8096
   1414.04907     496.3004     336.2090   1414.04907     496.3004     336.2090
   1414.03381     493.7793     333.7314   1414.03381     493.7793     333.7314
   1414.01855     492.4812     333.5898   1414.01855     492.4812     333.5898
   1414.00330     512.3648     338.5960   1414.00330     512.3648     338.5960
   1413.98804     488.4867     331.5634   1413.98804     488.4867     331.5634
   1413.97278     483.6416     329.3800   1413.97278     483.6416     329.3800
   1413.95752     481.6268     328.1935   1413.95752     481.6268     328.1935
   1413.94226     479.4616     327.1143   1413.94226     479.4616     327.1143
   1413.92700     476.5820     325.4631   1413.92700     476.5820     325.4631
   1413.91174     474.6718     324.4647   1413.91174     474.6718     324.4647
   1413.89648     472.2990     323.5098   1413.89648     472.2990     323.5098
   1413.88123     469.2871     322.0592   1413.88123     469.2871     322.0592
   1413.86597     467.0591     320.2483   1413.86597     467.0591     320.2483
   1413.85071     465.1021     318.9390   1413.85071     465.1021     318.9390
   1413.83545     461.5247     317.8164   1413.83545     461.5247     317.8164
   1413.82019     459.8336     316.3073   1413.82019     459.8336     316.3073
   1413.80493     457.6502     315.1527   1413.80493     457.6502     315.1527
   1413.78967     454.8979     314.1484   1413.78967     454.8979     314.1484
   1413.77441     452.7634     312.6991   1413.77441     452.7634     312.6991
   1413.75916     449.0113     311.8496   1413.75916     449.0113     311.8496
   1413.74390     447.9240     310.6616   1413.74390     447.9240     310.6616
   1413.72864     444.2448     308.5905   1413.72864     444.2448     308.5905
   1413.71338     442.5578     307.2567   1413.71338     442.5578     307.2567
   1413.69812     440.0848     306.1920   1413.69812     440.0848     306.1920
   1413.68286     437.7698     304.5939   1413.68286     437.7698     304.5939
   1413.66760     435.3125     304.2156   1413.66760     435.3125     304.2156
   1413.65234     432.6700     302.6537   1413.65234     432.6700     302.6537
   1413.63708     429.6163     301.3914   1413.63708     429.6163     301.3914
   1413.62183     427.0109     299.5071   1413.62183     427.0109     299.5071
   1413.60657     425.1499     298.5476   1413.60657     425.1499     298.5476
   1413.59131     421.9139     297.3760   1413.59131     421.9139     297.3760
   1413.57605     420.2208     295.3732   1413.57605     420.2208     295.3732
   1413.56079     418.1439     294.2978   1413.56079     418.1439     294.2978
   1413.54553     415.2664     293.0369   1413.54553     415.2664     293.0369
   1413.53027     412.7795     292.5853   1413.53027     412.7795     292.5853
   1413.51501     410.5210     290.8071   1413.51501     410.5210     290.8071
   1413.49976     407.7119     289.3736   1413.49976     407.7119     289.3736
   1413.48450     405.7600     288.1982   1413.48450     405.7600     288.1982
   1413.46924     402.6724     286.9245   1413.46924     402.6724     286.9245
   1413.45398     400.6769     285.5690   1413.45398     400.6769     285.5690
   1413.43872     398.4228     284.2325   1413.43872     398.4228     284.2325
   1413.42346     395.5825     283.1219   1413.42346     395.5825     283.1219
   1413.40820     393.6920     281.6909   1413.40820     393.6920     281.6909
   1413.39294     391.7418     280.7759   1413.39294     391.7418     280.7759
   1413.37769     388.9546     278.8788   1413.37769     388.9546     278.8788
   1413.36243     386.7803     278.2307   1413.36243     386.7803     278.2307
   1413.34717     384.2321     277.1208   1413.34717     384.2321     277.1208
   1413.33191     382.1754     275.6775   1413.33191     382.1754     275.6775
   1413.31665     380.1758     274.6498   1413.31665     380.1758     274.6498
   1413.30139     377.8111     273.5737   1413.30139     377.8111     273.5737
   1413.28613     375.2222     271.6665   1413.28613     375.2222     271.6665
   1413.27087     373.2296     270.9767   1413.27087     373.2296     270.9767
   1413.25562     371.4311     269.3722   1413.25562     371.4311     269.3722
   1413.24036     368.5881     268.7114   1413.24036     368.5881     268.7114
   1413.22510     367.0201     267.8093   1413.22510     367.0201     267.8093
   1413.20984     364.2436     266.3985   1413.20984     364.2436     266.3985
   1413.19458     362.2195     265.3522   1413.19458     362.2195     265.3522
   1413.17932     360.0457     263.9895   1413.17932     360.0457     263.9895
   1413.16406     358.3032     263.1502   1413.16406     358.3032     263.1502
   1413.14880     356.4233     262.2458   1413.14880     356.4233     262.2458
   1413.13354     353.8064     261.0318   1413.13354     353.8064     261.0318
   1413.11829     352.7300     260.0730   1413.11829     352.7300     260.0730
   1413.10303     350.0182     258.5179   1413.10303     350.0182     258.5179
   1413.08777     347.8330     257.5400   1413.08777     347.8330     257.5400
   1413.07251     346.5106     256.9555   1413.07251     346.5106     256.9555
   1413.05725     343.8510     256.0250   1413.05725     343.8510     256.0250
   1413.04199     342.5206     255.2408   1413.04199     342.5206     255.2408
   1413.02673     340.8851     254.0174   1413.02673     340.8851     254.0174
   1413.01147     339.1749     253.4184   1413.01147     339.1749     253.4184
   1412.99622     337.1112     252.1716   1412.99622     337.1112     252.1716
   1412.98096     335.5842     251.2327   1412.98096     335.5842     251.2327
   1412.96570     334.6448     250.7444   1412.96570     334.6448     250.7444
   1412.95044     332.0864     249.4859   1412.95044     332.0864     249.4859
   1412.93518     330.8335     248.7738   1412.93518     330.8335     248.7738
   1412.91992     329.2832     248.0182   1412.91992     329.2832     248.0182
   1412.90466     327.7231     246.8333   1412.90466     327.7231     246.8333
   1412.88940     326.2645     246.2730   1412.88940     326.2645     246.2730
   1412.87415     324.4731     245.7724   1412.87415     324.4731     245.7724
   1412.85889     322.5154     244.6510   1412.85889     322.5154     244.6510
   1412.84363     321.5953     244.5747   1412.84363     321.5953     244.5747
   1412.82837     320.1347     243.6214   1412.82837     320.1347     243.6214
   1412.81311     318.9072     242.8435   1412.81311     318.9072     242.8435
   1412.79785     317.7866     242.1353   1412.79785     317.7866     242.1353
   1412.78259     316.7298     241.7473   1412.78259     316.7298     241.7473
   1412.76733     315.2290     241.3411   1412.76733     315.2290     241.3411
   1412.75208     314.3515     240.1596   1412.75208     314.3515     240.1596
   1412.73682     312.9495     240.1761   1412.73682     312.9495     240.1761
   1412.72156     312.1303     239.9167   1412.72156     312.1303     239.9167
   1412.70630     310.5003     239.3065   1412.70630     310.5003     239.3065
   1412.69104     309.8799     238.6780   1412.69104     309.8799     238.6780
   1412.67578     308.6936     238.5375   1412.67578     308.6936     238.5375
   1412.66052     307.8827     238.1184   1412.66052     307.8827     238.1184
   1412.64526     306.9857     237.7171   1412.64526     306.9857     237.7171
   1412.63000     306.4911     237.4089   1412.63000     306.4911     237.4089
   1412.61475     305.5479     237.3943   1412.61475     305.5479     237.3943
   1412.59949     304.4810     236.9081   1412.59949     304.4810     236.9081
   1412.58423     304.2560     236.6593   1412.58423     304.2560     236.6593
   1412.56897     302.9559     236.4263   1412.56897     302.9559     236.4263
   1412.55371     302.6151     236.4925   1412.55371     302.6151     236.4925
   1412.53845     301.9518     235.8996   1412.53845     301.9518     235.8996
   1412.52319     301.4890     235.9950   1412.52319     301.4890     235.9950
   1412.50793     300.9540     235.6425   1412.50793     300.9540     235.6425
   1412.49268     300.1819     235.5609   1412.49268     300.1819     235.5609
   1412.47742     299.7359     235.9039   1412.47742     299.7359     235.9039
   1412.46216     299.0903     235.6006   1412.46216     299.0903     235.6006
   1412.44690     299.1445     235.6972   1412.44690     299.1445     235.6972
   1412.43164     298.9362     235.9159   1412.43164     298.9362     235.9159
   1412.41638     298.9144     235.6139   1412.41638     298.9144     235.6139
   1412.40112     298.5616     235.7919   1412.40112     298.5616     235.7919
   1412.38586     298.0793     236.1249   1412.38586     298.0793     236.1249
   1412.37061     297.9729     236.0629   1412.37061     297.9729     236.0629
   1412.35535     298.4636     236.2838   1412.35535     298.4636     236.2838
   1412.34009     298.4973     236.4904   1412.34009     298.4973     236.4904
   1412.32483     297.9975     237.0563   1412.32483     297.9975     237.0563
   1412.30957     298.4516     237.2277   1412.30957     298.4516     237.2277
   1412.29431     298.3478     237.3141   1412.29431     298.3478     237.3141
   1412.27905     298.7007     238.1709   1412.27905     298.7007     238.1709
   1412.26379     299.4861     238.7617   1412.26379     299.4861     238.7617
   1412.24854     298.9210     239.0505   1412.24854     298.9210     239.0505
   1412.23328     299.9689     239.8106   1412.23328     299.9689     239.8106
   1412.21802     300.1684     239.6596   1412.21802     300.1684     239.6596
   1412.20276     300.8085     240.2945   1412.20276     300.8085     240.2945