#     FILENAME=!Skynet_57528_lach-hhg-128_20425_20952.cyb.fits
#     BASENAME=Skynet_57528_lach-hhg-128_20425_20952
#     SRC_NAME=lach-hhg-128
#     OBSERVER=hhgmadison16_9500
#     DATE_OBS=2016-05-20T16:53:29.870
#        OBSID=20425
#      SCANNUM=20952
#          MJD=57528.7049
#          UTC=60898
#     SCANTYPE=track
#     DATAMODE=HIRES
#     TUNEFREQ=1420.0000
# Actual_FREQ1=1420.0000
# Actual_FREQ2=1420.0000
#    LO1Tuning=6870.000
#     RFFILTER=1355_1435
#        OBSBW=-15.6250
#        NCHAN=1024 
#        FOCUS=37.0709
#           RA=01:35:25.58
#          DEC=62:26:15.51
#      RA(hrs)=1.590400
#     DEC(deg)=62.437600
#    AZIM(deg)=333.231
#    ELEV(deg)=60.367
#     IFattens=10.00, 10.00
#      WARNING=None
#    TCAL_XL1=7.9635
#    TCAL_YR1=9.1340
#    TCAL_XL2=7.9635
#    TCAL_YR2=9.1340
#     TRX_XL1=11.7060
#     TRX_YR1=11.7060
#     TRX_XL2=11.7060
#     TRX_YR2=11.7060
#        TAVE=1.0000
#Freq1(MHz)          XL1          YR1  Freq2(MHz)          XL2          YR2 

   1427.81250     294.8585     284.6084   1427.81250     294.8585     284.6084
   1427.79724     295.7050     284.9654   1427.79724     295.7050     284.9654
   1427.78198     295.7585     286.3588   1427.78198     295.7585     286.3588
   1427.76672     296.8152     286.8528   1427.76672     296.8152     286.8528
   1427.75146     297.3077     287.7974   1427.75146     297.3077     287.7974
   1427.73621     297.9453     289.1735   1427.73621     297.9453     289.1735
   1427.72095     298.9589     290.0798   1427.72095     298.9589     290.0798
   1427.70569     299.4295     291.1827   1427.70569     299.4295     291.1827
   1427.69043     300.6700     292.4962   1427.69043     300.6700     292.4962
   1427.67517     301.4658     292.8210   1427.67517     301.4658     292.8210
   1427.65991     302.2523     294.3785   1427.65991     302.2523     294.3785
   1427.64465     303.2419     295.9011   1427.64465     303.2419     295.9011
   1427.62939     304.8107     297.5410   1427.62939     304.8107     297.5410
   1427.61414     305.5446     299.0898   1427.61414     305.5446     299.0898
   1427.59888     306.3174     300.1551   1427.59888     306.3174     300.1551
   1427.58362     307.1116     301.2307   1427.58362     307.1116     301.2307
   1427.56836     308.7236     302.2225   1427.56836     308.7236     302.2225
   1427.55310     309.7826     304.5402   1427.55310     309.7826     304.5402
   1427.53784     310.9830     305.9456   1427.53784     310.9830     305.9456
   1427.52258     312.5376     307.1234   1427.52258     312.5376     307.1234
   1427.50732     313.6198     308.9572   1427.50732     313.6198     308.9572
   1427.49207     314.5511     310.4085   1427.49207     314.5511     310.4085
   1427.47681     316.1401     312.0788   1427.47681     316.1401     312.0788
   1427.46155     317.1790     314.0672   1427.46155     317.1790     314.0672
   1427.44629     319.7421     315.5208   1427.44629     319.7421     315.5208
   1427.43103     320.4704     317.4183   1427.43103     320.4704     317.4183
   1427.41577     322.0835     319.3436   1427.41577     322.0835     319.3436
   1427.40051     324.1882     321.0646   1427.40051     324.1882     321.0646
   1427.38525     325.7791     322.4670   1427.38525     325.7791     322.4670
   1427.37000     327.4111     324.8393   1427.37000     327.4111     324.8393
   1427.35474     328.6623     326.9809   1427.35474     328.6623     326.9809
   1427.33948     330.4402     328.4505   1427.33948     330.4402     328.4505
   1427.32422     332.3474     330.2966   1427.32422     332.3474     330.2966
   1427.30896     334.8864     332.6427   1427.30896     334.8864     332.6427
   1427.29370     336.0580     334.0622   1427.29370     336.0580     334.0622
   1427.27844     337.6327     336.6901   1427.27844     337.6327     336.6901
   1427.26318     339.8950     338.5306   1427.26318     339.8950     338.5306
   1427.24792     341.5954     341.2104   1427.24792     341.5954     341.2104
   1427.23267     343.3391     343.0369   1427.23267     343.3391     343.0369
   1427.21741     346.1900     345.3427   1427.21741     346.1900     345.3427
   1427.20215     347.3915     347.1069   1427.20215     347.3915     347.1069
   1427.18689     349.9067     349.7798   1427.18689     349.9067     349.7798
   1427.17163     351.7064     352.0477   1427.17163     351.7064     352.0477
   1427.15637     353.8018     354.2452   1427.15637     353.8018     354.2452
   1427.14111     355.6855     356.5241   1427.14111     355.6855     356.5241
   1427.12585     357.9780     358.1069   1427.12585     357.9780     358.1069
   1427.11060     360.8240     360.5181   1427.11060     360.8240     360.5181
   1427.09534     363.1258     363.3347   1427.09534     363.1258     363.3347
   1427.08008     364.9020     365.4887   1427.08008     364.9020     365.4887
   1427.06482     366.7739     368.0827   1427.06482     366.7739     368.0827
   1427.04956     369.7002     370.3775   1427.04956     369.7002     370.3775
   1427.03430     371.9250     372.9889   1427.03430     371.9250     372.9889
   1427.01904     373.3028     374.8778   1427.01904     373.3028     374.8778
   1427.00378     375.9301     377.0530   1427.00378     375.9301     377.0530
   1426.98853     378.4144     379.9534   1426.98853     378.4144     379.9534
   1426.97327     380.6971     382.8885   1426.97327     380.6971     382.8885
   1426.95801     383.7494     384.8092   1426.95801     383.7494     384.8092
   1426.94275     385.6505     387.8589   1426.94275     385.6505     387.8589
   1426.92749     387.2274     390.0154   1426.92749     387.2274     390.0154
   1426.91223     390.5927     392.5843   1426.91223     390.5927     392.5843
   1426.89697     393.1051     395.4650   1426.89697     393.1051     395.4650
   1426.88171     395.0850     398.1275   1426.88171     395.0850     398.1275
   1426.86646     397.4439     400.3150   1426.86646     397.4439     400.3150
   1426.85120     400.4584     402.7287   1426.85120     400.4584     402.7287
   1426.83594     402.4237     406.1167   1426.83594     402.4237     406.1167
   1426.82068     404.5172     407.8453   1426.82068     404.5172     407.8453
   1426.80542     407.4827     410.9158   1426.80542     407.4827     410.9158
   1426.79016     410.3195     412.8473   1426.79016     410.3195     412.8473
   1426.77490     412.5147     415.9257   1426.77490     412.5147     415.9257
   1426.75964     414.6853     418.2827   1426.75964     414.6853     418.2827
   1426.74438     417.7801     421.2346   1426.74438     417.7801     421.2346
   1426.72913     419.7153     423.7474   1426.72913     419.7153     423.7474
   1426.71387     423.0497     425.5527   1426.71387     423.0497     425.5527
   1426.69861     425.3410     428.8310   1426.69861     425.3410     428.8310
   1426.68335     427.8680     430.8080   1426.68335     427.8680     430.8080
   1426.66809     430.2272     433.6814   1426.66809     430.2272     433.6814
   1426.65283     432.8788     435.9189   1426.65283     432.8788     435.9189
   1426.63757     435.4710     439.0725   1426.63757     435.4710     439.0725
   1426.62231     437.9040     443.3518   1426.62231     437.9040     443.3518
   1426.60706     440.4782     444.6175   1426.60706     440.4782     444.6175
   1426.59180     442.7793     446.7435   1426.59180     442.7793     446.7435
   1426.57654     445.9356     449.0794   1426.57654     445.9356     449.0794
   1426.56128     448.4051     451.1745   1426.56128     448.4051     451.1745
   1426.54602     450.6739     453.7969   1426.54602     450.6739     453.7969
   1426.53076     453.1981     456.3961   1426.53076     453.1981     456.3961
   1426.51550     455.8607     459.9643   1426.51550     455.8607     459.9643
   1426.50024     458.5513     461.9371   1426.50024     458.5513     461.9371
   1426.48499     459.9820     464.5081   1426.48499     459.9820     464.5081
   1426.46973     463.6980     466.0366   1426.46973     463.6980     466.0366
   1426.45447     464.6014     470.0969   1426.45447     464.6014     470.0969
   1426.43921     468.3822     471.8623   1426.43921     468.3822     471.8623
   1426.42395     470.9542     474.8764   1426.42395     470.9542     474.8764
   1426.40869     473.3857     476.8629   1426.40869     473.3857     476.8629
   1426.39343     476.6588     479.1584   1426.39343     476.6588     479.1584
   1426.37817     477.8528     480.9852   1426.37817     477.8528     480.9852
   1426.36292     481.0416     484.6039   1426.36292     481.0416     484.6039
   1426.34766     483.1281     486.2319   1426.34766     483.1281     486.2319
   1426.33240     485.5893     488.7941   1426.33240     485.5893     488.7941
   1426.31714     488.1819     491.2159   1426.31714     488.1819     491.2159
   1426.30188     490.4246     494.4911   1426.30188     490.4246     494.4911
   1426.28662     491.7164     496.0281   1426.28662     491.7164     496.0281
   1426.27136     494.2963     498.3470   1426.27136     494.2963     498.3470
   1426.25610     497.1725     500.3011   1426.25610     497.1725     500.3011
   1426.24084     499.0512     502.7296   1426.24084     499.0512     502.7296
   1426.22559     501.7212     504.8922   1426.22559     501.7212     504.8922
   1426.21033     503.9676     507.0432   1426.21033     503.9676     507.0432
   1426.19507     506.6839     510.0779   1426.19507     506.6839     510.0779
   1426.17981     508.6976     512.6658   1426.17981     508.6976     512.6658
   1426.16455     510.3011     513.9205   1426.16455     510.3011     513.9205
   1426.14929     513.1487     516.8282   1426.14929     513.1487     516.8282
   1426.13403     515.0634     518.7133   1426.13403     515.0634     518.7133
   1426.11877     517.3657     521.8769   1426.11877     517.3657     521.8769
   1426.10352     519.1823     522.2170   1426.10352     519.1823     522.2170
   1426.08826     521.8881     525.3269   1426.08826     521.8881     525.3269
   1426.07300     524.4564     528.0286   1426.07300     524.4564     528.0286
   1426.05774     526.5306     529.3363   1426.05774     526.5306     529.3363
   1426.04248     527.8285     531.1570   1426.04248     527.8285     531.1570
   1426.02722     529.3516     532.6135   1426.02722     529.3516     532.6135
   1426.01196     532.5296     536.0857   1426.01196     532.5296     536.0857
   1425.99670     534.3896     538.1966   1425.99670     534.3896     538.1966
   1425.98145     536.2297     540.0160   1425.98145     536.2297     540.0160
   1425.96619     538.3926     540.9807   1425.96619     538.3926     540.9807
   1425.95093     539.6656     543.0374   1425.95093     539.6656     543.0374
   1425.93567     540.7737     545.9804   1425.93567     540.7737     545.9804
   1425.92041     543.2869     546.2932   1425.92041     543.2869     546.2932
   1425.90515     545.2457     550.1268   1425.90515     545.2457     550.1268
   1425.88989     547.5374     550.6939   1425.88989     547.5374     550.6939
   1425.87463     549.6262     552.5238   1425.87463     549.6262     552.5238
   1425.85938     550.5514     554.5217   1425.85938     550.5514     554.5217
   1425.84412     552.6995     556.9802   1425.84412     552.6995     556.9802
   1425.82886     554.3336     558.7319   1425.82886     554.3336     558.7319
   1425.81360     556.0081     560.6429   1425.81360     556.0081     560.6429
   1425.79834     557.6957     562.9454   1425.79834     557.6957     562.9454
   1425.78308     558.5552     564.3071   1425.78308     558.5552     564.3071
   1425.76782     561.0065     565.4927   1425.76782     561.0065     565.4927
   1425.75256     562.6338     567.8781   1425.75256     562.6338     567.8781
   1425.73730     563.8832     569.0386   1425.73730     563.8832     569.0386
   1425.72205     565.7132     570.2174   1425.72205     565.7132     570.2174
   1425.70679     567.1102     571.8542   1425.70679     567.1102     571.8542
   1425.69153     567.8988     573.9697   1425.69153     567.8988     573.9697
   1425.67627     569.8022     575.3035   1425.67627     569.8022     575.3035
   1425.66101     571.8627     576.7382   1425.66101     571.8627     576.7382
   1425.64575     573.9133     578.6616   1425.64575     573.9133     578.6616
   1425.63049     575.1476     579.9418   1425.63049     575.1476     579.9418
   1425.61523     575.7897     582.0306   1425.61523     575.7897     582.0306
   1425.59998     577.0847     582.6366   1425.59998     577.0847     582.6366
   1425.58472     578.4591     584.9755   1425.58472     578.4591     584.9755
   1425.56946     579.2747     586.5423   1425.56946     579.2747     586.5423
   1425.55420     581.2407     586.9896   1425.55420     581.2407     586.9896
   1425.53894     581.5713     588.9382   1425.53894     581.5713     588.9382
   1425.52368     582.2483     589.4811   1425.52368     582.2483     589.4811
   1425.50842     583.9327     591.2200   1425.50842     583.9327     591.2200
   1425.49316     584.4810     592.7452   1425.49316     584.4810     592.7452
   1425.47791     586.6233     594.0904   1425.47791     586.6233     594.0904
   1425.46265     588.0811     594.4612   1425.46265     588.0811     594.4612
   1425.44739     589.1472     596.6851   1425.44739     589.1472     596.6851
   1425.43213     590.6088     598.3933   1425.43213     590.6088     598.3933
   1425.41687     591.5840     598.5318   1425.41687     591.5840     598.5318
   1425.40161     592.1417     601.3307   1425.40161     592.1417     601.3307
   1425.38635     592.4615     601.0455   1425.38635     592.4615     601.0455
   1425.37109     594.0776     601.7403   1425.37109     594.0776     601.7403
   1425.35583     594.4346     603.7477   1425.35583     594.4346     603.7477
   1425.34058     595.6094     604.1740   1425.34058     595.6094     604.1740
   1425.32532     596.5161     606.5714   1425.32532     596.5161     606.5714
   1425.31006     597.8339     607.8350   1425.31006     597.8339     607.8350
   1425.29480     598.2299     608.0857   1425.29480     598.2299     608.0857
   1425.27954     598.5809     609.4130   1425.27954     598.5809     609.4130
   1425.26428     599.5708     610.1163   1425.26428     599.5708     610.1163
   1425.24902     600.8213     610.4614   1425.24902     600.8213     610.4614
   1425.23376     600.9114     612.0831   1425.23376     600.9114     612.0831
   1425.21851     602.1341     613.2374   1425.21851     602.1341     613.2374
   1425.20325     602.0895     614.1127   1425.20325     602.0895     614.1127
   1425.18799     602.9640     614.2871   1425.18799     602.9640     614.2871
   1425.17273     603.1174     615.9918   1425.17273     603.1174     615.9918
   1425.15747     604.5067     616.2478   1425.15747     604.5067     616.2478
   1425.14221     605.7679     617.6356   1425.14221     605.7679     617.6356
   1425.12695     605.2488     618.2088   1425.12695     605.2488     618.2088
   1425.11169     605.9872     620.4119   1425.11169     605.9872     620.4119
   1425.09644     605.5507     619.9623   1425.09644     605.5507     619.9623
   1425.08118     607.4930     621.8037   1425.08118     607.4930     621.8037
   1425.06592     607.6434     621.4908   1425.06592     607.6434     621.4908
   1425.05066     608.9114     622.8624   1425.05066     608.9114     622.8624
   1425.03540     609.5438     622.7863   1425.03540     609.5438     622.7863
   1425.02014     608.7484     623.9440   1425.02014     608.7484     623.9440
   1425.00488     610.3369     624.5645   1425.00488     610.3369     624.5645
   1424.98962     609.7628     626.0684   1424.98962     609.7628     626.0684
   1424.97437     609.7521     626.6295   1424.97437     609.7521     626.6295
   1424.95911     610.8160     626.4598   1424.95911     610.8160     626.4598
   1424.94385     611.3613     627.7963   1424.94385     611.3613     627.7963
   1424.92859     611.1122     628.2187   1424.92859     611.1122     628.2187
   1424.91333     610.5233     628.7443   1424.91333     610.5233     628.7443
   1424.89807     611.4690     629.9354   1424.89807     611.4690     629.9354
   1424.88281     611.9965     630.3702   1424.88281     611.9965     630.3702
   1424.86755     613.2868     631.2828   1424.86755     613.2868     631.2828
   1424.85229     612.3262     631.1985   1424.85229     612.3262     631.1985
   1424.83704     612.3361     630.9488   1424.83704     612.3361     630.9488
   1424.82178     612.6976     631.7364   1424.82178     612.6976     631.7364
   1424.80652     612.7704     632.1364   1424.80652     612.7704     632.1364
   1424.79126     612.4383     632.4064   1424.79126     612.4383     632.4064
   1424.77600     613.1525     633.2140   1424.77600     613.1525     633.2140
   1424.76074     613.3080     635.2424   1424.76074     613.3080     635.2424
   1424.74548     613.1339     634.3644   1424.74548     613.1339     634.3644
   1424.73022     613.1540     635.2414   1424.73022     613.1540     635.2414
   1424.71497     612.6849     635.3631   1424.71497     612.6849     635.3631
   1424.69971     613.1328     635.4095   1424.69971     613.1328     635.4095
   1424.68445     612.9127     635.5362   1424.68445     612.9127     635.5362
   1424.66919     612.1799     636.7483   1424.66919     612.1799     636.7483
   1424.65393     612.9454     636.8018   1424.65393     612.9454     636.8018
   1424.63867     613.9647     637.4818   1424.63867     613.9647     637.4818
   1424.62341     612.3243     636.9125   1424.62341     612.3243     636.9125
   1424.60815     613.3054     638.0873   1424.60815     613.3054     638.0873
   1424.59290     613.1361     637.9317   1424.59290     613.1361     637.9317
   1424.57764     613.3130     637.6615   1424.57764     613.3130     637.6615
   1424.56238     613.4433     638.0529   1424.56238     613.4433     638.0529
   1424.54712     613.7620     638.9030   1424.54712     613.7620     638.9030
   1424.53186     612.8962     638.9216   1424.53186     612.8962     638.9216
   1424.51660     612.1459     639.2753   1424.51660     612.1459     639.2753
   1424.50134     613.2506     639.4539   1424.50134     613.2506     639.4539
   1424.48608     613.1697     640.1443   1424.48608     613.1697     640.1443
   1424.47083     611.9017     639.4024   1424.47083     611.9017     639.4024
   1424.45557     611.7821     638.7840   1424.45557     611.7821     638.7840
   1424.44031     611.3381     640.2661   1424.44031     611.3381     640.2661
   1424.42505     611.6757     639.9218   1424.42505     611.6757     639.9218
   1424.40979     610.4859     640.3085   1424.40979     610.4859     640.3085
   1424.39453     610.5410     640.0667   1424.39453     610.5410     640.0667
   1424.37927     610.1262     640.4623   1424.37927     610.1262     640.4623
   1424.36401     610.7439     640.1224   1424.36401     610.7439     640.1224
   1424.34875     609.9556     640.2665   1424.34875     609.9556     640.2665
   1424.33350     610.1948     639.8718   1424.33350     610.1948     639.8718
   1424.31824     609.8165     640.6891   1424.31824     609.8165     640.6891
   1424.30298     609.4810     639.6390   1424.30298     609.4810     639.6390
   1424.28772     609.7857     640.1768   1424.28772     609.7857     640.1768
   1424.27246     608.8474     640.8420   1424.27246     608.8474     640.8420
   1424.25720     608.9450     639.8794   1424.25720     608.9450     639.8794
   1424.24194     608.6074     640.6733   1424.24194     608.6074     640.6733
   1424.22668     608.2696     640.2597   1424.22668     608.2696     640.2597
   1424.21143     608.1251     640.6669   1424.21143     608.1251     640.6669
   1424.19617     607.3144     640.9207   1424.19617     607.3144     640.9207
   1424.18091     607.0675     640.9193   1424.18091     607.0675     640.9193
   1424.16565     607.5896     640.4915   1424.16565     607.5896     640.4915
   1424.15039     606.1151     639.9683   1424.15039     606.1151     639.9683
   1424.13513     606.1013     640.4433   1424.13513     606.1013     640.4433
   1424.11987     606.6021     640.4576   1424.11987     606.6021     640.4576
   1424.10461     606.6921     639.7426   1424.10461     606.6921     639.7426
   1424.08936     605.8621     640.0099   1424.08936     605.8621     640.0099
   1424.07410     605.3283     640.1985   1424.07410     605.3283     640.1985
   1424.05884     604.2676     639.3571   1424.05884     604.2676     639.3571
   1424.04358     604.3680     639.3386   1424.04358     604.3680     639.3386
   1424.02832     603.6345     639.0123   1424.02832     603.6345     639.0123
   1424.01306     603.5408     638.8171   1424.01306     603.5408     638.8171
   1423.99780     602.6199     638.9318   1423.99780     602.6199     638.9318
   1423.98254     603.1274     639.0784   1423.98254     603.1274     639.0784
   1423.96729     603.6346     638.5364   1423.96729     603.6346     638.5364
   1423.95203     602.9549     637.9749   1423.95203     602.9549     637.9749
   1423.93677     602.1055     637.7154   1423.93677     602.1055     637.7154
   1423.92151     602.0771     637.2738   1423.92151     602.0771     637.2738
   1423.90625     601.6322     637.0939   1423.90625     601.6322     637.0939
   1423.89099     600.7363     637.7627   1423.89099     600.7363     637.7627
   1423.87573     600.5145     636.5684   1423.87573     600.5145     636.5684
   1423.86047     600.6894     636.6569   1423.86047     600.6894     636.6569
   1423.84521     599.4478     636.5695   1423.84521     599.4478     636.5695
   1423.82996     599.4658     635.6456   1423.82996     599.4658     635.6456
   1423.81470     599.1219     636.3345   1423.81470     599.1219     636.3345
   1423.79944     598.2704     634.9880   1423.79944     598.2704     634.9880
   1423.78418     597.8895     635.6642   1423.78418     597.8895     635.6642
   1423.76892     597.6846     635.7798   1423.76892     597.6846     635.7798
   1423.75366     597.7910     635.0593   1423.75366     597.7910     635.0593
   1423.73840     597.8620     634.1774   1423.73840     597.8620     634.1774
   1423.72314     596.3104     633.2233   1423.72314     596.3104     633.2233
   1423.70789     596.1522     633.0121   1423.70789     596.1522     633.0121
   1423.69263     596.7505     633.1507   1423.69263     596.7505     633.1507
   1423.67737     596.2000     632.6378   1423.67737     596.2000     632.6378
   1423.66211     595.5152     631.7416   1423.66211     595.5152     631.7416
   1423.64685     594.8145     631.9545   1423.64685     594.8145     631.9545
   1423.63159     594.5620     630.6910   1423.63159     594.5620     630.6910
   1423.61633     594.1625     630.5010   1423.61633     594.1625     630.5010
   1423.60107     593.0188     630.0479   1423.60107     593.0188     630.0479
   1423.58582     593.7963     630.5323   1423.58582     593.7963     630.5323
   1423.57056     593.5608     630.5058   1423.57056     593.5608     630.5058
   1423.55530     592.8868     630.0121   1423.55530     592.8868     630.0121
   1423.54004     591.3677     629.6829   1423.54004     591.3677     629.6829
   1423.52478     591.6234     628.6218   1423.52478     591.6234     628.6218
   1423.50952     592.0646     627.8810   1423.50952     592.0646     627.8810
   1423.49426     590.7906     628.6389   1423.49426     590.7906     628.6389
   1423.47900     590.2940     626.8318   1423.47900     590.2940     626.8318
   1423.46375     590.3745     626.4644   1423.46375     590.3745     626.4644
   1423.44849     589.9592     625.9551   1423.44849     589.9592     625.9551
   1423.43323     590.4520     624.9031   1423.43323     590.4520     624.9031
   1423.41797     589.9229     625.4827   1423.41797     589.9229     625.4827
   1423.40271     589.0187     624.0502   1423.40271     589.0187     624.0502
   1423.38745     588.2831     623.7230   1423.38745     588.2831     623.7230
   1423.37219     588.3127     623.3451   1423.37219     588.3127     623.3451
   1423.35693     587.5980     622.4878   1423.35693     587.5980     622.4878
   1423.34167     587.5673     622.2416   1423.34167     587.5673     622.2416
   1423.32642     586.3369     621.0696   1423.32642     586.3369     621.0696
   1423.31116     586.3471     620.7231   1423.31116     586.3471     620.7231
   1423.29590     585.8739     619.3911   1423.29590     585.8739     619.3911
   1423.28064     587.3805     620.2402   1423.28064     587.3805     620.2402
   1423.26538     585.4427     619.2289   1423.26538     585.4427     619.2289
   1423.25012     585.5984     618.8951   1423.25012     585.5984     618.8951
   1423.23486     584.9875     617.5117   1423.23486     584.9875     617.5117
   1423.21960     584.8013     617.2516   1423.21960     584.8013     617.2516
   1423.20435     584.2166     616.0630   1423.20435     584.2166     616.0630
   1423.18909     584.3541     616.7330   1423.18909     584.3541     616.7330
   1423.17383     583.9173     615.1755   1423.17383     583.9173     615.1755
   1423.15857     583.8516     614.7991   1423.15857     583.8516     614.7991
   1423.14331     583.4614     613.9880   1423.14331     583.4614     613.9880
   1423.12805     582.2383     613.7546   1423.12805     582.2383     613.7546
   1423.11279     581.9622     612.6476   1423.11279     581.9622     612.6476
   1423.09753     581.6935     611.5850   1423.09753     581.6935     611.5850
   1423.08228     582.2316     610.5158   1423.08228     582.2316     610.5158
   1423.06702     582.1604     610.6356   1423.06702     582.1604     610.6356
   1423.05176     580.2580     610.0200   1423.05176     580.2580     610.0200
   1423.03650     580.8345     609.2704   1423.03650     580.8345     609.2704
   1423.02124     581.3710     608.5804   1423.02124     581.3710     608.5804
   1423.00598     579.7411     608.3098   1423.00598     579.7411     608.3098
   1422.99072     579.7789     607.0851   1422.99072     579.7789     607.0851
   1422.97546     579.5453     605.9424   1422.97546     579.5453     605.9424
   1422.96021     579.6775     605.9768   1422.96021     579.6775     605.9768
   1422.94495     578.3929     604.5577   1422.94495     578.3929     604.5577
   1422.92969     578.3874     603.9879   1422.92969     578.3874     603.9879
   1422.91443     578.5391     603.5492   1422.91443     578.5391     603.5492
   1422.89917     578.5905     601.9440   1422.89917     578.5905     601.9440
   1422.88391     578.6296     601.3557   1422.88391     578.6296     601.3557
   1422.86865     577.5228     601.4160   1422.86865     577.5228     601.4160
   1422.85339     577.0045     599.1512   1422.85339     577.0045     599.1512
   1422.83813     576.1552     599.0296   1422.83813     576.1552     599.0296
   1422.82288     576.0250     598.2438   1422.82288     576.0250     598.2438
   1422.80762     576.0467     597.7041   1422.80762     576.0467     597.7041
   1422.79236     575.9677     596.8810   1422.79236     575.9677     596.8810
   1422.77710     575.4006     596.8089   1422.77710     575.4006     596.8089
   1422.76184     575.6235     595.3574   1422.76184     575.6235     595.3574
   1422.74658     575.7250     594.8027   1422.74658     575.7250     594.8027
   1422.73132     574.0179     594.1281   1422.73132     574.0179     594.1281
   1422.71606     574.4975     594.0278   1422.71606     574.4975     594.0278
   1422.70081     574.6213     592.0229   1422.70081     574.6213     592.0229
   1422.68555     574.3934     591.8413   1422.68555     574.3934     591.8413
   1422.67029     573.7851     590.2259   1422.67029     573.7851     590.2259
   1422.65503     574.3004     589.0857   1422.65503     574.3004     589.0857
   1422.63977     573.0861     589.0274   1422.63977     573.0861     589.0274
   1422.62451     573.7810     588.2084   1422.62451     573.7810     588.2084
   1422.60925     572.7505     585.8324   1422.60925     572.7505     585.8324
   1422.59399     572.9451     585.6165   1422.59399     572.9451     585.6165
   1422.57874     572.8010     585.2725   1422.57874     572.8010     585.2725
   1422.56348     572.7199     585.0228   1422.56348     572.7199     585.0228
   1422.54822     571.7673     584.3113   1422.54822     571.7673     584.3113
   1422.53296     571.4206     583.2952   1422.53296     571.4206     583.2952
   1422.51770     571.4867     582.4365   1422.51770     571.4867     582.4365
   1422.50244     570.8035     581.5098   1422.50244     570.8035     581.5098
   1422.48718     571.7821     580.3184   1422.48718     571.7821     580.3184
   1422.47192     571.6575     580.4174   1422.47192     571.6575     580.4174
   1422.45667     570.8449     577.6505   1422.45667     570.8449     577.6505
   1422.44141     570.6944     577.7811   1422.44141     570.6944     577.7811
   1422.42615     570.4760     577.8186   1422.42615     570.4760     577.8186
   1422.41089     570.7337     576.0887   1422.41089     570.7337     576.0887
   1422.39563     571.1107     574.8784   1422.39563     571.1107     574.8784
   1422.38037     570.0889     574.0310   1422.38037     570.0889     574.0310
   1422.36511     569.4083     572.9778   1422.36511     569.4083     572.9778
   1422.34985     570.2996     572.7883   1422.34985     570.2996     572.7883
   1422.33459     569.6461     571.9659   1422.33459     569.6461     571.9659
   1422.31934     569.2029     569.7779   1422.31934     569.2029     569.7779
   1422.30408     568.5046     569.0400   1422.30408     568.5046     569.0400
   1422.28882     568.9669     568.6212   1422.28882     568.9669     568.6212
   1422.27356     568.7197     568.8307   1422.27356     568.7197     568.8307
   1422.25830     568.5325     566.4731   1422.25830     568.5325     566.4731
   1422.24304     568.8448     571.8097   1422.24304     568.8448     571.8097
   1422.22778     568.7881     567.6436   1422.22778     568.7881     567.6436
   1422.21252     567.4374     564.1999   1422.21252     567.4374     564.1999
   1422.19727     567.9537     562.8473   1422.19727     567.9537     562.8473
   1422.18201     567.3707     562.2519   1422.18201     567.3707     562.2519
   1422.16675     567.7991     561.9354   1422.16675     567.7991     561.9354
   1422.15149     567.1529     559.5937   1422.15149     567.1529     559.5937
   1422.13623     566.5331     559.1778   1422.13623     566.5331     559.1778
   1422.12097     566.2097     558.4201   1422.12097     566.2097     558.4201
   1422.10571     566.8345     557.8909   1422.10571     566.8345     557.8909
   1422.09045     566.2934     555.7289   1422.09045     566.2934     555.7289
   1422.07520     566.9835     554.4815   1422.07520     566.9835     554.4815
   1422.05994     566.0720     554.2369   1422.05994     566.0720     554.2369
   1422.04468     566.4086     553.8995   1422.04468     566.4086     553.8995
   1422.02942     565.5828     551.9155   1422.02942     565.5828     551.9155
   1422.01416     566.2331     551.2772   1422.01416     566.2331     551.2772
   1421.99890     565.8218     551.4310   1421.99890     565.8218     551.4310
   1421.98364     564.9268     548.9861   1421.98364     564.9268     548.9861
   1421.96838     565.5743     548.5909   1421.96838     565.5743     548.5909
   1421.95312     564.8682     547.0979   1421.95312     564.8682     547.0979
   1421.93787     565.0588     546.4043   1421.93787     565.0588     546.4043
   1421.92261     565.3878     545.9521   1421.92261     565.3878     545.9521
   1421.90735     564.7590     544.4396   1421.90735     564.7590     544.4396
   1421.89209     565.7360     543.8226   1421.89209     565.7360     543.8226
   1421.87683     565.1359     543.2711   1421.87683     565.1359     543.2711
   1421.86157     564.3499     542.4409   1421.86157     564.3499     542.4409
   1421.84631     564.9341     541.3596   1421.84631     564.9341     541.3596
   1421.83105     564.5637     539.8927   1421.83105     564.5637     539.8927
   1421.81580     563.8413     538.9414   1421.81580     563.8413     538.9414
   1421.80054     563.9308     537.2185   1421.80054     563.9308     537.2185
   1421.78528     562.7573     537.0049   1421.78528     562.7573     537.0049
   1421.77002     562.8857     535.7281   1421.77002     562.8857     535.7281
   1421.75476     564.1824     535.1470   1421.75476     564.1824     535.1470
   1421.73950     563.8203     534.9098   1421.73950     563.8203     534.9098
   1421.72424     563.1325     533.5273   1421.72424     563.1325     533.5273
   1421.70898     563.1953     532.4412   1421.70898     563.1953     532.4412
   1421.69373     561.8365     531.0242   1421.69373     561.8365     531.0242
   1421.67847     561.8346     530.2081   1421.67847     561.8346     530.2081
   1421.66321     562.8126     529.1332   1421.66321     562.8126     529.1332
   1421.64795     562.0875     528.2119   1421.64795     562.0875     528.2119
   1421.63269     561.6089     527.0932   1421.63269     561.6089     527.0932
   1421.61743     561.7588     526.5630   1421.61743     561.7588     526.5630
   1421.60217     562.2906     526.4800   1421.60217     562.2906     526.4800
   1421.58691     562.4206     525.2887   1421.58691     562.4206     525.2887
   1421.57166     561.7733     523.6359   1421.57166     561.7733     523.6359
   1421.55640     562.6536     522.6896   1421.55640     562.6536     522.6896
   1421.54114     563.3049     522.0497   1421.54114     563.3049     522.0497
   1421.52588     563.0360     522.1350   1421.52588     563.0360     522.1350
   1421.51062     563.8568     520.7352   1421.51062     563.8568     520.7352
   1421.49536     564.1211     520.5599   1421.49536     564.1211     520.5599
   1421.48010     564.0076     520.3746   1421.48010     564.0076     520.3746
   1421.46484     563.7903     518.0546   1421.46484     563.7903     518.0546
   1421.44958     562.9716     517.7115   1421.44958     562.9716     517.7115
   1421.43433     563.4305     517.2903   1421.43433     563.4305     517.2903
   1421.41907     563.3063     516.4054   1421.41907     563.3063     516.4054
   1421.40381     563.5115     515.3112   1421.40381     563.5115     515.3112
   1421.38855     563.0220     514.4280   1421.38855     563.0220     514.4280
   1421.37329     562.7374     512.6936   1421.37329     562.7374     512.6936
   1421.35803     562.5752     512.0938   1421.35803     562.5752     512.0938
   1421.34277     562.0605     510.8552   1421.34277     562.0605     510.8552
   1421.32751     562.4152     510.2194   1421.32751     562.4152     510.2194
   1421.31226     561.9633     508.3890   1421.31226     561.9633     508.3890
   1421.29700     561.1300     507.8525   1421.29700     561.1300     507.8525
   1421.28174     560.9382     505.8524   1421.28174     560.9382     505.8524
   1421.26648     560.5477     506.1330   1421.26648     560.5477     506.1330
   1421.25122     560.5633     504.0242   1421.25122     560.5633     504.0242
   1421.23596     560.3533     503.7068   1421.23596     560.3533     503.7068
   1421.22070     559.7989     502.5955   1421.22070     559.7989     502.5955
   1421.20544     561.0139     501.9210   1421.20544     561.0139     501.9210
   1421.19019     561.4643     502.4562   1421.19019     561.4643     502.4562
   1421.17493     562.2025     502.1782   1421.17493     562.2025     502.1782
   1421.15967     562.5560     501.6670   1421.15967     562.5560     501.6670
   1421.14441     563.7155     502.6111   1421.14441     563.7155     502.6111
   1421.12915     565.9907     503.0286   1421.12915     565.9907     503.0286
   1421.11389     568.7836     504.7834   1421.11389     568.7836     504.7834
   1421.09863     573.0851     507.8513   1421.09863     573.0851     507.8513
   1421.08337     575.4286     507.9529   1421.08337     575.4286     507.9529
   1421.06812     575.9642     507.5848   1421.06812     575.9642     507.5848
   1421.05286     578.1141     508.5372   1421.05286     578.1141     508.5372
   1421.03760     582.8379     511.7785   1421.03760     582.8379     511.7785
   1421.02234     584.0392     513.2990   1421.02234     584.0392     513.2990
   1421.00708     586.9039     514.6035   1421.00708     586.9039     514.6035
   1420.99182     602.8776     525.8129   1420.99182     602.8776     525.8129
   1420.97656     644.2061     561.2187   1420.97656     644.2061     561.2187
   1420.96130     678.6742     589.1314   1420.96130     678.6742     589.1314
   1420.94604     674.4211     585.6104   1420.94604     674.4211     585.6104
   1420.93079     684.0315     591.5869   1420.93079     684.0315     591.5869
   1420.91553     782.3298     674.2455   1420.91553     782.3298     674.2455
   1420.90027     929.2516     795.0958   1420.90027     929.2516     795.0958
   1420.88501     834.7571     714.6553   1420.88501     834.7571     714.6553
   1420.86975     736.7354     632.8871   1420.86975     736.7354     632.8871
   1420.85449     713.4371     612.1039   1420.85449     713.4371     612.1039
   1420.83923     717.0612     614.2411   1420.83923     717.0612     614.2411
   1420.82397     721.0945     617.1303   1420.82397     721.0945     617.1303
   1420.80872     746.9656     638.2003   1420.80872     746.9656     638.2003
   1420.79346     851.8396     722.8643   1420.79346     851.8396     722.8643
   1420.77820    1007.5695     848.6723   1420.77820    1007.5695     848.6723
   1420.76294    1028.4467     868.1630   1420.76294    1028.4467     868.1630
   1420.74768    1117.3693     942.5790   1420.74768    1117.3693     942.5790
   1420.73242    1371.7974    1148.8649   1420.73242    1371.7974    1148.8649
   1420.71716    1506.3298    1253.9701   1420.71716    1506.3298    1253.9701
   1420.70190    1557.5802    1296.3718   1420.70190    1557.5802    1296.3718
   1420.68665    1571.9321    1304.2170   1420.68665    1571.9321    1304.2170
   1420.67139    1649.7222    1367.4849   1420.67139    1649.7222    1367.4849
   1420.65613    1648.2742    1362.0337   1420.65613    1648.2742    1362.0337
   1420.64087    1563.9926    1293.1235   1420.64087    1563.9926    1293.1235
   1420.62561    1419.6907    1173.5842   1420.62561    1419.6907    1173.5842
   1420.61035    1183.9966     977.6132   1420.61035    1183.9966     977.6132
   1420.59509     964.2230     796.9343   1420.59509     964.2230     796.9343
   1420.57983     828.0527     686.8733   1420.57983     828.0527     686.8733
   1420.56458     797.4313     661.9907   1420.56458     797.4313     661.9907
   1420.54932     817.3608     677.6566   1420.54932     817.3608     677.6566
   1420.53406     997.3994     821.7341   1420.53406     997.3994     821.7341
   1420.51880    1217.1624     998.3248   1420.51880    1217.1624     998.3248
   1420.50354    1261.2960    1029.3939   1420.50354    1261.2960    1029.3939
   1420.48828    1344.8739    1096.3612   1420.48828    1344.8739    1096.3612
   1420.47302    1340.0503    1090.9976   1420.47302    1340.0503    1090.9976
   1420.45776    1282.7479    1043.6970   1420.45776    1282.7479    1043.6970
   1420.44250    1198.4979     974.2886   1420.44250    1198.4979     974.2886
   1420.42725    1097.3693     895.1059   1420.42725    1097.3693     895.1059
   1420.41199     825.7256     676.0943   1420.41199     825.7256     676.0943
   1420.39673     672.4555     551.4747   1420.39673     672.4555     551.4747
   1420.38147     608.2690     499.3919   1420.38147     608.2690     499.3919
   1420.36621     581.9659     478.9123   1420.36621     581.9659     478.9123
   1420.35095     569.6494     468.3861   1420.35095     569.6494     468.3861
   1420.33569     563.4938     463.4502   1420.33569     563.4938     463.4502
   1420.32043     561.4235     460.4969   1420.32043     561.4235     460.4969
   1420.30518     558.6868     458.7500   1420.30518     558.6868     458.7500
   1420.28992     558.0859     457.5237   1420.28992     558.0859     457.5237
   1420.27466     556.8653     455.1735   1420.27466     556.8653     455.1735
   1420.25940     556.5505     454.6075   1420.25940     556.5505     454.6075
   1420.24414     556.1197     453.8471   1420.24414     556.1197     453.8471
   1420.22888     555.0955     452.8079   1420.22888     555.0955     452.8079
   1420.21362     555.1884     451.9774   1420.21362     555.1884     451.9774
   1420.19836     553.7383     451.1558   1420.19836     553.7383     451.1558
   1420.18311     552.6996     449.4059   1420.18311     552.6996     449.4059
   1420.16785     552.0355     448.2368   1420.16785     552.0355     448.2368
   1420.15259     552.0693     447.0276   1420.15259     552.0693     447.0276
   1420.13733     551.9058     446.5577   1420.13733     551.9058     446.5577
   1420.12207     552.2594     445.9439   1420.12207     552.2594     445.9439
   1420.10681     550.5597     445.0732   1420.10681     550.5597     445.0732
   1420.09155     549.6669     443.6623   1420.09155     549.6669     443.6623
   1420.07629     550.5971     443.9405   1420.07629     550.5971     443.9405
   1420.06104     549.2792     442.8758   1420.06104     549.2792     442.8758
   1420.04578     549.2361     442.0441   1420.04578     549.2361     442.0441
   1420.03052     548.9786     441.6440   1420.03052     548.9786     441.6440
   1420.01526     549.8777     442.1354   1420.01526     549.8777     442.1354
   1420.00000     551.0770     443.0877   1420.00000     551.0770     443.0877
   1419.98474     552.2767     444.0396   1419.98474     552.2767     444.0396
   1419.96948     551.4259     441.9426   1419.96948     551.4259     441.9426
   1419.95422     549.1349     440.8128   1419.95422     549.1349     440.8128
   1419.93896     548.9288     439.4709   1419.93896     548.9288     439.4709
   1419.92371     548.7917     439.2051   1419.92371     548.7917     439.2051
   1419.90845     549.5004     438.6403   1419.90845     549.5004     438.6403
   1419.89319     549.3337     438.5271   1419.89319     549.3337     438.5271
   1419.87793     549.4514     437.7126   1419.87793     549.4514     437.7126
   1419.86267     549.7847     438.2444   1419.86267     549.7847     438.2444
   1419.84741     548.5400     437.6357   1419.84741     548.5400     437.6357
   1419.83215     550.1708     437.0857   1419.83215     550.1708     437.0857
   1419.81689     550.2027     436.7962   1419.81689     550.2027     436.7962
   1419.80164     549.5449     437.6414   1419.80164     549.5449     437.6414
   1419.78638     550.0332     436.0359   1419.78638     550.0332     436.0359
   1419.77112     549.2712     436.4315   1419.77112     549.2712     436.4315
   1419.75586     550.3246     435.8669   1419.75586     550.3246     435.8669
   1419.74060     550.7900     435.8641   1419.74060     550.7900     435.8641
   1419.72534     550.4119     435.8613   1419.72534     550.4119     435.8613
   1419.71008     549.5641     435.7387   1419.71008     549.5641     435.7387
   1419.69482     550.7530     435.3053   1419.69482     550.7530     435.3053
   1419.67957     550.8497     435.1196   1419.67957     550.8497     435.1196
   1419.66431     550.1991     434.7857   1419.66431     550.1991     434.7857
   1419.64905     551.5219     435.1546   1419.64905     551.5219     435.1546
   1419.63379     550.7516     434.7415   1419.63379     550.7516     434.7415
   1419.61853     551.4528     434.3948   1419.61853     551.4528     434.3948
   1419.60327     551.1393     434.4938   1419.60327     551.1393     434.4938
   1419.58801     552.1949     433.5352   1419.58801     552.1949     433.5352
   1419.57275     552.1673     434.6366   1419.57275     552.1673     434.6366
   1419.55750     552.1751     434.1946   1419.55750     552.1751     434.1946
   1419.54224     551.9790     434.8307   1419.54224     551.9790     434.8307
   1419.52698     552.9025     433.4930   1419.52698     552.9025     433.4930
   1419.51172     552.7243     433.8744   1419.51172     552.7243     433.8744
   1419.49646     552.7692     434.0516   1419.49646     552.7692     434.0516
   1419.48120     553.4166     434.2720   1419.48120     553.4166     434.2720
   1419.46594     553.8000     434.3708   1419.46594     553.8000     434.3708
   1419.45068     553.3394     434.0844   1419.45068     553.3394     434.0844
   1419.43542     552.9063     434.6894   1419.43542     552.9063     434.6894
   1419.42017     554.8973     434.1262   1419.42017     554.8973     434.1262
   1419.40491     555.0049     434.7674   1419.40491     555.0049     434.7674
   1419.38965     555.1618     435.6775   1419.38965     555.1618     435.6775
   1419.37439     554.4608     434.5818   1419.37439     554.4608     434.5818
   1419.35913     555.4436     434.4516   1419.35913     555.4436     434.4516
   1419.34387     554.0958     435.1398   1419.34387     554.0958     435.1398
   1419.32861     556.0712     435.7203   1419.32861     556.0712     435.7203
   1419.31335     556.8170     435.4758   1419.31335     556.8170     435.4758
   1419.29810     555.7471     435.5259   1419.29810     555.7471     435.5259
   1419.28284     556.4827     435.5994   1419.28284     556.4827     435.5994
   1419.26758     557.5801     436.0687   1419.26758     557.5801     436.0687
   1419.25232     556.6094     436.2453   1419.25232     556.6094     436.2453
   1419.23706     557.3893     436.6347   1419.23706     557.3893     436.6347
   1419.22180     557.0262     436.6363   1419.22180     557.0262     436.6363
   1419.20654     557.8591     436.2625   1419.20654     557.8591     436.2625
   1419.19128     557.9337     436.4855   1419.19128     557.9337     436.4855
   1419.17603     558.3928     437.2632   1419.17603     558.3928     437.2632
   1419.16077     557.7520     436.8199   1419.16077     557.7520     436.8199
   1419.14551     559.1663     437.0385   1419.14551     559.1663     437.0385
   1419.13025     559.0340     437.9965   1419.13025     559.0340     437.9965
   1419.11499     559.9813     438.0145   1419.11499     559.9813     438.0145
   1419.09973     559.2447     439.0013   1419.09973     559.2447     439.0013
   1419.08447     561.0680     439.0790   1419.08447     561.0680     439.0790
   1419.06921     561.1746     439.4862   1419.06921     561.1746     439.4862
   1419.05396     561.2331     439.5137   1419.05396     561.2331     439.5137
   1419.03870     561.3882     439.5999   1419.03870     561.3882     439.5999
   1419.02344     562.4827     440.5937   1419.02344     562.4827     440.5937
   1419.00818     562.1961     441.1550   1419.00818     562.1961     441.1550
   1418.99292     562.4890     441.7153   1418.99292     562.4890     441.7153
   1418.97766     563.0886     441.7088   1418.97766     563.0886     441.7088
   1418.96240     563.0016     442.5467   1418.96240     563.0016     442.5467
   1418.94714     562.2728     442.9398   1418.94714     562.2728     442.9398
   1418.93188     563.3949     443.5958   1418.93188     563.3949     443.5958
   1418.91663     564.7902     443.7618   1418.91663     564.7902     443.7618
   1418.90137     564.5264     443.5604   1418.90137     564.5264     443.5604
   1418.88611     565.5183     445.1536   1418.88611     565.5183     445.1536
   1418.87085     565.0212     444.6027   1418.87085     565.0212     444.6027
   1418.85559     565.2878     445.5409   1418.85559     565.2878     445.5409
   1418.84033     566.8242     446.4379   1418.84033     566.8242     446.4379
   1418.82507     566.7142     447.2759   1418.82507     566.7142     447.2759
   1418.80981     567.8431     447.3485   1418.80981     567.8431     447.3485
   1418.79456     567.0179     447.7677   1418.79456     567.0179     447.7677
   1418.77930     568.8202     448.6665   1418.77930     568.8202     448.6665
   1418.76404     568.1504     448.7879   1418.76404     568.1504     448.7879
   1418.74878     568.0994     449.5967   1418.74878     568.0994     449.5967
   1418.73352     569.7483     450.3203   1418.73352     569.7483     450.3203
   1418.71826     569.9963     450.9884   1418.71826     569.9963     450.9884
   1418.70300     570.8931     451.1627   1418.70300     570.8931     451.1627
   1418.68774     570.8176     451.9529   1418.68774     570.8176     451.9529
   1418.67249     571.2232     453.0468   1418.67249     571.2232     453.0468
   1418.65723     571.9860     453.1918   1418.65723     571.9860     453.1918
   1418.64197     572.7363     454.2657   1418.64197     572.7363     454.2657
   1418.62671     572.8858     454.2330   1418.62671     572.8858     454.2330
   1418.61145     573.1918     454.9661   1418.61145     573.1918     454.9661
   1418.59619     574.1925     456.4489   1418.59619     574.1925     456.4489
   1418.58093     574.1345     455.9134   1418.58093     574.1345     455.9134
   1418.56567     575.1446     457.3804   1418.56567     575.1446     457.3804
   1418.55042     575.3297     458.1308   1418.55042     575.3297     458.1308
   1418.53516     576.1426     458.6826   1418.53516     576.1426     458.6826
   1418.51990     576.2350     459.9879   1418.51990     576.2350     459.9879
   1418.50464     577.3057     459.8631   1418.50464     577.3057     459.8631
   1418.48938     578.0065     461.9265   1418.48938     578.0065     461.9265
   1418.47412     576.8479     461.3888   1418.47412     576.8479     461.3888
   1418.45886     577.5139     463.0786   1418.45886     577.5139     463.0786
   1418.44360     578.5877     463.8605   1418.44360     578.5877     463.8605
   1418.42834     579.7641     464.4265   1418.42834     579.7641     464.4265
   1418.41309     579.5701     465.1138   1418.41309     579.5701     465.1138
   1418.39783     581.2684     465.6271   1418.39783     581.2684     465.6271
   1418.38257     580.3990     467.6658   1418.38257     580.3990     467.6658
   1418.36731     582.8009     467.4487   1418.36731     582.8009     467.4487
   1418.35205     582.2678     468.2746   1418.35205     582.2678     468.2746
   1418.33679     581.5378     469.4799   1418.33679     581.5378     469.4799
   1418.32153     582.9260     470.5274   1418.32153     582.9260     470.5274
   1418.30627     583.9320     471.4229   1418.30627     583.9320     471.4229
   1418.29102     585.1259     471.9080   1418.29102     585.1259     471.9080
   1418.27576     586.0818     473.2091   1418.27576     586.0818     473.2091
   1418.26050     586.2370     473.9532   1418.26050     586.2370     473.9532
   1418.24524     585.9119     475.6074   1418.24524     585.9119     475.6074
   1418.22998     587.3959     475.9890   1418.22998     587.3959     475.9890
   1418.21472     587.7885     476.2691   1418.21472     587.7885     476.2691
   1418.19946     588.0732     477.4451   1418.19946     588.0732     477.4451
   1418.18420     588.8521     478.9454   1418.18420     588.8521     478.9454
   1418.16895     589.0117     479.4883   1418.16895     589.0117     479.4883
   1418.15369     590.0680     480.4171   1418.15369     590.0680     480.4171
   1418.13843     590.5459     481.8846   1418.13843     590.5459     481.8846
   1418.12317     592.0022     482.5753   1418.12317     592.0022     482.5753
   1418.10791     592.2455     483.4721   1418.10791     592.2455     483.4721
   1418.09265     592.6039     484.4883   1418.09265     592.6039     484.4883
   1418.07739     594.0464     485.1516   1418.07739     594.0464     485.1516
   1418.06213     594.6790     486.1036   1418.06213     594.6790     486.1036
   1418.04688     593.9316     487.6075   1418.04688     593.9316     487.6075
   1418.03162     595.6288     488.9326   1418.03162     595.6288     488.9326
   1418.01636     596.1762     490.3718   1418.01636     596.1762     490.3718
   1418.00110     596.5018     490.9568   1418.00110     596.5018     490.9568
   1417.98584     596.5521     491.4434   1417.98584     596.5521     491.4434
   1417.97058     598.0015     493.4092   1417.97058     598.0015     493.4092
   1417.95532     598.0306     494.1727   1417.95532     598.0306     494.1727
   1417.94006     599.0056     495.2216   1417.94006     599.0056     495.2216
   1417.92480     600.1193     495.3683   1417.92480     600.1193     495.3683
   1417.90955     600.3923     497.4624   1417.90955     600.3923     497.4624
   1417.89429     601.2270     498.1682   1417.89429     601.2270     498.1682
   1417.87903     602.2610     499.1193   1417.87903     602.2610     499.1193
   1417.86377     601.7845     500.2799   1417.86377     601.7845     500.2799
   1417.84851     603.4640     501.6921   1417.84851     603.4640     501.6921
   1417.83325     603.6006     502.1493   1417.83325     603.6006     502.1493
   1417.81799     604.4681     502.8676   1417.81799     604.4681     502.8676
   1417.80273     606.2974     504.0272   1417.80273     606.2974     504.0272
   1417.78748     605.8421     506.2915   1417.78748     605.8421     506.2915
   1417.77222     606.1591     506.5370   1417.77222     606.1591     506.5370
   1417.75696     607.5931     507.9721   1417.75696     607.5931     507.9721
   1417.74170     608.9060     509.1262   1417.74170     608.9060     509.1262
   1417.72644     608.7408     511.0172   1417.72644     608.7408     511.0172
   1417.71118     609.6133     511.3290   1417.71118     609.6133     511.3290
   1417.69592     609.9440     511.5569   1417.69592     609.9440     511.5569
   1417.68066     611.6185     513.4817   1417.68066     611.6185     513.4817
   1417.66541     611.7373     515.1221   1417.66541     611.7373     515.1221
   1417.65015     612.0881     516.5657   1417.65015     612.0881     516.5657
   1417.63489     612.4265     517.0858   1417.63489     612.4265     517.0858
   1417.61963     613.6273     518.1284   1417.61963     613.6273     518.1284
   1417.60437     614.6113     519.4379   1417.60437     614.6113     519.4379
   1417.58911     614.5575     520.5068   1417.58911     614.5575     520.5068
   1417.57385     615.3137     522.0586   1417.57385     615.3137     522.0586
   1417.55859     616.2008     522.0756   1417.55859     616.2008     522.0756
   1417.54333     616.7653     523.7086   1417.54333     616.7653     523.7086
   1417.52808     617.3800     524.6308   1417.52808     617.3800     524.6308
   1417.51282     616.8909     526.1148   1417.51282     616.8909     526.1148
   1417.49756     618.7353     527.0647   1417.49756     618.7353     527.0647
   1417.48230     619.8629     527.6749   1417.48230     619.8629     527.6749
   1417.46704     620.2658     528.3909   1417.46704     620.2658     528.3909
   1417.45178     621.0402     530.0796   1417.45178     621.0402     530.0796
   1417.43652     621.5953     531.5073   1417.43652     621.5953     531.5073
   1417.42126     621.4968     532.6378   1417.42126     621.4968     532.6378
   1417.40601     622.7281     534.4851   1417.40601     622.7281     534.4851
   1417.39075     623.9502     534.1309   1417.39075     623.9502     534.1309
   1417.37549     623.8387     535.8549   1417.37549     623.8387     535.8549
   1417.36023     625.0627     536.4716   1417.36023     625.0627     536.4716
   1417.34497     625.0705     537.5114   1417.34497     625.0705     537.5114
   1417.32971     625.3676     538.2709   1417.32971     625.3676     538.2709
   1417.31445     626.0624     539.5855   1417.31445     626.0624     539.5855
   1417.29919     626.4311     540.7560   1417.29919     626.4311     540.7560
   1417.28394     627.5649     541.9075   1417.28394     627.5649     541.9075
   1417.26868     629.2018     543.5804   1417.26868     629.2018     543.5804
   1417.25342     629.9415     544.3748   1417.25342     629.9415     544.3748
   1417.23816     630.0423     545.0864   1417.23816     630.0423     545.0864
   1417.22290     630.5220     546.3137   1417.22290     630.5220     546.3137
   1417.20764     630.4802     546.4193   1417.20764     630.4802     546.4193
   1417.19238     632.2285     548.3057   1417.19238     632.2285     548.3057
   1417.17712     632.1691     548.2025   1417.17712     632.1691     548.2025
   1417.16187     632.2212     550.2448   1417.16187     632.2212     550.2448
   1417.14661     632.8895     551.4338   1417.14661     632.8895     551.4338
   1417.13135     633.1744     550.7978   1417.13135     633.1744     550.7978
   1417.11609     633.9417     552.2250   1417.11609     633.9417     552.2250
   1417.10083     635.7031     554.3087   1417.10083     635.7031     554.3087
   1417.08557     635.5394     553.6909   1417.08557     635.5394     553.6909
   1417.07031     635.6713     555.4746   1417.07031     635.6713     555.4746
   1417.05505     636.3769     556.3665   1417.05505     636.3769     556.3665
   1417.03979     636.7759     556.9300   1417.03979     636.7759     556.9300
   1417.02454     636.6692     557.6613   1417.02454     636.6692     557.6613
   1417.00928     637.1931     557.4406   1417.00928     637.1931     557.4406
   1416.99402     637.5639     560.0208   1416.99402     637.5639     560.0208
   1416.97876     638.3464     559.9777   1416.97876     638.3464     559.9777
   1416.96350     639.2206     560.9977   1416.96350     639.2206     560.9977
   1416.94824     638.3890     561.4857   1416.94824     638.3890     561.4857
   1416.93298     640.2388     562.2877   1416.93298     640.2388     562.2877
   1416.91772     641.0642     562.6798   1416.91772     641.0642     562.6798
   1416.90247     640.8205     563.6665   1416.90247     640.8205     563.6665
   1416.88721     641.5122     563.7941   1416.88721     641.5122     563.7941
   1416.87195     642.5816     564.7335   1416.87195     642.5816     564.7335
   1416.85669     642.2028     565.3887   1416.85669     642.2028     565.3887
   1416.84143     642.7570     565.7846   1416.84143     642.7570     565.7846
   1416.82617     642.7468     566.3054   1416.82617     642.7468     566.3054
   1416.81091     642.0167     567.1734   1416.81091     642.0167     567.1734
   1416.79565     643.4338     567.3195   1416.79565     643.4338     567.3195
   1416.78040     643.2437     567.9086   1416.78040     643.2437     567.9086
   1416.76514     643.9200     568.3238   1416.76514     643.9200     568.3238
   1416.74988     644.3893     568.0701   1416.74988     644.3893     568.0701
   1416.73462     644.9201     568.7996   1416.73462     644.9201     568.7996
   1416.71936     644.8655     569.5334   1416.71936     644.8655     569.5334
   1416.70410     645.0071     569.4647   1416.70410     645.0071     569.4647
   1416.68884     644.6371     569.4531   1416.68884     644.6371     569.4531
   1416.67358     645.3794     570.1808   1416.67358     645.3794     570.1808
   1416.65833     645.5381     570.4005   1416.65833     645.5381     570.4005
   1416.64307     644.9637     570.2900   1416.64307     644.9637     570.2900
   1416.62781     645.8102     570.8785   1416.62781     645.8102     570.8785
   1416.61255     645.6420     570.5824   1416.61255     645.6420     570.5824
   1416.59729     645.9029     571.9734   1416.59729     645.9029     571.9734
   1416.58203     646.0433     571.3503   1416.58203     646.0433     571.3503
   1416.56677     645.5754     570.2125   1416.56677     645.5754     570.2125
   1416.55151     646.2090     571.7646   1416.55151     646.2090     571.7646
   1416.53625     646.9952     571.1564   1416.53625     646.9952     571.1564
   1416.52100     646.2715     570.7142   1416.52100     646.2715     570.7142
   1416.50574     647.6290     570.9649   1416.50574     647.6290     570.9649
   1416.49048     647.1237     571.8841   1416.49048     647.1237     571.8841
   1416.47522     646.6006     571.3457   1416.47522     646.6006     571.3457
   1416.45996     646.5800     570.8848   1416.45996     646.5800     570.8848
   1416.44470     646.7053     570.0153   1416.44470     646.7053     570.0153
   1416.42944     646.5710     571.1478   1416.42944     646.5710     571.1478
   1416.41418     647.4460     569.7568   1416.41418     647.4460     569.7568
   1416.39893     646.2295     569.4171   1416.39893     646.2295     569.4171
   1416.38367     646.2056     569.3308   1416.38367     646.2056     569.3308
   1416.36841     646.0606     568.4693   1416.36841     646.0606     568.4693
   1416.35315     645.8800     569.1380   1416.35315     645.8800     569.1380
   1416.33789     646.0120     569.1940   1416.33789     646.0120     569.1940
   1416.32263     646.9918     568.2741   1416.32263     646.9918     568.2741
   1416.30737     645.7983     568.6461   1416.30737     645.7983     568.6461
   1416.29211     646.1246     567.8122   1416.29211     646.1246     567.8122
   1416.27686     645.9062     567.9052   1416.27686     645.9062     567.9052
   1416.26160     645.9415     567.7142   1416.26160     645.9415     567.7142
   1416.24634     645.9327     566.4150   1416.24634     645.9327     566.4150
   1416.23108     645.2921     566.1884   1416.23108     645.2921     566.1884
   1416.21582     645.4562     565.2129   1416.21582     645.4562     565.2129
   1416.20056     644.7509     565.1047   1416.20056     644.7509     565.1047
   1416.18530     644.7946     564.4482   1416.18530     644.7946     564.4482
   1416.17004     644.9005     564.6892   1416.17004     644.9005     564.6892
   1416.15479     644.9868     563.2830   1416.15479     644.9868     563.2830
   1416.13953     644.2097     562.5002   1416.13953     644.2097     562.5002
   1416.12427     643.6781     562.4432   1416.12427     643.6781     562.4432
   1416.10901     643.8626     561.6899   1416.10901     643.8626     561.6899
   1416.09375     643.7428     561.1379   1416.09375     643.7428     561.1379
   1416.07849     642.5694     561.0931   1416.07849     642.5694     561.0931
   1416.06323     643.4614     559.7408   1416.06323     643.4614     559.7408
   1416.04797     643.1166     558.6992   1416.04797     643.1166     558.6992
   1416.03271     642.3162     558.7331   1416.03271     642.3162     558.7331
   1416.01746     642.0507     558.4179   1416.01746     642.0507     558.4179
   1416.00220     640.9170     556.1139   1416.00220     640.9170     556.1139
   1415.98694     640.9239     556.7844   1415.98694     640.9239     556.7844
   1415.97168     640.9011     555.9797   1415.97168     640.9011     555.9797
   1415.95642     641.5823     554.8057   1415.95642     641.5823     554.8057
   1415.94116     640.3787     554.5352   1415.94116     640.3787     554.5352
   1415.92590     638.8064     554.1045   1415.92590     638.8064     554.1045
   1415.91064     639.5310     552.7723   1415.91064     639.5310     552.7723
   1415.89539     638.8895     552.0526   1415.89539     638.8895     552.0526
   1415.88013     639.1837     551.5326   1415.88013     639.1837     551.5326
   1415.86487     637.9865     549.9725   1415.86487     637.9865     549.9725
   1415.84961     637.7843     550.1930   1415.84961     637.7843     550.1930
   1415.83435     637.3121     549.1852   1415.83435     637.3121     549.1852
   1415.81909     636.1810     549.4933   1415.81909     636.1810     549.4933
   1415.80383     636.5752     547.2061   1415.80383     636.5752     547.2061
   1415.78857     635.7751     546.0834   1415.78857     635.7751     546.0834
   1415.77332     635.5804     546.5632   1415.77332     635.5804     546.5632
   1415.75806     634.8651     546.7319   1415.75806     634.8651     546.7319
   1415.74280     633.1677     544.5975   1415.74280     633.1677     544.5975
   1415.72754     633.2121     543.3608   1415.72754     633.2121     543.3608
   1415.71228     633.7548     542.5624   1415.71228     633.7548     542.5624
   1415.69702     632.3623     542.6453   1415.69702     632.3623     542.6453
   1415.68176     632.3234     542.5464   1415.68176     632.3234     542.5464
   1415.66650     631.0663     539.5761   1415.66650     631.0663     539.5761
   1415.65125     630.7731     539.7364   1415.65125     630.7731     539.7364
   1415.63599     630.4369     539.0309   1415.63599     630.4369     539.0309
   1415.62073     628.8342     537.6442   1415.62073     628.8342     537.6442
   1415.60547     628.7255     536.8100   1415.60547     628.7255     536.8100
   1415.59021     628.1179     535.7864   1415.59021     628.1179     535.7864
   1415.57495     628.6594     535.7684   1415.57495     628.6594     535.7684
   1415.55969     627.2430     534.4417   1415.55969     627.2430     534.4417
   1415.54443     626.2269     533.4396   1415.54443     626.2269     533.4396
   1415.52917     624.6677     532.2694   1415.52917     624.6677     532.2694
   1415.51392     624.5341     531.5853   1415.51392     624.5341     531.5853
   1415.49866     623.6215     529.8731   1415.49866     623.6215     529.8731
   1415.48340     623.8378     529.5441   1415.48340     623.8378     529.5441
   1415.46814     623.0059     528.7839   1415.46814     623.0059     528.7839
   1415.45288     621.7307     527.6279   1415.45288     621.7307     527.6279
   1415.43762     620.9613     526.0007   1415.43762     620.9613     526.0007
   1415.42236     620.8940     526.2860   1415.42236     620.8940     526.2860
   1415.40710     620.1146     524.3745   1415.40710     620.1146     524.3745
   1415.39185     619.2283     524.5159   1415.39185     619.2283     524.5159
   1415.37659     617.8040     523.2603   1415.37659     617.8040     523.2603
   1415.36133     616.3020     521.6308   1415.36133     616.3020     521.6308
   1415.34607     616.6882     521.3209   1415.34607     616.6882     521.3209
   1415.33081     615.9610     519.6903   1415.33081     615.9610     519.6903
   1415.31555     614.8582     519.1172   1415.31555     614.8582     519.1172
   1415.30029     613.9556     517.9670   1415.30029     613.9556     517.9670
   1415.28503     612.5171     516.4466   1415.28503     612.5171     516.4466
   1415.26978     611.7197     516.2272   1415.26978     611.7197     516.2272
   1415.25452     610.6198     514.8972   1415.25452     610.6198     514.8972
   1415.23926     609.1829     513.4025   1415.23926     609.1829     513.4025
   1415.22400     609.1011     512.6088   1415.22400     609.1011     512.6088
   1415.20874     607.7163     511.1188   1415.20874     607.7163     511.1188
   1415.19348     606.5748     510.7241   1415.19348     606.5748     510.7241
   1415.17822     606.8311     510.7553   1415.17822     606.8311     510.7553
   1415.16296     604.2737     509.2617   1415.16296     604.2737     509.2617
   1415.14771     603.3389     507.3492   1415.14771     603.3389     507.3492
   1415.13245     601.4065     505.8753   1415.13245     601.4065     505.8753
   1415.11719     602.1564     505.4675   1415.11719     602.1564     505.4675
   1415.10193     599.8257     504.7803   1415.10193     599.8257     504.7803
   1415.08667     599.4578     502.3810   1415.08667     599.4578     502.3810
   1415.07141     598.5911     502.3070   1415.07141     598.5911     502.3070
   1415.05615     596.4804     501.0048   1415.05615     596.4804     501.0048
   1415.04089     595.5570     499.6638   1415.04089     595.5570     499.6638
   1415.02563     594.9090     498.2764   1415.02563     594.9090     498.2764
   1415.01038     593.4855     497.1475   1415.01038     593.4855     497.1475
   1414.99512     592.0773     496.0945   1414.99512     592.0773     496.0945
   1414.97986     590.5558     494.9409   1414.97986     590.5558     494.9409
   1414.96460     589.2833     493.6614   1414.96460     589.2833     493.6614
   1414.94934     588.6790     492.4351   1414.94934     588.6790     492.4351
   1414.93408     586.5046     491.0260   1414.93408     586.5046     491.0260
   1414.91882     585.3934     490.2955   1414.91882     585.3934     490.2955
   1414.90356     584.7960     489.8156   1414.90356     584.7960     489.8156
   1414.88831     583.9577     487.9984   1414.88831     583.9577     487.9984
   1414.87305     581.8356     486.8585   1414.87305     581.8356     486.8585
   1414.85779     579.2513     485.1734   1414.85779     579.2513     485.1734
   1414.84253     578.2654     483.4969   1414.84253     578.2654     483.4969
   1414.82727     576.4946     482.6624   1414.82727     576.4946     482.6624
   1414.81201     576.0920     481.4789   1414.81201     576.0920     481.4789
   1414.79675     574.0266     479.8924   1414.79675     574.0266     479.8924
   1414.78149     571.5938     479.4427   1414.78149     571.5938     479.4427
   1414.76624     570.8526     477.1878   1414.76624     570.8526     477.1878
   1414.75098     569.2115     476.8257   1414.75098     569.2115     476.8257
   1414.73572     568.8289     475.3730   1414.73572     568.8289     475.3730
   1414.72046     566.4360     473.9334   1414.72046     566.4360     473.9334
   1414.70520     565.5418     471.6338   1414.70520     565.5418     471.6338
   1414.68994     563.5327     471.0419   1414.68994     563.5327     471.0419
   1414.67468     561.3768     469.5506   1414.67468     561.3768     469.5506
   1414.65942     558.9472     468.0185   1414.65942     558.9472     468.0185
   1414.64417     559.2241     466.6041   1414.64417     559.2241     466.6041
   1414.62891     557.4297     465.3241   1414.62891     557.4297     465.3241
   1414.61365     555.3659     463.6995   1414.61365     555.3659     463.6995
   1414.59839     553.3730     462.5945   1414.59839     553.3730     462.5945
   1414.58313     551.5778     460.8233   1414.58313     551.5778     460.8233
   1414.56787     549.4918     459.9059   1414.56787     549.4918     459.9059
   1414.55261     548.0128     458.1838   1414.55261     548.0128     458.1838
   1414.53735     545.2329     456.6233   1414.53735     545.2329     456.6233
   1414.52209     544.1107     455.0731   1414.52209     544.1107     455.0731
   1414.50684     543.4302     453.6815   1414.50684     543.4302     453.6815
   1414.49158     541.2840     452.1345   1414.49158     541.2840     452.1345
   1414.47632     539.2944     450.8087   1414.47632     539.2944     450.8087
   1414.46106     537.4534     449.7556   1414.46106     537.4534     449.7556
   1414.44580     535.3074     447.5182   1414.44580     535.3074     447.5182
   1414.43054     533.9852     446.1382   1414.43054     533.9852     446.1382
   1414.41528     531.6088     444.8857   1414.41528     531.6088     444.8857
   1414.40002     528.7449     444.4637   1414.40002     528.7449     444.4637
   1414.38477     527.1120     441.1747   1414.38477     527.1120     441.1747
   1414.36951     525.1119     440.3322   1414.36951     525.1119     440.3322
   1414.35425     523.7000     438.7326   1414.35425     523.7000     438.7326
   1414.33899     522.1379     437.1263   1414.33899     522.1379     437.1263
   1414.32373     519.4644     435.5200   1414.32373     519.4644     435.5200
   1414.30847     517.1816     434.1453   1414.30847     517.1816     434.1453
   1414.29321     515.5058     432.2875   1414.29321     515.5058     432.2875
   1414.27795     513.6347     430.6852   1414.27795     513.6347     430.6852
   1414.26270     511.7241     428.9213   1414.26270     511.7241     428.9213
   1414.24744     510.0009     427.5911   1414.24744     510.0009     427.5911
   1414.23218     507.3671     425.1075   1414.23218     507.3671     425.1075
   1414.21692     504.8319     423.3532   1414.21692     504.8319     423.3532
   1414.20166     503.0871     422.6137   1414.20166     503.0871     422.6137
   1414.18640     500.5006     421.2778   1414.18640     500.5006     421.2778
   1414.17114     498.7747     419.4344   1414.17114     498.7747     419.4344
   1414.15588     495.8776     418.1221   1414.15588     495.8776     418.1221
   1414.14062     494.3658     416.3029   1414.14062     494.3658     416.3029
   1414.12537     492.4925     414.8737   1414.12537     492.4925     414.8737
   1414.11011     489.8548     411.9895   1414.11011     489.8548     411.9895
   1414.09485     488.0146     410.2439   1414.09485     488.0146     410.2439
   1414.07959     485.4624     409.0051   1414.07959     485.4624     409.0051
   1414.06433     483.0952     407.2167   1414.06433     483.0952     407.2167
   1414.04907     481.3831     405.2472   1414.04907     481.3831     405.2472
   1414.03381     479.0625     404.1660   1414.03381     479.0625     404.1660
   1414.01855     476.6032     402.5919   1414.01855     476.6032     402.5919
   1414.00330     487.8521     407.7109   1414.00330     487.8521     407.7109
   1413.98804     472.0945     399.0167   1413.98804     472.0945     399.0167
   1413.97278     469.1249     397.2023   1413.97278     469.1249     397.2023
   1413.95752     467.6797     395.7190   1413.95752     467.6797     395.7190
   1413.94226     464.5604     394.2315   1413.94226     464.5604     394.2315
   1413.92700     463.0666     391.3157   1413.92700     463.0666     391.3157
   1413.91174     460.2825     389.7180   1413.91174     460.2825     389.7180
   1413.89648     457.5803     388.3807   1413.89648     457.5803     388.3807
   1413.88123     455.4725     386.6284   1413.88123     455.4725     386.6284
   1413.86597     453.2541     385.3599   1413.86597     453.2541     385.3599
   1413.85071     451.3101     383.4011   1413.85071     451.3101     383.4011
   1413.83545     448.4493     381.3379   1413.83545     448.4493     381.3379
   1413.82019     446.7995     379.7177   1413.82019     446.7995     379.7177
   1413.80493     443.9243     377.5398   1413.80493     443.9243     377.5398
   1413.78967     442.3773     376.5969   1413.78967     442.3773     376.5969
   1413.77441     438.4721     374.3150   1413.77441     438.4721     374.3150
   1413.75916     436.8705     372.5128   1413.75916     436.8705     372.5128
   1413.74390     434.0593     371.0292   1413.74390     434.0593     371.0292
   1413.72864     432.5523     369.3089   1413.72864     432.5523     369.3089
   1413.71338     429.5610     368.1402   1413.71338     429.5610     368.1402
   1413.69812     428.1823     365.1149   1413.69812     428.1823     365.1149
   1413.68286     425.1469     363.9142   1413.68286     425.1469     363.9142
   1413.66760     422.8192     362.2410   1413.66760     422.8192     362.2410
   1413.65234     419.6351     360.1725   1413.65234     419.6351     360.1725
   1413.63708     417.9873     359.2992   1413.63708     417.9873     359.2992
   1413.62183     415.9555     356.6229   1413.62183     415.9555     356.6229
   1413.60657     413.2213     355.5597   1413.60657     413.2213     355.5597
   1413.59131     411.0830     353.3841   1413.59131     411.0830     353.3841
   1413.57605     408.4039     352.2431   1413.57605     408.4039     352.2431
   1413.56079     406.3209     350.5456   1413.56079     406.3209     350.5456
   1413.54553     403.6770     348.3729   1413.54553     403.6770     348.3729
   1413.53027     401.1202     346.9385   1413.53027     401.1202     346.9385
   1413.51501     399.5731     344.7204   1413.51501     399.5731     344.7204
   1413.49976     397.0841     343.2778   1413.49976     397.0841     343.2778
   1413.48450     394.4231     341.8219   1413.48450     394.4231     341.8219
   1413.46924     392.3059     340.6310   1413.46924     392.3059     340.6310
   1413.45398     390.3034     338.9115   1413.45398     390.3034     338.9115
   1413.43872     388.0970     337.1352   1413.43872     388.0970     337.1352
   1413.42346     385.8800     334.6672   1413.42346     385.8800     334.6672
   1413.40820     383.0474     333.7109   1413.40820     383.0474     333.7109
   1413.39294     380.7718     331.9371   1413.39294     380.7718     331.9371
   1413.37769     378.8621     329.8801   1413.37769     378.8621     329.8801
   1413.36243     376.6245     328.2721   1413.36243     376.6245     328.2721
   1413.34717     374.7723     327.2945   1413.34717     374.7723     327.2945
   1413.33191     371.9492     325.6763   1413.33191     371.9492     325.6763
   1413.31665     370.0666     323.6716   1413.31665     370.0666     323.6716
   1413.30139     368.7393     322.5030   1413.30139     368.7393     322.5030
   1413.28613     365.8651     320.7596   1413.28613     365.8651     320.7596
   1413.27087     363.3984     319.1689   1413.27087     363.3984     319.1689
   1413.25562     361.9626     318.1123   1413.25562     361.9626     318.1123
   1413.24036     359.6494     316.4251   1413.24036     359.6494     316.4251
   1413.22510     358.1579     314.7804   1413.22510     358.1579     314.7804
   1413.20984     355.3659     313.8919   1413.20984     355.3659     313.8919
   1413.19458     354.1143     312.0655   1413.19458     354.1143     312.0655
   1413.17932     351.6202     310.5914   1413.17932     351.6202     310.5914
   1413.16406     349.4928     309.6198   1413.16406     349.4928     309.6198
   1413.14880     347.9901     308.1784   1413.14880     347.9901     308.1784
   1413.13354     345.9371     306.3617   1413.13354     345.9371     306.3617
   1413.11829     344.3711     305.6760   1413.11829     344.3711     305.6760
   1413.10303     342.5591     303.9237   1413.10303     342.5591     303.9237
   1413.08777     339.8434     302.5747   1413.08777     339.8434     302.5747
   1413.07251     338.7764     301.6718   1413.07251     338.7764     301.6718
   1413.05725     336.8657     300.3125   1413.05725     336.8657     300.3125
   1413.04199     334.8968     299.0829   1413.04199     334.8968     299.0829
   1413.02673     333.2090     297.9442   1413.02673     333.2090     297.9442
   1413.01147     331.4423     296.7568   1413.01147     331.4423     296.7568
   1412.99622     329.6689     295.8828   1412.99622     329.6689     295.8828
   1412.98096     328.6378     294.6078   1412.98096     328.6378     294.6078
   1412.96570     326.5510     293.9336   1412.96570     326.5510     293.9336
   1412.95044     325.0972     292.2416   1412.95044     325.0972     292.2416
   1412.93518     323.6494     291.3890   1412.93518     323.6494     291.3890
   1412.91992     321.8895     290.4306   1412.91992     321.8895     290.4306
   1412.90466     320.6018     289.9804   1412.90466     320.6018     289.9804
   1412.88940     319.0893     288.7094   1412.88940     319.0893     288.7094
   1412.87415     317.4483     288.0154   1412.87415     317.4483     288.0154
   1412.85889     316.1926     287.0114   1412.85889     316.1926     287.0114
   1412.84363     315.0262     286.2570   1412.84363     315.0262     286.2570
   1412.82837     313.3876     285.5823   1412.82837     313.3876     285.5823
   1412.81311     312.3581     284.3517   1412.81311     312.3581     284.3517
   1412.79785     311.2331     283.5119   1412.79785     311.2331     283.5119
   1412.78259     309.9454     282.8239   1412.78259     309.9454     282.8239
   1412.76733     308.5327     281.8697   1412.76733     308.5327     281.8697
   1412.75208     307.3658     281.5310   1412.75208     307.3658     281.5310
   1412.73682     306.2561     280.4894   1412.73682     306.2561     280.4894
   1412.72156     305.4839     280.3987   1412.72156     305.4839     280.3987
   1412.70630     304.6469     280.4517   1412.70630     304.6469     280.4517
   1412.69104     303.4931     279.2935   1412.69104     303.4931     279.2935
   1412.67578     302.6851     278.8227   1412.67578     302.6851     278.8227
   1412.66052     301.6971     278.3269   1412.66052     301.6971     278.3269
   1412.64526     300.5960     277.9721   1412.64526     300.5960     277.9721
   1412.63000     299.5353     278.0887   1412.63000     299.5353     278.0887
   1412.61475     299.3851     277.5222   1412.61475     299.3851     277.5222
   1412.59949     298.4057     277.5907   1412.59949     298.4057     277.5907
   1412.58423     297.2343     276.9348   1412.58423     297.2343     276.9348
   1412.56897     297.1337     276.5425   1412.56897     297.1337     276.5425
   1412.55371     296.2891     276.1657   1412.55371     296.2891     276.1657
   1412.53845     295.8446     276.6498   1412.53845     295.8446     276.6498
   1412.52319     296.0541     275.9947   1412.52319     296.0541     275.9947
   1412.50793     295.1003     276.2289   1412.50793     295.1003     276.2289
   1412.49268     294.5124     275.9025   1412.49268     294.5124     275.9025
   1412.47742     293.8403     276.1424   1412.47742     293.8403     276.1424
   1412.46216     293.3539     276.0663   1412.46216     293.3539     276.0663
   1412.44690     293.4117     276.5263   1412.44690     293.4117     276.5263
   1412.43164     293.1874     276.6897   1412.43164     293.1874     276.6897
   1412.41638     293.0909     276.7556   1412.41638     293.0909     276.7556
   1412.40112     292.7135     276.7469   1412.40112     292.7135     276.7469
   1412.38586     292.6954     277.1337   1412.38586     292.6954     277.1337
   1412.37061     292.2423     277.3216   1412.37061     292.2423     277.3216
   1412.35535     292.9464     277.6205   1412.35535     292.9464     277.6205
   1412.34009     292.6505     278.0771   1412.34009     292.6505     278.0771
   1412.32483     292.4949     278.2707   1412.32483     292.4949     278.2707
   1412.30957     293.0399     278.9577   1412.30957     293.0399     278.9577
   1412.29431     292.9058     279.4855   1412.29431     292.9058     279.4855
   1412.27905     292.9333     279.9496   1412.27905     292.9333     279.9496
   1412.26379     293.1844     280.8098   1412.26379     293.1844     280.8098
   1412.24854     293.5731     281.6370   1412.24854     293.5731     281.6370
   1412.23328     294.2262     281.3012   1412.23328     294.2262     281.3012
   1412.21802     294.5510     282.8375   1412.21802     294.5510     282.8375
   1412.20276     294.3984     283.2235   1412.20276     294.3984     283.2235