#     FILENAME=!Skynet_57528_lach-hhg-108_20370_20915.cyb.fits
#     BASENAME=Skynet_57528_lach-hhg-108_20370_20915
#     SRC_NAME=lach-hhg-108
#     OBSERVER=hhgmadison16_9500
#     DATE_OBS=2016-05-20T15:39:25.870
#        OBSID=20370
#      SCANNUM=20915
#          MJD=57528.6534
#          UTC=56455
#     SCANTYPE=track
#     DATAMODE=HIRES
#     TUNEFREQ=1420.0000
# Actual_FREQ1=1420.0000
# Actual_FREQ2=1420.0000
#    LO1Tuning=6870.000
#     RFFILTER=1355_1435
#        OBSBW=-15.6250
#        NCHAN=1024 
#        FOCUS=37.0709
#           RA=22:50:18.18
#          DEC=59:18:34.94
#      RA(hrs)=22.838400
#     DEC(deg)=59.309700
#    AZIM(deg)=319.672
#    ELEV(deg)=51.694
#     IFattens=10.00, 10.00
#      WARNING=None
#    TCAL_XL1=7.9635
#    TCAL_YR1=9.1340
#    TCAL_XL2=7.9635
#    TCAL_YR2=9.1340
#     TRX_XL1=11.7060
#     TRX_YR1=11.7060
#     TRX_XL2=11.7060
#     TRX_YR2=11.7060
#        TAVE=1.0000
#Freq1(MHz)          XL1          YR1  Freq2(MHz)          XL2          YR2 

   1427.81250     295.6664     288.8744   1427.81250     295.6664     288.8744
   1427.79724     295.4391     290.2030   1427.79724     295.4391     290.2030
   1427.78198     296.4448     290.7420   1427.78198     296.4448     290.7420
   1427.76672     296.5670     291.3925   1427.76672     296.5670     291.3925
   1427.75146     297.3823     292.5862   1427.75146     297.3823     292.5862
   1427.73621     298.0835     293.6898   1427.73621     298.0835     293.6898
   1427.72095     298.6817     294.3883   1427.72095     298.6817     294.3883
   1427.70569     299.7454     295.5571   1427.70569     299.7454     295.5571
   1427.69043     300.5830     296.4273   1427.69043     300.5830     296.4273
   1427.67517     301.0636     297.8665   1427.67517     301.0636     297.8665
   1427.65991     301.9340     299.2756   1427.65991     301.9340     299.2756
   1427.64465     303.2689     299.8469   1427.64465     303.2689     299.8469
   1427.62939     304.3565     301.9010   1427.62939     304.3565     301.9010
   1427.61414     304.7426     302.9854   1427.61414     304.7426     302.9854
   1427.59888     305.9955     304.4045   1427.59888     305.9955     304.4045
   1427.58362     307.1501     305.1121   1427.58362     307.1501     305.1121
   1427.56836     307.7140     306.5086   1427.56836     307.7140     306.5086
   1427.55310     309.3537     308.2865   1427.55310     309.3537     308.2865
   1427.53784     310.3637     309.5929   1427.53784     310.3637     309.5929
   1427.52258     311.7652     311.4327   1427.52258     311.7652     311.4327
   1427.50732     313.3257     312.6423   1427.50732     313.3257     312.6423
   1427.49207     314.5428     314.4604   1427.49207     314.5428     314.4604
   1427.47681     315.9430     315.7123   1427.47681     315.9430     315.7123
   1427.46155     317.0976     318.0959   1427.46155     317.0976     318.0959
   1427.44629     318.3082     319.2646   1427.44629     318.3082     319.2646
   1427.43103     320.2103     321.4836   1427.43103     320.2103     321.4836
   1427.41577     321.5540     322.8319   1427.41577     321.5540     322.8319
   1427.40051     322.9226     324.2361   1427.40051     322.9226     324.2361
   1427.38525     325.2996     325.6034   1427.38525     325.2996     325.6034
   1427.37000     326.4156     328.0118   1427.37000     326.4156     328.0118
   1427.35474     327.9119     329.5024   1427.35474     327.9119     329.5024
   1427.33948     330.3572     332.1031   1427.33948     330.3572     332.1031
   1427.32422     331.5722     333.5088   1427.32422     331.5722     333.5088
   1427.30896     333.0261     335.3078   1427.30896     333.0261     335.3078
   1427.29370     335.5977     337.2871   1427.29370     335.5977     337.2871
   1427.27844     336.8037     339.8631   1427.27844     336.8037     339.8631
   1427.26318     339.2335     341.5116   1427.26318     339.2335     341.5116
   1427.24792     340.3406     343.1238   1427.24792     340.3406     343.1238
   1427.23267     342.4335     345.6846   1427.23267     342.4335     345.6846
   1427.21741     344.2711     347.2024   1427.21741     344.2711     347.2024
   1427.20215     346.5884     349.6953   1427.20215     346.5884     349.6953
   1427.18689     348.5219     351.3157   1427.18689     348.5219     351.3157
   1427.17163     350.2318     353.7055   1427.17163     350.2318     353.7055
   1427.15637     352.1478     355.3175   1427.15637     352.1478     355.3175
   1427.14111     354.5636     357.7454   1427.14111     354.5636     357.7454
   1427.12585     356.9785     359.8076   1427.12585     356.9785     359.8076
   1427.11060     358.0493     362.4328   1427.11060     358.0493     362.4328
   1427.09534     360.3369     364.8982   1427.09534     360.3369     364.8982
   1427.08008     363.1333     366.6263   1427.08008     363.1333     366.6263
   1427.06482     364.7266     369.0727   1427.06482     364.7266     369.0727
   1427.04956     367.0657     371.2101   1427.04956     367.0657     371.2101
   1427.03430     369.7751     373.4561   1427.03430     369.7751     373.4561
   1427.01904     372.0946     375.8674   1427.01904     372.0946     375.8674
   1427.00378     374.1158     377.6764   1427.00378     374.1158     377.6764
   1426.98853     375.8238     380.1248   1426.98853     375.8238     380.1248
   1426.97327     378.6269     383.1285   1426.97327     378.6269     383.1285
   1426.95801     380.6076     384.7559   1426.95801     380.6076     384.7559
   1426.94275     382.7449     387.1327   1426.94275     382.7449     387.1327
   1426.92749     385.4090     389.6911   1426.92749     385.4090     389.6911
   1426.91223     387.0142     391.2530   1426.91223     387.0142     391.2530
   1426.89697     390.4427     394.7005   1426.89697     390.4427     394.7005
   1426.88171     392.3314     396.2520   1426.88171     392.3314     396.2520
   1426.86646     394.1804     399.4039   1426.86646     394.1804     399.4039
   1426.85120     396.5730     400.8230   1426.85120     396.5730     400.8230
   1426.83594     399.9358     403.6653   1426.83594     399.9358     403.6653
   1426.82068     402.2230     405.4296   1426.82068     402.2230     405.4296
   1426.80542     403.9257     408.2665   1426.80542     403.9257     408.2665
   1426.79016     406.7368     410.5076   1426.79016     406.7368     410.5076
   1426.77490     408.8754     413.0997   1426.77490     408.8754     413.0997
   1426.75964     411.2687     414.8515   1426.75964     411.2687     414.8515
   1426.74438     413.7132     416.9321   1426.74438     413.7132     416.9321
   1426.72913     416.2670     419.1713   1426.72913     416.2670     419.1713
   1426.71387     418.8956     422.3058   1426.71387     418.8956     422.3058
   1426.69861     421.5255     424.1293   1426.69861     421.5255     424.1293
   1426.68335     424.0103     426.5452   1426.68335     424.0103     426.5452
   1426.66809     425.8502     428.5057   1426.66809     425.8502     428.5057
   1426.65283     428.3671     431.3653   1426.65283     428.3671     431.3653
   1426.63757     431.2018     433.3496   1426.63757     431.2018     433.3496
   1426.62231     436.5991     440.2051   1426.62231     436.5991     440.2051
   1426.60706     436.6542     438.4657   1426.60706     436.6542     438.4657
   1426.59180     438.0099     439.6459   1426.59180     438.0099     439.6459
   1426.57654     440.9398     442.0879   1426.57654     440.9398     442.0879
   1426.56128     443.2827     444.7416   1426.56128     443.2827     444.7416
   1426.54602     445.4354     447.6055   1426.54602     445.4354     447.6055
   1426.53076     447.3133     449.5441   1426.53076     447.3133     449.5441
   1426.51550     449.7509     451.0634   1426.51550     449.7509     451.0634
   1426.50024     453.4007     452.9308   1426.50024     453.4007     452.9308
   1426.48499     455.3919     456.1926   1426.48499     455.3919     456.1926
   1426.46973     457.7253     458.1714   1426.46973     457.7253     458.1714
   1426.45447     459.3728     460.4218   1426.45447     459.3728     460.4218
   1426.43921     462.8097     462.5000   1426.43921     462.8097     462.5000
   1426.42395     464.4949     464.9597   1426.42395     464.4949     464.9597
   1426.40869     466.6998     466.4758   1426.40869     466.6998     466.4758
   1426.39343     469.3581     467.8666   1426.39343     469.3581     467.8666
   1426.37817     471.2373     470.3402   1426.37817     471.2373     470.3402
   1426.36292     473.7027     472.8923   1426.36292     473.7027     472.8923
   1426.34766     476.3094     474.6255   1426.34766     476.3094     474.6255
   1426.33240     478.5888     477.0707   1426.33240     478.5888     477.0707
   1426.31714     480.6830     479.2236   1426.31714     480.6830     479.2236
   1426.30188     482.6866     481.1530   1426.30188     482.6866     481.1530
   1426.28662     484.9782     483.1124   1426.28662     484.9782     483.1124
   1426.27136     487.2389     485.3766   1426.27136     487.2389     485.3766
   1426.25610     489.8473     487.8816   1426.25610     489.8473     487.8816
   1426.24084     491.8819     489.6465   1426.24084     491.8819     489.6465
   1426.22559     493.9012     491.8218   1426.22559     493.9012     491.8218
   1426.21033     496.1252     493.7234   1426.21033     496.1252     493.7234
   1426.19507     498.4849     496.3548   1426.19507     498.4849     496.3548
   1426.17981     501.2400     497.4772   1426.17981     501.2400     497.4772
   1426.16455     503.1892     499.3065   1426.16455     503.1892     499.3065
   1426.14929     505.6205     500.4886   1426.14929     505.6205     500.4886
   1426.13403     506.9240     502.2695   1426.13403     506.9240     502.2695
   1426.11877     508.4255     504.1800   1426.11877     508.4255     504.1800
   1426.10352     511.3073     505.8542   1426.10352     511.3073     505.8542
   1426.08826     513.0554     509.3607   1426.08826     513.0554     509.3607
   1426.07300     514.7739     509.9673   1426.07300     514.7739     509.9673
   1426.05774     516.7092     512.4960   1426.05774     516.7092     512.4960
   1426.04248     518.8003     513.4968   1426.04248     518.8003     513.4968
   1426.02722     520.6400     515.3428   1426.02722     520.6400     515.3428
   1426.01196     523.2025     517.6707   1426.01196     523.2025     517.6707
   1425.99670     524.3821     519.2377   1425.99670     524.3821     519.2377
   1425.98145     526.8015     520.2949   1425.98145     526.8015     520.2949
   1425.96619     528.4878     521.9730   1425.96619     528.4878     521.9730
   1425.95093     529.9149     524.3796   1425.95093     529.9149     524.3796
   1425.93567     532.5067     525.8264   1425.93567     532.5067     525.8264
   1425.92041     532.9652     527.3552   1425.92041     532.9652     527.3552
   1425.90515     535.6407     529.3061   1425.90515     535.6407     529.3061
   1425.88989     537.9895     530.9405   1425.88989     537.9895     530.9405
   1425.87463     539.2314     532.7614   1425.87463     539.2314     532.7614
   1425.85938     539.7068     533.2491   1425.85938     539.7068     533.2491
   1425.84412     542.0100     536.0035   1425.84412     542.0100     536.0035
   1425.82886     543.5934     537.0997   1425.82886     543.5934     537.0997
   1425.81360     545.5699     538.2149   1425.81360     545.5699     538.2149
   1425.79834     546.5748     540.2824   1425.79834     546.5748     540.2824
   1425.78308     549.2949     541.4191   1425.78308     549.2949     541.4191
   1425.76782     549.6245     543.6447   1425.76782     549.6245     543.6447
   1425.75256     552.1681     543.9171   1425.75256     552.1681     543.9171
   1425.73730     553.1275     546.3057   1425.73730     553.1275     546.3057
   1425.72205     554.1403     547.1501   1425.72205     554.1403     547.1501
   1425.70679     555.7303     549.1459   1425.70679     555.7303     549.1459
   1425.69153     557.1243     551.0535   1425.69153     557.1243     551.0535
   1425.67627     558.7689     551.9908   1425.67627     558.7689     551.9908
   1425.66101     559.0532     553.3967   1425.66101     559.0532     553.3967
   1425.64575     561.6732     555.1120   1425.64575     561.6732     555.1120
   1425.63049     562.3857     556.2444   1425.63049     562.3857     556.2444
   1425.61523     563.8336     557.9672   1425.61523     563.8336     557.9672
   1425.59998     565.1481     559.1458   1425.59998     565.1481     559.1458
   1425.58472     566.6946     559.0848   1425.58472     566.6946     559.0848
   1425.56946     567.9098     560.8514   1425.56946     567.9098     560.8514
   1425.55420     567.7894     561.4998   1425.55420     567.7894     561.4998
   1425.53894     569.3711     563.8779   1425.53894     569.3711     563.8779
   1425.52368     570.2777     564.7087   1425.52368     570.2777     564.7087
   1425.50842     571.5317     566.7675   1425.50842     571.5317     566.7675
   1425.49316     572.5371     567.1410   1425.49316     572.5371     567.1410
   1425.47791     574.1928     568.7947   1425.47791     574.1928     568.7947
   1425.46265     575.4222     568.9247   1425.46265     575.4222     568.9247
   1425.44739     576.2592     571.2526   1425.44739     576.2592     571.2526
   1425.43213     576.9534     572.0753   1425.43213     576.9534     572.0753
   1425.41687     578.5684     573.7156   1425.41687     578.5684     573.7156
   1425.40161     577.8224     574.5609   1425.40161     577.8224     574.5609
   1425.38635     578.5506     574.7665   1425.38635     578.5506     574.7665
   1425.37109     579.8503     577.1665   1425.37109     579.8503     577.1665
   1425.35583     581.4771     577.1439   1425.35583     581.4771     577.1439
   1425.34058     582.9697     578.8464   1425.34058     582.9697     578.8464
   1425.32532     583.3943     579.0106   1425.32532     583.3943     579.0106
   1425.31006     584.3344     580.9922   1425.31006     584.3344     580.9922
   1425.29480     585.0722     580.7122   1425.29480     585.0722     580.7122
   1425.27954     584.8671     582.7690   1425.27954     584.8671     582.7690
   1425.26428     586.7761     583.5703   1425.26428     586.7761     583.5703
   1425.24902     587.6187     584.9111   1425.24902     587.6187     584.9111
   1425.23376     586.9937     585.2509   1425.23376     586.9937     585.2509
   1425.21851     587.3445     586.6797   1425.21851     587.3445     586.6797
   1425.20325     588.0189     587.3831   1425.20325     588.0189     587.3831
   1425.18799     588.3193     587.9612   1425.18799     588.3193     587.9612
   1425.17273     589.2861     589.2145   1425.17273     589.2861     589.2145
   1425.15747     590.9231     590.1202   1425.15747     590.9231     590.1202
   1425.14221     591.8068     591.0428   1425.14221     591.8068     591.0428
   1425.12695     591.0489     592.3804   1425.12695     591.0489     592.3804
   1425.11169     591.9004     592.8108   1425.11169     591.9004     592.8108
   1425.09644     592.6646     593.7186   1425.09644     592.6646     593.7186
   1425.08118     593.4741     594.5447   1425.08118     593.4741     594.5447
   1425.06592     592.8262     594.9426   1425.06592     592.8262     594.9426
   1425.05066     594.3332     596.1259   1425.05066     594.3332     596.1259
   1425.03540     593.8270     597.1828   1425.03540     593.8270     597.1828
   1425.02014     595.5988     597.6301   1425.02014     595.5988     597.6301
   1425.00488     595.4977     599.2233   1425.00488     595.4977     599.2233
   1424.98962     593.9406     599.7397   1424.98962     593.9406     599.7397
   1424.97437     595.8582     599.3779   1424.97437     595.8582     599.3779
   1424.95911     596.2170     600.4371   1424.95911     596.2170     600.4371
   1424.94385     595.5809     601.6565   1424.94385     595.5809     601.6565
   1424.92859     596.8339     602.1824   1424.92859     596.8339     602.1824
   1424.91333     597.1680     602.2411   1424.91333     597.1680     602.2411
   1424.89807     596.7236     603.5875   1424.89807     596.7236     603.5875
   1424.88281     597.6367     604.1698   1424.88281     597.6367     604.1698
   1424.86755     597.0380     604.7554   1424.86755     597.0380     604.7554
   1424.85229     597.5262     606.1552   1424.85229     597.5262     606.1552
   1424.83704     597.8065     607.9481   1424.83704     597.8065     607.9481
   1424.82178     598.1544     607.8570   1424.82178     598.1544     607.8570
   1424.80652     599.0581     608.6247   1424.80652     599.0581     608.6247
   1424.79126     597.6111     609.3075   1424.79126     597.6111     609.3075
   1424.77600     599.0882     609.4183   1424.77600     599.0882     609.4183
   1424.76074     598.7516     610.1519   1424.76074     598.7516     610.1519
   1424.74548     599.0151     610.8448   1424.74548     599.0151     610.8448
   1424.73022     599.1307     611.6765   1424.73022     599.1307     611.6765
   1424.71497     598.5626     612.5284   1424.71497     598.5626     612.5284
   1424.69971     599.5614     612.1713   1424.69971     599.5614     612.1713
   1424.68445     599.3112     613.2388   1424.68445     599.3112     613.2388
   1424.66919     600.0403     613.1707   1424.66919     600.0403     613.1707
   1424.65393     599.5218     613.7410   1424.65393     599.5218     613.7410
   1424.63867     599.2300     614.6365   1424.63867     599.2300     614.6365
   1424.62341     599.3101     615.3870   1424.62341     599.3101     615.3870
   1424.60815     599.2955     615.6140   1424.60815     599.2955     615.6140
   1424.59290     599.5764     616.9805   1424.59290     599.5764     616.9805
   1424.57764     598.9153     617.1719   1424.57764     598.9153     617.1719
   1424.56238     599.7780     617.5544   1424.56238     599.7780     617.5544
   1424.54712     597.8950     618.8292   1424.54712     597.8950     618.8292
   1424.53186     598.8634     618.2233   1424.53186     598.8634     618.2233
   1424.51660     599.1134     619.3654   1424.51660     599.1134     619.3654
   1424.50134     599.1374     620.0047   1424.50134     599.1374     620.0047
   1424.48608     598.6791     621.1372   1424.48608     598.6791     621.1372
   1424.47083     599.5550     620.1928   1424.47083     599.5550     620.1928
   1424.45557     599.3393     621.3553   1424.45557     599.3393     621.3553
   1424.44031     599.6546     621.8256   1424.44031     599.6546     621.8256
   1424.42505     598.9727     622.4683   1424.42505     598.9727     622.4683
   1424.40979     598.7262     622.5558   1424.40979     598.7262     622.5558
   1424.39453     598.0295     623.4239   1424.39453     598.0295     623.4239
   1424.37927     599.5800     623.4531   1424.37927     599.5800     623.4531
   1424.36401     598.6465     624.7010   1424.36401     598.6465     624.7010
   1424.34875     597.6823     624.7402   1424.34875     597.6823     624.7402
   1424.33350     598.4958     624.4903   1424.33350     598.4958     624.4903
   1424.31824     598.7276     625.4549   1424.31824     598.7276     625.4549
   1424.30298     598.2923     625.4958   1424.30298     598.2923     625.4958
   1424.28772     598.2261     626.0204   1424.28772     598.2261     626.0204
   1424.27246     598.2123     627.2159   1424.27246     598.2123     627.2159
   1424.25720     597.2256     627.5085   1424.25720     597.2256     627.5085
   1424.24194     597.2031     628.2698   1424.24194     597.2031     628.2698
   1424.22668     597.2231     627.0588   1424.22668     597.2231     627.0588
   1424.21143     596.3153     628.0750   1424.21143     596.3153     628.0750
   1424.19617     596.6232     629.1387   1424.19617     596.6232     629.1387
   1424.18091     596.7977     629.1724   1424.18091     596.7977     629.1724
   1424.16565     596.8632     629.6849   1424.16565     596.8632     629.6849
   1424.15039     595.7197     629.4149   1424.15039     595.7197     629.4149
   1424.13513     595.4316     630.4979   1424.13513     595.4316     630.4979
   1424.11987     596.1671     630.0458   1424.11987     596.1671     630.0458
   1424.10461     595.7620     630.7893   1424.10461     595.7620     630.7893
   1424.08936     595.3698     631.0737   1424.08936     595.3698     631.0737
   1424.07410     595.4648     631.9873   1424.07410     595.4648     631.9873
   1424.05884     595.8528     631.9718   1424.05884     595.8528     631.9718
   1424.04358     595.2980     631.2936   1424.04358     595.2980     631.2936
   1424.02832     594.7656     632.6873   1424.02832     594.7656     632.6873
   1424.01306     594.3849     631.7816   1424.01306     594.3849     631.7816
   1423.99780     594.7297     633.3823   1423.99780     594.7297     633.3823
   1423.98254     594.1177     633.5991   1423.98254     594.1177     633.5991
   1423.96729     594.1707     633.6660   1423.96729     594.1707     633.6660
   1423.95203     594.0070     634.1710   1423.95203     594.0070     634.1710
   1423.93677     593.6061     634.4764   1423.93677     593.6061     634.4764
   1423.92151     592.5349     633.7595   1423.92151     592.5349     633.7595
   1423.90625     592.9139     634.6681   1423.90625     592.9139     634.6681
   1423.89099     593.4778     635.0663   1423.89099     593.4778     635.0663
   1423.87573     592.5767     635.7429   1423.87573     592.5767     635.7429
   1423.86047     592.6587     636.8342   1423.86047     592.6587     636.8342
   1423.84521     591.8212     636.5539   1423.84521     591.8212     636.5539
   1423.82996     591.6514     635.6925   1423.82996     591.6514     635.6925
   1423.81470     591.5515     637.0441   1423.81470     591.5515     637.0441
   1423.79944     591.4821     636.7767   1423.79944     591.4821     636.7767
   1423.78418     591.7836     636.1255   1423.78418     591.7836     636.1255
   1423.76892     590.6235     637.4052   1423.76892     590.6235     637.4052
   1423.75366     589.8450     636.8798   1423.75366     589.8450     636.8798
   1423.73840     590.6274     637.7017   1423.73840     590.6274     637.7017
   1423.72314     590.0771     637.9398   1423.72314     590.0771     637.9398
   1423.70789     590.3016     637.7999   1423.70789     590.3016     637.7999
   1423.69263     589.5289     638.8121   1423.69263     589.5289     638.8121
   1423.67737     589.6355     638.9625   1423.67737     589.6355     638.9625
   1423.66211     589.6990     638.0590   1423.66211     589.6990     638.0590
   1423.64685     589.2448     638.5458   1423.64685     589.2448     638.5458
   1423.63159     589.7746     638.1450   1423.63159     589.7746     638.1450
   1423.61633     587.8729     638.5230   1423.61633     587.8729     638.5230
   1423.60107     587.3459     640.2310   1423.60107     587.3459     640.2310
   1423.58582     588.6502     639.9975   1423.58582     588.6502     639.9975
   1423.57056     588.0038     638.6425   1423.57056     588.0038     638.6425
   1423.55530     587.4371     639.8751   1423.55530     587.4371     639.8751
   1423.54004     587.2193     639.8814   1423.54004     587.2193     639.8814
   1423.52478     586.8699     639.6433   1423.52478     586.8699     639.6433
   1423.50952     586.6769     639.7254   1423.50952     586.6769     639.7254
   1423.49426     587.3732     638.6476   1423.49426     587.3732     638.6476
   1423.47900     586.8004     639.6125   1423.47900     586.8004     639.6125
   1423.46375     587.2102     639.2654   1423.46375     587.2102     639.2654
   1423.44849     586.5990     639.0510   1423.44849     586.5990     639.0510
   1423.43323     585.9437     639.8764   1423.43323     585.9437     639.8764
   1423.41797     586.1227     639.7461   1423.41797     586.1227     639.7461
   1423.40271     585.2313     639.6284   1423.40271     585.2313     639.6284
   1423.38745     585.6964     639.8051   1423.38745     585.6964     639.8051
   1423.37219     584.5966     638.5390   1423.37219     584.5966     638.5390
   1423.35693     585.2841     639.0429   1423.35693     585.2841     639.0429
   1423.34167     585.4579     640.3366   1423.34167     585.4579     640.3366
   1423.32642     584.5901     639.0645   1423.32642     584.5901     639.0645
   1423.31116     584.5336     638.1780   1423.31116     584.5336     638.1780
   1423.29590     584.3231     638.6969   1423.29590     584.3231     638.6969
   1423.28064     583.2993     639.2061   1423.28064     583.2993     639.2061
   1423.26538     583.6926     637.8720   1423.26538     583.6926     637.8720
   1423.25012     584.1412     638.4462   1423.25012     584.1412     638.4462
   1423.23486     582.6801     638.8718   1423.23486     582.6801     638.8718
   1423.21960     582.4000     639.2851   1423.21960     582.4000     639.2851
   1423.20435     582.8307     638.5060   1423.20435     582.8307     638.5060
   1423.18909     582.3493     637.6669   1423.18909     582.3493     637.6669
   1423.17383     582.5903     639.9993   1423.17383     582.5903     639.9993
   1423.15857     582.2096     639.0441   1423.15857     582.2096     639.0441
   1423.14331     581.1964     636.4944   1423.14331     581.1964     636.4944
   1423.12805     581.6149     638.1288   1423.12805     581.6149     638.1288
   1423.11279     581.6977     637.3063   1423.11279     581.6977     637.3063
   1423.09753     580.9747     636.9598   1423.09753     580.9747     636.9598
   1423.08228     581.4825     636.1367   1423.08228     581.4825     636.1367
   1423.06702     581.5543     634.9006   1423.06702     581.5543     634.9006
   1423.05176     580.2092     636.3005   1423.05176     580.2092     636.3005
   1423.03650     579.8993     635.7077   1423.03650     579.8993     635.7077
   1423.02124     580.2247     634.6689   1423.02124     580.2247     634.6689
   1423.00598     580.4936     634.6266   1423.00598     580.4936     634.6266
   1422.99072     580.2568     634.7491   1422.99072     580.2568     634.7491
   1422.97546     579.9179     633.9776   1422.97546     579.9179     633.9776
   1422.96021     579.5880     633.7335   1422.96021     579.5880     633.7335
   1422.94495     578.6904     632.4570   1422.94495     578.6904     632.4570
   1422.92969     579.3100     632.1947   1422.92969     579.3100     632.1947
   1422.91443     579.6879     632.2236   1422.91443     579.6879     632.2236
   1422.89917     579.0375     631.6889   1422.89917     579.0375     631.6889
   1422.88391     578.5889     631.2429   1422.88391     578.5889     631.2429
   1422.86865     578.5351     630.1765   1422.86865     578.5351     630.1765
   1422.85339     577.8657     628.2789   1422.85339     577.8657     628.2789
   1422.83813     577.9445     629.4943   1422.83813     577.9445     629.4943
   1422.82288     577.4954     629.5892   1422.82288     577.4954     629.5892
   1422.80762     578.1968     628.3027   1422.80762     578.1968     628.3027
   1422.79236     577.0312     628.7720   1422.79236     577.0312     628.7720
   1422.77710     576.3845     628.0558   1422.77710     576.3845     628.0558
   1422.76184     577.1335     626.4049   1422.76184     577.1335     626.4049
   1422.74658     576.8712     626.6583   1422.74658     576.8712     626.6583
   1422.73132     576.2004     625.6925   1422.73132     576.2004     625.6925
   1422.71606     577.2760     624.6120   1422.71606     577.2760     624.6120
   1422.70081     576.1962     624.6342   1422.70081     576.1962     624.6342
   1422.68555     576.5607     623.6422   1422.68555     576.5607     623.6422
   1422.67029     576.0331     622.8905   1422.67029     576.0331     622.8905
   1422.65503     575.1162     623.4319   1422.65503     575.1162     623.4319
   1422.63977     575.8596     621.3796   1422.63977     575.8596     621.3796
   1422.62451     576.2150     620.7123   1422.62451     576.2150     620.7123
   1422.60925     576.0970     620.2515   1422.60925     576.0970     620.2515
   1422.59399     575.2339     620.3237   1422.59399     575.2339     620.3237
   1422.57874     574.4673     618.2903   1422.57874     574.4673     618.2903
   1422.56348     574.3600     618.3189   1422.56348     574.3600     618.3189
   1422.54822     574.6360     617.0019   1422.54822     574.6360     617.0019
   1422.53296     574.8782     615.9990   1422.53296     574.8782     615.9990
   1422.51770     573.5532     614.8354   1422.51770     573.5532     614.8354
   1422.50244     573.8694     615.3394   1422.50244     573.8694     615.3394
   1422.48718     574.8682     614.2023   1422.48718     574.8682     614.2023
   1422.47192     573.8362     613.3425   1422.47192     573.8362     613.3425
   1422.45667     573.7508     612.0326   1422.45667     573.7508     612.0326
   1422.44141     572.4933     611.9429   1422.44141     572.4933     611.9429
   1422.42615     573.1938     610.4608   1422.42615     573.1938     610.4608
   1422.41089     573.4012     610.3254   1422.41089     573.4012     610.3254
   1422.39563     574.3942     609.3669   1422.39563     574.3942     609.3669
   1422.38037     573.1857     608.2005   1422.38037     573.1857     608.2005
   1422.36511     573.1141     606.5603   1422.36511     573.1141     606.5603
   1422.34985     572.8972     605.7232   1422.34985     572.8972     605.7232
   1422.33459     572.9817     605.2141   1422.33459     572.9817     605.2141
   1422.31934     572.0432     604.9232   1422.31934     572.0432     604.9232
   1422.30408     571.5609     602.4707   1422.30408     571.5609     602.4707
   1422.28882     572.1970     602.0737   1422.28882     572.1970     602.0737
   1422.27356     571.6921     601.6913   1422.27356     571.6921     601.6913
   1422.25830     571.5831     599.6053   1422.25830     571.5831     599.6053
   1422.24304     572.8257     598.8400   1422.24304     572.8257     598.8400
   1422.22778     571.3571     599.3464   1422.22778     571.3571     599.3464
   1422.21252     571.4337     597.3616   1422.21252     571.4337     597.3616
   1422.19727     570.8147     595.5768   1422.19727     570.8147     595.5768
   1422.18201     571.3747     595.3182   1422.18201     571.3747     595.3182
   1422.16675     570.5580     594.1060   1422.16675     570.5580     594.1060
   1422.15149     571.0989     593.0137   1422.15149     571.0989     593.0137
   1422.13623     570.2275     592.8433   1422.13623     570.2275     592.8433
   1422.12097     569.4894     590.7394   1422.12097     569.4894     590.7394
   1422.10571     570.7648     588.9988   1422.10571     570.7648     588.9988
   1422.09045     569.7473     588.3602   1422.09045     569.7473     588.3602
   1422.07520     569.8110     587.5922   1422.07520     569.8110     587.5922
   1422.05994     569.7360     586.1958   1422.05994     569.7360     586.1958
   1422.04468     570.8542     585.8574   1422.04468     570.8542     585.8574
   1422.02942     570.1064     583.6731   1422.02942     570.1064     583.6731
   1422.01416     568.7410     583.0029   1422.01416     568.7410     583.0029
   1421.99890     568.6360     581.9699   1421.99890     568.6360     581.9699
   1421.98364     568.9609     580.1711   1421.98364     568.9609     580.1711
   1421.96838     567.7519     579.0128   1421.96838     567.7519     579.0128
   1421.95312     567.8285     578.4774   1421.95312     567.8285     578.4774
   1421.93787     567.4121     576.7247   1421.93787     567.4121     576.7247
   1421.92261     568.2413     575.7783   1421.92261     568.2413     575.7783
   1421.90735     567.6164     575.0892   1421.90735     567.6164     575.0892
   1421.89209     568.1104     573.6055   1421.89209     568.1104     573.6055
   1421.87683     566.8156     572.6910   1421.87683     566.8156     572.6910
   1421.86157     566.5505     570.9998   1421.86157     566.5505     570.9998
   1421.84631     566.2759     569.7679   1421.84631     566.2759     569.7679
   1421.83105     566.6855     568.6841   1421.83105     566.6855     568.6841
   1421.81580     566.7919     566.8787   1421.81580     566.7919     566.8787
   1421.80054     566.4340     566.3920   1421.80054     566.4340     566.3920
   1421.78528     567.0175     564.7886   1421.78528     567.0175     564.7886
   1421.77002     566.7642     564.4597   1421.77002     566.7642     564.4597
   1421.75476     565.8059     562.3178   1421.75476     565.8059     562.3178
   1421.73950     565.8284     561.0547   1421.73950     565.8284     561.0547
   1421.72424     566.4026     559.9023   1421.72424     566.4026     559.9023
   1421.70898     565.7540     558.7644   1421.70898     565.7540     558.7644
   1421.69373     565.1582     557.3237   1421.69373     565.1582     557.3237
   1421.67847     564.6550     555.5047   1421.67847     564.6550     555.5047
   1421.66321     564.6583     554.2825   1421.66321     564.6583     554.2825
   1421.64795     564.7113     552.5224   1421.64795     564.7113     552.5224
   1421.63269     563.4361     552.4672   1421.63269     563.4361     552.4672
   1421.61743     563.7360     550.5059   1421.61743     563.7360     550.5059
   1421.60217     564.4998     549.4619   1421.60217     564.4998     549.4619
   1421.58691     563.4494     547.7783   1421.58691     563.4494     547.7783
   1421.57166     563.8337     546.3058   1421.57166     563.8337     546.3058
   1421.55640     563.9285     545.5095   1421.55640     563.9285     545.5095
   1421.54114     563.3985     544.0187   1421.54114     563.3985     544.0187
   1421.52588     562.8130     542.3135   1421.52588     562.8130     542.3135
   1421.51062     563.6562     541.4429   1421.51062     563.6562     541.4429
   1421.49536     563.2034     539.7747   1421.49536     563.2034     539.7747
   1421.48010     562.6041     538.9651   1421.48010     562.6041     538.9651
   1421.46484     562.2496     537.6465   1421.46484     562.2496     537.6465
   1421.44958     562.2469     536.5676   1421.44958     562.2469     536.5676
   1421.43433     562.1562     535.1116   1421.43433     562.1562     535.1116
   1421.41907     561.9430     533.2726   1421.41907     561.9430     533.2726
   1421.40381     561.5374     532.8060   1421.40381     561.5374     532.8060
   1421.38855     561.3624     531.2030   1421.38855     561.3624     531.2030
   1421.37329     562.0527     529.7593   1421.37329     562.0527     529.7593
   1421.35803     561.4208     528.9815   1421.35803     561.4208     528.9815
   1421.34277     561.3472     527.1542   1421.34277     561.3472     527.1542
   1421.32751     561.7328     525.8854   1421.32751     561.7328     525.8854
   1421.31226     561.1880     525.9855   1421.31226     561.1880     525.9855
   1421.29700     561.7288     523.4406   1421.29700     561.7288     523.4406
   1421.28174     561.5442     523.5361   1421.28174     561.5442     523.5361
   1421.26648     561.1966     522.7477   1421.26648     561.1966     522.7477
   1421.25122     562.1252     520.9500   1421.25122     562.1252     520.9500
   1421.23596     562.0967     520.4957   1421.23596     562.0967     520.4957
   1421.22070     563.2708     519.4539   1421.22070     563.2708     519.4539
   1421.20544     562.9833     519.2294   1421.20544     562.9833     519.2294
   1421.19019     563.9699     519.3626   1421.19019     563.9699     519.3626
   1421.17493     566.8550     519.5870   1421.17493     566.8550     519.5870
   1421.15967     567.9753     519.5662   1421.15967     567.9753     519.5662
   1421.14441     570.8759     520.4535   1421.14441     570.8759     520.4535
   1421.12915     574.0624     521.7268   1421.12915     574.0624     521.7268
   1421.11389     578.8741     524.9886   1421.11389     578.8741     524.9886
   1421.09863     583.7559     528.8757   1421.09863     583.7559     528.8757
   1421.08337     591.7516     535.0223   1421.08337     591.7516     535.0223
   1421.06812     600.8629     541.6758   1421.06812     600.8629     541.6758
   1421.05286     604.6024     544.9672   1421.05286     604.6024     544.9672
   1421.03760     611.9941     549.9935   1421.03760     611.9941     549.9935
   1421.02234     620.8018     556.9617   1421.02234     620.8018     556.9617
   1421.00708     635.9700     568.2187   1421.00708     635.9700     568.2187
   1420.99182     663.4622     590.7767   1420.99182     663.4622     590.7767
   1420.97656     689.7473     613.6468   1420.97656     689.7473     613.6468
   1420.96130     716.6378     635.6728   1420.96130     716.6378     635.6728
   1420.94604     705.6758     624.7543   1420.94604     705.6758     624.7543
   1420.93079     673.0611     593.8267   1420.93079     673.0611     593.8267
   1420.91553     657.5089     579.7981   1420.91553     657.5089     579.7981
   1420.90027     662.2081     581.9521   1420.90027     662.2081     581.9521
   1420.88501     686.6624     601.1833   1420.88501     686.6624     601.1833
   1420.86975     732.8170     639.7899   1420.86975     732.8170     639.7899
   1420.85449     807.3417     700.8206   1420.85449     807.3417     700.8206
   1420.83923     894.3052     773.4650   1420.83923     894.3052     773.4650
   1420.82397     958.2553     825.6877   1420.82397     958.2553     825.6877
   1420.80872    1020.8554     878.8636   1420.80872    1020.8554     878.8636
   1420.79346    1121.9313     959.9303   1420.79346    1121.9313     959.9303
   1420.77820    1348.4353    1148.4866   1420.77820    1348.4353    1148.4866
   1420.76294    1658.6373    1408.2043   1420.76294    1658.6373    1408.2043
   1420.74768    1898.3927    1608.3074   1420.74768    1898.3927    1608.3074
   1420.73242    1927.2357    1626.6368   1420.73242    1927.2357    1626.6368
   1420.71716    1717.9912    1446.3645   1420.71716    1717.9912    1446.3645
   1420.70190    1273.8047    1075.4493   1420.70190    1273.8047    1075.4493
   1420.68665    1024.0052     866.6050   1420.68665    1024.0052     866.6050
   1420.67139    1028.8229     868.6274   1420.67139    1028.8229     868.6274
   1420.65613    1040.3069     875.1699   1420.65613    1040.3069     875.1699
   1420.64087     920.5192     771.5624   1420.64087     920.5192     771.5624
   1420.62561     789.7977     663.5333   1420.62561     789.7977     663.5333
   1420.61035     733.2816     616.8444   1420.61035     733.2816     616.8444
   1420.59509     766.2377     644.1627   1420.59509     766.2377     644.1627
   1420.57983     920.6570     769.3919   1420.57983     920.6570     769.3919
   1420.56458    1262.4907    1046.6400   1420.56458    1262.4907    1046.6400
   1420.54932    1606.7488    1325.3718   1420.54932    1606.7488    1325.3718
   1420.53406    1717.7784    1409.8019   1420.53406    1717.7784    1409.8019
   1420.51880    1622.6063    1335.1735   1420.51880    1622.6063    1335.1735
   1420.50354    1441.0239    1182.7974   1420.50354    1441.0239    1182.7974
   1420.48828    1113.0670     916.4931   1420.48828    1113.0670     916.4931
   1420.47302     887.3135     730.8190   1420.47302     887.3135     730.8190
   1420.45776     734.4954     606.1958   1420.45776     734.4954     606.1958
   1420.44250     640.3550     528.3446   1420.44250     640.3550     528.3446
   1420.42725     594.7946     491.3846   1420.42725     594.7946     491.3846
   1420.41199     575.7274     476.3242   1420.41199     575.7274     476.3242
   1420.39673     565.9120     468.2213   1420.39673     565.9120     468.2213
   1420.38147     562.3534     462.5602   1420.38147     562.3534     462.5602
   1420.36621     558.6768     460.9219   1420.36621     558.6768     460.9219
   1420.35095     556.3777     458.8070   1420.35095     556.3777     458.8070
   1420.33569     555.9770     456.7898   1420.33569     555.9770     456.7898
   1420.32043     555.9998     455.6517   1420.32043     555.9998     455.6517
   1420.30518     554.7924     454.2499   1420.30518     554.7924     454.2499
   1420.28992     555.5053     453.8682   1420.28992     555.5053     453.8682
   1420.27466     553.9892     452.0114   1420.27466     553.9892     452.0114
   1420.25940     553.9905     451.3104   1420.25940     553.9905     451.3104
   1420.24414     553.6145     450.2079   1420.24414     553.6145     450.2079
   1420.22888     553.2104     448.7722   1420.22888     553.2104     448.7722
   1420.21362     552.7732     447.1140   1420.21362     552.7732     447.1140
   1420.19836     552.1299     446.7021   1420.19836     552.1299     446.7021
   1420.18311     551.1487     445.6053   1420.18311     551.1487     445.6053
   1420.16785     551.3782     444.3108   1420.16785     551.3782     444.3108
   1420.15259     550.6900     442.5412   1420.15259     550.6900     442.5412
   1420.13733     549.0152     442.4098   1420.13733     549.0152     442.4098
   1420.12207     548.6550     440.5204   1420.12207     548.6550     440.5204
   1420.10681     548.0380     439.7037   1420.10681     548.0380     439.7037
   1420.09155     548.5399     438.4085   1420.09155     548.5399     438.4085
   1420.07629     547.8376     437.3846   1420.07629     547.8376     437.3846
   1420.06104     548.2426     436.7947   1420.06104     548.2426     436.7947
   1420.04578     548.2523     435.8604   1420.04578     548.2523     435.8604
   1420.03052     547.0580     436.2434   1420.03052     547.0580     436.2434
   1420.01526     548.7516     435.9762   1420.01526     548.7516     435.9762
   1420.00000     549.6210     436.2151   1420.00000     549.6210     436.2151
   1419.98474     550.4906     436.4539   1419.98474     550.4906     436.4539
   1419.96948     550.1013     434.4460   1419.96948     550.1013     434.4460
   1419.95422     547.5947     433.3652   1419.95422     547.5947     433.3652
   1419.93896     546.7975     431.8976   1419.93896     546.7975     431.8976
   1419.92371     547.8333     431.2361   1419.92371     547.8333     431.2361
   1419.90845     547.6851     430.9682   1419.90845     547.6851     430.9682
   1419.89319     548.2729     430.8445   1419.89319     548.2729     430.8445
   1419.87793     546.4686     430.2328   1419.87793     546.4686     430.2328
   1419.86267     547.8853     428.9924   1419.86267     547.8853     428.9924
   1419.84741     547.4478     429.4204   1419.84741     547.4478     429.4204
   1419.83215     547.8810     428.9830   1419.83215     547.8810     428.9830
   1419.81689     547.2393     428.1381   1419.81689     547.2393     428.1381
   1419.80164     548.2474     428.1031   1419.80164     548.2474     428.1031
   1419.78638     548.3215     428.2436   1419.78638     548.3215     428.2436
   1419.77112     548.2996     427.0488   1419.77112     548.2996     427.0488
   1419.75586     548.8985     427.0547   1419.75586     548.8985     427.0547
   1419.74060     549.7175     427.0361   1419.74060     549.7175     427.0361
   1419.72534     549.5822     426.8229   1419.72534     549.5822     426.8229
   1419.71008     549.8153     425.6417   1419.71008     549.8153     425.6417
   1419.69482     549.7115     425.7697   1419.69482     549.7115     425.7697
   1419.67957     550.3234     425.7450   1419.67957     550.3234     425.7450
   1419.66431     550.9921     425.6919   1419.66431     550.9921     425.6919
   1419.64905     549.2971     425.5319   1419.64905     549.2971     425.5319
   1419.63379     549.2059     425.4213   1419.63379     549.2059     425.4213
   1419.61853     551.2194     424.9295   1419.61853     551.2194     424.9295
   1419.60327     552.2807     424.2447   1419.60327     552.2807     424.2447
   1419.58801     550.4222     423.7944   1419.58801     550.4222     423.7944
   1419.57275     551.2648     424.4589   1419.57275     551.2648     424.4589
   1419.55750     551.8097     424.0740   1419.55750     551.8097     424.0740
   1419.54224     552.1859     424.3136   1419.54224     552.1859     424.3136
   1419.52698     552.2311     423.5695   1419.52698     552.2311     423.5695
   1419.51172     552.2482     423.4499   1419.51172     552.2482     423.4499
   1419.49646     552.3942     424.2167   1419.49646     552.3942     424.2167
   1419.48120     553.3111     422.9051   1419.48120     553.3111     422.9051
   1419.46594     554.3978     423.5150   1419.46594     554.3978     423.5150
   1419.45068     553.6929     422.5244   1419.45068     553.6929     422.5244
   1419.43542     553.4075     423.1847   1419.43542     553.4075     423.1847
   1419.42017     554.5707     423.3936   1419.42017     554.5707     423.3936
   1419.40491     554.3839     423.1117   1419.40491     554.3839     423.1117
   1419.38965     554.1973     423.3883   1419.38965     554.1973     423.3883
   1419.37439     555.4130     423.0135   1419.37439     555.4130     423.0135
   1419.35913     555.2666     422.8687   1419.35913     555.2666     422.8687
   1419.34387     556.5040     423.4431   1419.34387     556.5040     423.4431
   1419.32861     556.1660     422.7700   1419.32861     556.1660     422.7700
   1419.31335     556.3361     422.3354   1419.31335     556.3361     422.3354
   1419.29810     556.4270     423.0774   1419.29810     556.4270     423.0774
   1419.28284     557.0962     423.4419   1419.28284     557.0962     423.4419
   1419.26758     557.7343     423.5891   1419.26758     557.7343     423.5891
   1419.25232     558.7376     423.2895   1419.25232     558.7376     423.2895
   1419.23706     558.2147     423.4958   1419.23706     558.2147     423.4958
   1419.22180     558.4048     423.6524   1419.22180     558.4048     423.6524
   1419.20654     558.9329     423.3760   1419.20654     558.9329     423.3760
   1419.19128     559.8000     423.5114   1419.19128     559.8000     423.5114
   1419.17603     559.7778     424.4633   1419.17603     559.7778     424.4633
   1419.16077     559.1426     424.3203   1419.16077     559.1426     424.3203
   1419.14551     561.0817     424.4752   1419.14551     561.0817     424.4752
   1419.13025     560.4950     424.7344   1419.13025     560.4950     424.7344
   1419.11499     560.8954     425.1282   1419.11499     560.8954     425.1282
   1419.09973     561.1423     425.9013   1419.09973     561.1423     425.9013
   1419.08447     562.3178     425.3531   1419.08447     562.3178     425.3531
   1419.06921     562.5471     425.5551   1419.06921     562.5471     425.5551
   1419.05396     562.9905     425.6162   1419.05396     562.9905     425.6162
   1419.03870     562.5399     425.9396   1419.03870     562.5399     425.9396
   1419.02344     563.6683     426.9275   1419.02344     563.6683     426.9275
   1419.00818     564.1683     426.4554   1419.00818     564.1683     426.4554
   1418.99292     564.4604     426.7027   1418.99292     564.4604     426.7027
   1418.97766     565.6990     427.6180   1418.97766     565.6990     427.6180
   1418.96240     566.4299     427.9373   1418.96240     566.4299     427.9373
   1418.94714     565.6627     428.1375   1418.94714     565.6627     428.1375
   1418.93188     566.7205     429.3221   1418.93188     566.7205     429.3221
   1418.91663     567.0737     429.3667   1418.91663     567.0737     429.3667
   1418.90137     568.0275     428.8979   1418.90137     568.0275     428.8979
   1418.88611     568.5108     429.5529   1418.88611     568.5108     429.5529
   1418.87085     569.1985     430.2440   1418.87085     569.1985     430.2440
   1418.85559     569.5437     430.9381   1418.85559     569.5437     430.9381
   1418.84033     570.2833     430.7483   1418.84033     570.2833     430.7483
   1418.82507     570.2709     431.6871   1418.82507     570.2709     431.6871
   1418.80981     570.5940     431.8198   1418.80981     570.5940     431.8198
   1418.79456     571.3934     431.9359   1418.79456     571.3934     431.9359
   1418.77930     572.1543     433.6381   1418.77930     572.1543     433.6381
   1418.76404     573.5842     433.3408   1418.76404     573.5842     433.3408
   1418.74878     572.8587     434.3785   1418.74878     572.8587     434.3785
   1418.73352     573.3848     434.5259   1418.73352     573.3848     434.5259
   1418.71826     573.5549     434.8004   1418.71826     573.5549     434.8004
   1418.70300     574.4756     436.4267   1418.70300     574.4756     436.4267
   1418.68774     574.7851     436.2917   1418.68774     574.7851     436.2917
   1418.67249     576.3214     436.5469   1418.67249     576.3214     436.5469
   1418.65723     575.6508     437.8673   1418.65723     575.6508     437.8673
   1418.64197     577.3412     437.4139   1418.64197     577.3412     437.4139
   1418.62671     577.5607     439.0679   1418.62671     577.5607     439.0679
   1418.61145     578.4299     439.1229   1418.61145     578.4299     439.1229
   1418.59619     578.9598     440.2330   1418.59619     578.9598     440.2330
   1418.58093     579.4442     440.6042   1418.58093     579.4442     440.6042
   1418.56567     580.2040     441.4577   1418.56567     580.2040     441.4577
   1418.55042     581.0711     441.6152   1418.55042     581.0711     441.6152
   1418.53516     582.0742     442.4874   1418.53516     582.0742     442.4874
   1418.51990     582.4296     443.3199   1418.51990     582.4296     443.3199
   1418.50464     582.4679     443.8882   1418.50464     582.4679     443.8882
   1418.48938     583.2068     445.3765   1418.48938     583.2068     445.3765
   1418.47412     584.1848     445.4642   1418.47412     584.1848     445.4642
   1418.45886     584.6864     446.2271   1418.45886     584.6864     446.2271
   1418.44360     585.8041     446.8346   1418.44360     585.8041     446.8346
   1418.42834     585.3534     447.5373   1418.42834     585.3534     447.5373
   1418.41309     586.7156     448.4366   1418.41309     586.7156     448.4366
   1418.39783     587.9255     449.1874   1418.39783     587.9255     449.1874
   1418.38257     587.6789     449.7014   1418.38257     587.6789     449.7014
   1418.36731     588.9779     450.6422   1418.36731     588.9779     450.6422
   1418.35205     589.4402     451.4292   1418.35205     589.4402     451.4292
   1418.33679     590.7693     452.5437   1418.33679     590.7693     452.5437
   1418.32153     590.3736     452.9725   1418.32153     590.3736     452.9725
   1418.30627     590.6815     453.5491   1418.30627     590.6815     453.5491
   1418.29102     593.4083     454.9649   1418.29102     593.4083     454.9649
   1418.27576     593.2958     456.4068   1418.27576     593.2958     456.4068
   1418.26050     594.5593     455.7326   1418.26050     594.5593     455.7326
   1418.24524     594.1254     456.8471   1418.24524     594.1254     456.8471
   1418.22998     594.9363     458.1522   1418.22998     594.9363     458.1522
   1418.21472     596.5349     458.5070   1418.21472     596.5349     458.5070
   1418.19946     596.4377     460.2084   1418.19946     596.4377     460.2084
   1418.18420     597.5984     460.0933   1418.18420     597.5984     460.0933
   1418.16895     597.8300     462.4726   1418.16895     597.8300     462.4726
   1418.15369     598.8951     461.5149   1418.15369     598.8951     461.5149
   1418.13843     600.3353     463.5736   1418.13843     600.3353     463.5736
   1418.12317     600.5659     463.9920   1418.12317     600.5659     463.9920
   1418.10791     601.5999     465.0704   1418.10791     601.5999     465.0704
   1418.09265     600.2750     466.7356   1418.09265     600.2750     466.7356
   1418.07739     602.7656     467.6173   1418.07739     602.7656     467.6173
   1418.06213     602.4593     468.1149   1418.06213     602.4593     468.1149
   1418.04688     603.9959     468.6358   1418.04688     603.9959     468.6358
   1418.03162     605.1999     469.5959   1418.03162     605.1999     469.5959
   1418.01636     605.2350     470.7982   1418.01636     605.2350     470.7982
   1418.00110     606.3184     471.7194   1418.00110     606.3184     471.7194
   1417.98584     606.7390     472.0872   1417.98584     606.7390     472.0872
   1417.97058     608.0923     473.7055   1417.97058     608.0923     473.7055
   1417.95532     609.1811     474.7765   1417.95532     609.1811     474.7765
   1417.94006     609.2495     475.3327   1417.94006     609.2495     475.3327
   1417.92480     610.0832     476.2761   1417.92480     610.0832     476.2761
   1417.90955     612.0427     477.3440   1417.90955     612.0427     477.3440
   1417.89429     612.5459     478.3121   1417.89429     612.5459     478.3121
   1417.87903     611.9540     479.7611   1417.87903     611.9540     479.7611
   1417.86377     614.0953     479.7003   1417.86377     614.0953     479.7003
   1417.84851     614.5857     481.4432   1417.84851     614.5857     481.4432
   1417.83325     615.0329     481.4449   1417.83325     615.0329     481.4449
   1417.81799     616.0004     483.9381   1417.81799     616.0004     483.9381
   1417.80273     616.7498     484.7841   1417.80273     616.7498     484.7841
   1417.78748     617.6307     484.7867   1417.78748     617.6307     484.7867
   1417.77222     618.5712     486.1803   1417.77222     618.5712     486.1803
   1417.75696     619.3473     487.7346   1417.75696     619.3473     487.7346
   1417.74170     619.5714     488.1647   1417.74170     619.5714     488.1647
   1417.72644     620.8113     489.1065   1417.72644     620.8113     489.1065
   1417.71118     621.7955     490.2193   1417.71118     621.7955     490.2193
   1417.69592     621.6165     492.0589   1417.69592     621.6165     492.0589
   1417.68066     623.0502     492.2291   1417.68066     623.0502     492.2291
   1417.66541     624.0556     492.9475   1417.66541     624.0556     492.9475
   1417.65015     623.9961     494.7400   1417.65015     623.9961     494.7400
   1417.63489     625.3647     495.7946   1417.63489     625.3647     495.7946
   1417.61963     625.3331     496.5291   1417.61963     625.3331     496.5291
   1417.60437     626.9865     497.5755   1417.60437     626.9865     497.5755
   1417.58911     628.3431     498.9742   1417.58911     628.3431     498.9742
   1417.57385     627.4937     499.1689   1417.57385     627.4937     499.1689
   1417.55859     629.4759     500.4832   1417.55859     629.4759     500.4832
   1417.54333     629.4631     502.1126   1417.54333     629.4631     502.1126
   1417.52808     630.6605     502.4821   1417.52808     630.6605     502.4821
   1417.51282     631.0241     503.0158   1417.51282     631.0241     503.0158
   1417.49756     632.3193     504.9410   1417.49756     632.3193     504.9410
   1417.48230     632.5350     506.1598   1417.48230     632.5350     506.1598
   1417.46704     633.7374     506.5924   1417.46704     633.7374     506.5924
   1417.45178     635.3691     508.0688   1417.45178     635.3691     508.0688
   1417.43652     634.8201     508.7218   1417.43652     634.8201     508.7218
   1417.42126     636.3156     510.4090   1417.42126     636.3156     510.4090
   1417.40601     636.5314     511.5974   1417.40601     636.5314     511.5974
   1417.39075     636.8178     511.6356   1417.39075     636.8178     511.6356
   1417.37549     638.3173     512.6702   1417.37549     638.3173     512.6702
   1417.36023     638.5536     513.9634   1417.36023     638.5536     513.9634
   1417.34497     638.7911     514.7396   1417.34497     638.7911     514.7396
   1417.32971     640.1937     515.9283   1417.32971     640.1937     515.9283
   1417.31445     639.9241     516.7262   1417.31445     639.9241     516.7262
   1417.29919     641.3199     517.7767   1417.29919     641.3199     517.7767
   1417.28394     641.6169     518.2527   1417.28394     641.6169     518.2527
   1417.26868     643.1512     519.5533   1417.26868     643.1512     519.5533
   1417.25342     642.9591     519.8848   1417.25342     642.9591     519.8848
   1417.23816     643.2194     521.2407   1417.23816     643.2194     521.2407
   1417.22290     644.1945     521.8750   1417.22290     644.1945     521.8750
   1417.20764     646.3068     523.3887   1417.20764     646.3068     523.3887
   1417.19238     644.9052     523.9594   1417.19238     644.9052     523.9594
   1417.17712     646.2284     524.5121   1417.17712     646.2284     524.5121
   1417.16187     647.7123     524.9070   1417.16187     647.7123     524.9070
   1417.14661     648.6934     525.8927   1417.14661     648.6934     525.8927
   1417.13135     648.7405     527.5144   1417.13135     648.7405     527.5144
   1417.11609     648.4208     527.9108   1417.11609     648.4208     527.9108
   1417.10083     649.1650     528.6959   1417.10083     649.1650     528.6959
   1417.08557     649.5114     529.8050   1417.08557     649.5114     529.8050
   1417.07031     651.1368     529.9036   1417.07031     651.1368     529.9036
   1417.05505     651.1279     530.9662   1417.05505     651.1279     530.9662
   1417.03979     651.2934     531.6659   1417.03979     651.2934     531.6659
   1417.02454     652.3245     532.8436   1417.02454     652.3245     532.8436
   1417.00928     651.9678     532.4880   1417.00928     651.9678     532.4880
   1416.99402     653.5436     533.4322   1416.99402     653.5436     533.4322
   1416.97876     653.0637     534.3820   1416.97876     653.0637     534.3820
   1416.96350     654.0322     534.7562   1416.96350     654.0322     534.7562
   1416.94824     654.1618     535.1306   1416.94824     654.1618     535.1306
   1416.93298     655.3001     536.4309   1416.93298     655.3001     536.4309
   1416.91772     654.9135     536.9754   1416.91772     654.9135     536.9754
   1416.90247     655.6333     537.5583   1416.90247     655.6333     537.5583
   1416.88721     656.0375     538.0614   1416.88721     656.0375     538.0614
   1416.87195     656.7048     537.8970   1416.87195     656.7048     537.8970
   1416.85669     656.7508     539.0634   1416.85669     656.7508     539.0634
   1416.84143     656.2828     538.5963   1416.84143     656.2828     538.5963
   1416.82617     657.4308     539.4613   1416.82617     657.4308     539.4613
   1416.81091     657.6467     540.2574   1416.81091     657.6467     540.2574
   1416.79565     658.5914     540.6669   1416.79565     658.5914     540.6669
   1416.78040     658.3928     540.2999   1416.78040     658.3928     540.2999
   1416.76514     658.6805     541.0898   1416.76514     658.6805     541.0898
   1416.74988     658.3058     541.4963   1416.74988     658.3058     541.4963
   1416.73462     659.0173     541.0646   1416.73462     659.0173     541.0646
   1416.71936     660.1307     541.8965   1416.71936     660.1307     541.8965
   1416.70410     659.9282     541.5900   1416.70410     659.9282     541.5900
   1416.68884     659.0554     542.2023   1416.68884     659.0554     542.2023
   1416.67358     659.9870     543.7704   1416.67358     659.9870     543.7704
   1416.65833     659.7317     543.2256   1416.65833     659.7317     543.2256
   1416.64307     662.1205     543.0291   1416.64307     662.1205     543.0291
   1416.62781     660.8551     543.8901   1416.62781     660.8551     543.8901
   1416.61255     661.1810     543.4082   1416.61255     661.1810     543.4082
   1416.59729     660.6666     543.7294   1416.59729     660.6666     543.7294
   1416.58203     660.4609     542.8405   1416.58203     660.4609     542.8405
   1416.56677     659.5873     543.6230   1416.56677     659.5873     543.6230
   1416.55151     660.5143     542.8965   1416.55151     660.5143     542.8965
   1416.53625     661.4129     543.7292   1416.53625     661.4129     543.7292
   1416.52100     660.3298     543.5698   1416.52100     660.3298     543.5698
   1416.50574     659.5406     543.0306   1416.50574     659.5406     543.0306
   1416.49048     661.7632     543.7035   1416.49048     661.7632     543.7035
   1416.47522     661.0882     543.2996   1416.47522     661.0882     543.2996
   1416.45996     659.8169     543.7090   1416.45996     659.8169     543.7090
   1416.44470     660.5988     543.1676   1416.44470     660.5988     543.1676
   1416.42944     659.8211     542.4333   1416.42944     659.8211     542.4333
   1416.41418     660.9235     542.1891   1416.41418     660.9235     542.1891
   1416.39893     660.9936     541.3674   1416.39893     660.9936     541.3674
   1416.38367     659.8958     542.2531   1416.38367     659.8958     542.2531
   1416.36841     659.6871     542.6958   1416.36841     659.6871     542.6958
   1416.35315     659.1976     540.8876   1416.35315     659.1976     540.8876
   1416.33789     659.5283     542.1605   1416.33789     659.5283     542.1605
   1416.32263     660.3690     541.4441   1416.32263     660.3690     541.4441
   1416.30737     659.1964     541.5343   1416.30737     659.1964     541.5343
   1416.29211     658.8176     541.2285   1416.29211     658.8176     541.2285
   1416.27686     658.9721     539.6785   1416.27686     658.9721     539.6785
   1416.26160     658.4384     539.4950   1416.26160     658.4384     539.4950
   1416.24634     658.6531     539.9337   1416.24634     658.6531     539.9337
   1416.23108     658.2192     539.9827   1416.23108     658.2192     539.9827
   1416.21582     658.1085     538.7573   1416.21582     658.1085     538.7573
   1416.20056     657.6774     538.3615   1416.20056     657.6774     538.3615
   1416.18530     657.1226     538.0820   1416.18530     657.1226     538.0820
   1416.17004     656.4231     537.5465   1416.17004     656.4231     537.5465
   1416.15479     656.4352     537.1205   1416.15479     656.4352     537.1205
   1416.13953     656.7551     536.2286   1416.13953     656.7551     536.2286
   1416.12427     656.8159     535.9176   1416.12427     656.8159     535.9176
   1416.10901     655.3509     535.5075   1416.10901     655.3509     535.5075
   1416.09375     655.2485     535.5790   1416.09375     655.2485     535.5790
   1416.07849     655.2458     534.6063   1416.07849     655.2458     534.6063
   1416.06323     654.2683     533.6382   1416.06323     654.2683     533.6382
   1416.04797     654.4758     533.6862   1416.04797     654.4758     533.6862
   1416.03271     653.1595     532.8499   1416.03271     653.1595     532.8499
   1416.01746     653.6688     532.2964   1416.01746     653.6688     532.2964
   1416.00220     652.9214     531.6043   1416.00220     652.9214     531.6043
   1415.98694     652.6126     530.6524   1415.98694     652.6126     530.6524
   1415.97168     652.1188     531.3801   1415.97168     652.1188     531.3801
   1415.95642     651.4104     530.5021   1415.95642     651.4104     530.5021
   1415.94116     651.1776     529.3296   1415.94116     651.1776     529.3296
   1415.92590     651.5309     528.4307   1415.92590     651.5309     528.4307
   1415.91064     650.1327     527.7056   1415.91064     650.1327     527.7056
   1415.89539     650.1340     528.2227   1415.89539     650.1340     528.2227
   1415.88013     648.4760     527.5475   1415.88013     648.4760     527.5475
   1415.86487     648.4908     527.0034   1415.86487     648.4908     527.0034
   1415.84961     648.0071     525.3599   1415.84961     648.0071     525.3599
   1415.83435     647.6120     525.6482   1415.83435     647.6120     525.6482
   1415.81909     646.1426     524.7547   1415.81909     646.1426     524.7547
   1415.80383     646.2094     524.0937   1415.80383     646.2094     524.0937
   1415.78857     645.7589     523.0675   1415.78857     645.7589     523.0675
   1415.77332     645.2319     522.4185   1415.77332     645.2319     522.4185
   1415.75806     643.4425     521.6190   1415.75806     643.4425     521.6190
   1415.74280     645.1743     521.6534   1415.74280     645.1743     521.6534
   1415.72754     642.3961     520.6489   1415.72754     642.3961     520.6489
   1415.71228     643.4732     520.3029   1415.71228     643.4732     520.3029
   1415.69702     641.8955     519.5759   1415.69702     641.8955     519.5759
   1415.68176     641.3989     518.8505   1415.68176     641.3989     518.8505
   1415.66650     639.7980     518.3563   1415.66650     639.7980     518.3563
   1415.65125     640.2441     517.1277   1415.65125     640.2441     517.1277
   1415.63599     638.9799     516.2874   1415.63599     638.9799     516.2874
   1415.62073     638.8273     516.0430   1415.62073     638.8273     516.0430
   1415.60547     636.9492     514.5198   1415.60547     636.9492     514.5198
   1415.59021     637.5106     514.4370   1415.59021     637.5106     514.4370
   1415.57495     634.5590     513.3632   1415.57495     634.5590     513.3632
   1415.55969     635.6407     513.3339   1415.55969     635.6407     513.3339
   1415.54443     634.0195     512.2549   1415.54443     634.0195     512.2549
   1415.52917     633.6041     511.6627   1415.52917     633.6041     511.6627
   1415.51392     633.3372     510.6125   1415.51392     633.3372     510.6125
   1415.49866     631.9255     510.0512   1415.49866     631.9255     510.0512
   1415.48340     630.8605     508.5207   1415.48340     630.8605     508.5207
   1415.46814     630.5833     508.4106   1415.46814     630.5833     508.4106
   1415.45288     629.4559     507.2178   1415.45288     629.4559     507.2178
   1415.43762     628.1642     506.9487   1415.43762     628.1642     506.9487
   1415.42236     627.0824     505.8189   1415.42236     627.0824     505.8189
   1415.40710     626.4157     504.7408   1415.40710     626.4157     504.7408
   1415.39185     626.1638     503.9969   1415.39185     626.1638     503.9969
   1415.37659     624.9637     503.1466   1415.37659     624.9637     503.1466
   1415.36133     623.6418     502.1857   1415.36133     623.6418     502.1857
   1415.34607     623.1277     501.7080   1415.34607     623.1277     501.7080
   1415.33081     622.9805     501.4585   1415.33081     622.9805     501.4585
   1415.31555     621.9036     500.9372   1415.31555     621.9036     500.9372
   1415.30029     621.8691     498.6574   1415.30029     621.8691     498.6574
   1415.28503     619.8075     498.3812   1415.28503     619.8075     498.3812
   1415.26978     618.5991     498.0062   1415.26978     618.5991     498.0062
   1415.25452     617.1989     497.6298   1415.25452     617.1989     497.6298
   1415.23926     615.4368     494.8723   1415.23926     615.4368     494.8723
   1415.22400     615.5901     495.3452   1415.22400     615.5901     495.3452
   1415.20874     612.3770     493.9553   1415.20874     612.3770     493.9553
   1415.19348     612.7623     493.4778   1415.19348     612.7623     493.4778
   1415.17822     611.9089     492.2225   1415.17822     611.9089     492.2225
   1415.16296     610.6315     491.7781   1415.16296     610.6315     491.7781
   1415.14771     609.5496     490.1176   1415.14771     609.5496     490.1176
   1415.13245     608.2475     489.7821   1415.13245     608.2475     489.7821
   1415.11719     606.5893     489.2916   1415.11719     606.5893     489.2916
   1415.10193     605.8599     488.0786   1415.10193     605.8599     488.0786
   1415.08667     604.3146     486.4323   1415.08667     604.3146     486.4323
   1415.07141     602.1282     486.1205   1415.07141     602.1282     486.1205
   1415.05615     601.8207     484.4562   1415.05615     601.8207     484.4562
   1415.04089     600.8260     484.4972   1415.04089     600.8260     484.4972
   1415.02563     599.3035     482.9490   1415.02563     599.3035     482.9490
   1415.01038     598.8980     482.4874   1415.01038     598.8980     482.4874
   1414.99512     596.8809     480.0418   1414.99512     596.8809     480.0418
   1414.97986     594.8251     479.2391   1414.97986     594.8251     479.2391
   1414.96460     593.3860     479.0658   1414.96460     593.3860     479.0658
   1414.94934     593.3472     477.7782   1414.94934     593.3472     477.7782
   1414.93408     591.3000     476.8654   1414.93408     591.3000     476.8654
   1414.91882     589.9704     475.7250   1414.91882     589.9704     475.7250
   1414.90356     588.4426     474.9143   1414.90356     588.4426     474.9143
   1414.88831     587.3768     473.6448   1414.88831     587.3768     473.6448
   1414.87305     585.4277     472.3578   1414.87305     585.4277     472.3578
   1414.85779     583.6768     471.3588   1414.85779     583.6768     471.3588
   1414.84253     582.7420     471.6514   1414.84253     582.7420     471.6514
   1414.82727     580.6767     469.6707   1414.82727     580.6767     469.6707
   1414.81201     580.8849     468.6924   1414.81201     580.8849     468.6924
   1414.79675     578.2380     466.8986   1414.79675     578.2380     466.8986
   1414.78149     576.6697     465.8341   1414.78149     576.6697     465.8341
   1414.76624     574.9751     464.9453   1414.76624     574.9751     464.9453
   1414.75098     572.6558     464.2790   1414.75098     572.6558     464.2790
   1414.73572     572.3165     463.0063   1414.73572     572.3165     463.0063
   1414.72046     570.4492     461.7960   1414.72046     570.4492     461.7960
   1414.70520     568.2913     460.1819   1414.70520     568.2913     460.1819
   1414.68994     566.8732     459.9768   1414.68994     566.8732     459.9768
   1414.67468     565.2863     457.5916   1414.67468     565.2863     457.5916
   1414.65942     563.7872     457.3819   1414.65942     563.7872     457.3819
   1414.64417     561.1939     456.0464   1414.64417     561.1939     456.0464
   1414.62891     559.8236     453.9543   1414.62891     559.8236     453.9543
   1414.61365     558.4637     453.4459   1414.61365     558.4637     453.4459
   1414.59839     556.0398     451.0982   1414.59839     556.0398     451.0982
   1414.58313     555.0399     450.4949   1414.58313     555.0399     450.4949
   1414.56787     553.0167     449.5289   1414.56787     553.0167     449.5289
   1414.55261     551.4766     447.4475   1414.55261     551.4766     447.4475
   1414.53735     548.8151     446.5562   1414.53735     548.8151     446.5562
   1414.52209     547.8387     445.6154   1414.52209     547.8387     445.6154
   1414.50684     545.9503     444.5282   1414.50684     545.9503     444.5282
   1414.49158     542.8228     443.0961   1414.49158     542.8228     443.0961
   1414.47632     541.6460     441.9858   1414.47632     541.6460     441.9858
   1414.46106     539.4923     440.3747   1414.46106     539.4923     440.3747
   1414.44580     537.4690     438.4851   1414.44580     537.4690     438.4851
   1414.43054     535.6259     437.9966   1414.43054     535.6259     437.9966
   1414.41528     533.8447     436.2222   1414.41528     533.8447     436.2222
   1414.40002     531.7223     434.4759   1414.40002     531.7223     434.4759
   1414.38477     529.8140     433.4886   1414.38477     529.8140     433.4886
   1414.36951     527.5554     431.1920   1414.36951     527.5554     431.1920
   1414.35425     526.8127     431.0459   1414.35425     526.8127     431.0459
   1414.33899     523.9036     429.0318   1414.33899     523.9036     429.0318
   1414.32373     521.1982     428.4546   1414.32373     521.1982     428.4546
   1414.30847     520.0504     426.5278   1414.30847     520.0504     426.5278
   1414.29321     517.7559     425.0688   1414.29321     517.7559     425.0688
   1414.27795     516.1437     423.5467   1414.27795     516.1437     423.5467
   1414.26270     512.9077     422.4707   1414.26270     512.9077     422.4707
   1414.24744     511.4038     421.2820   1414.24744     511.4038     421.2820
   1414.23218     509.7596     418.9921   1414.23218     509.7596     418.9921
   1414.21692     507.6830     417.1906   1414.21692     507.6830     417.1906
   1414.20166     504.8498     416.9637   1414.20166     504.8498     416.9637
   1414.18640     502.5893     414.5549   1414.18640     502.5893     414.5549
   1414.17114     500.1347     413.2343   1414.17114     500.1347     413.2343
   1414.15588     498.3340     412.5509   1414.15588     498.3340     412.5509
   1414.14062     495.7137     409.9289   1414.14062     495.7137     409.9289
   1414.12537     495.1909     408.9130   1414.12537     495.1909     408.9130
   1414.11011     492.2543     407.1671   1414.11011     492.2543     407.1671
   1414.09485     490.1531     405.3944   1414.09485     490.1531     405.3944
   1414.07959     487.3942     404.6985   1414.07959     487.3942     404.6985
   1414.06433     485.1526     402.3104   1414.06433     485.1526     402.3104
   1414.04907     482.9427     401.2477   1414.04907     482.9427     401.2477
   1414.03381     480.5795     399.7827   1414.03381     480.5795     399.7827
   1414.01855     479.6123     397.7177   1414.01855     479.6123     397.7177
   1414.00330     498.7836     404.6954   1414.00330     498.7836     404.6954
   1413.98804     475.4755     395.3357   1413.98804     475.4755     395.3357
   1413.97278     471.9541     393.4385   1413.97278     471.9541     393.4385
   1413.95752     469.3668     392.0971   1413.95752     469.3668     392.0971
   1413.94226     466.2442     389.6405   1413.94226     466.2442     389.6405
   1413.92700     463.9133     388.3001   1413.92700     463.9133     388.3001
   1413.91174     461.7138     386.4722   1413.91174     461.7138     386.4722
   1413.89648     459.8750     385.1329   1413.89648     459.8750     385.1329
   1413.88123     456.5354     383.9662   1413.88123     456.5354     383.9662
   1413.86597     454.6372     381.7552   1413.86597     454.6372     381.7552
   1413.85071     452.8505     380.0287   1413.85071     452.8505     380.0287
   1413.83545     449.8461     378.8072   1413.83545     449.8461     378.8072
   1413.82019     447.4747     376.6964   1413.82019     447.4747     376.6964
   1413.80493     444.9522     376.0991   1413.80493     444.9522     376.0991
   1413.78967     442.6849     374.3375   1413.78967     442.6849     374.3375
   1413.77441     440.1401     372.3224   1413.77441     440.1401     372.3224
   1413.75916     438.7243     370.9904   1413.75916     438.7243     370.9904
   1413.74390     435.6021     369.3865   1413.74390     435.6021     369.3865
   1413.72864     432.8265     367.8521   1413.72864     432.8265     367.8521
   1413.71338     431.2964     366.1267   1413.71338     431.2964     366.1267
   1413.69812     428.4127     364.1818   1413.69812     428.4127     364.1818
   1413.68286     426.1362     362.6240   1413.68286     426.1362     362.6240
   1413.66760     423.6156     360.9823   1413.66760     423.6156     360.9823
   1413.65234     421.6779     359.9383   1413.65234     421.6779     359.9383
   1413.63708     419.0063     357.3234   1413.63708     419.0063     357.3234
   1413.62183     416.4819     356.4321   1413.62183     416.4819     356.4321
   1413.60657     414.2080     354.4108   1413.60657     414.2080     354.4108
   1413.59131     411.7868     353.2449   1413.59131     411.7868     353.2449
   1413.57605     409.3697     351.6210   1413.57605     409.3697     351.6210
   1413.56079     407.1804     349.4912   1413.56079     407.1804     349.4912
   1413.54553     404.9270     348.1074   1413.54553     404.9270     348.1074
   1413.53027     402.6344     346.6178   1413.53027     402.6344     346.6178
   1413.51501     399.9283     345.0793   1413.51501     399.9283     345.0793
   1413.49976     397.8358     343.5270   1413.49976     397.8358     343.5270
   1413.48450     395.2131     341.4723   1413.48450     395.2131     341.4723
   1413.46924     392.6956     340.4445   1413.46924     392.6956     340.4445
   1413.45398     391.1769     339.0148   1413.45398     391.1769     339.0148
   1413.43872     389.0178     337.8021   1413.43872     389.0178     337.8021
   1413.42346     386.0979     335.9538   1413.42346     386.0979     335.9538
   1413.40820     383.9185     334.6857   1413.40820     383.9185     334.6857
   1413.39294     382.1821     332.5835   1413.39294     382.1821     332.5835
   1413.37769     379.2909     331.2611   1413.37769     379.2909     331.2611
   1413.36243     377.7725     330.1170   1413.36243     377.7725     330.1170
   1413.34717     374.8652     328.4742   1413.34717     374.8652     328.4742
   1413.33191     372.8324     327.2821   1413.33191     372.8324     327.2821
   1413.31665     370.6861     325.3204   1413.31665     370.6861     325.3204
   1413.30139     368.4669     324.3199   1413.30139     368.4669     324.3199
   1413.28613     367.2866     322.6008   1413.28613     367.2866     322.6008
   1413.27087     365.0887     320.7913   1413.27087     365.0887     320.7913
   1413.25562     362.5896     319.5798   1413.25562     362.5896     319.5798
   1413.24036     360.4953     318.4132   1413.24036     360.4953     318.4132
   1413.22510     358.1676     317.1361   1413.22510     358.1676     317.1361
   1413.20984     355.9796     315.6147   1413.20984     355.9796     315.6147
   1413.19458     354.3997     313.9355   1413.19458     354.3997     313.9355
   1413.17932     352.0006     312.6417   1413.17932     352.0006     312.6417
   1413.16406     350.2219     311.7038   1413.16406     350.2219     311.7038
   1413.14880     347.9818     310.5052   1413.14880     347.9818     310.5052
   1413.13354     346.8320     309.1748   1413.13354     346.8320     309.1748
   1413.11829     344.2917     307.9080   1413.11829     344.2917     307.9080
   1413.10303     342.4861     306.7589   1413.10303     342.4861     306.7589
   1413.08777     340.6226     305.7192   1413.08777     340.6226     305.7192
   1413.07251     338.9627     304.1816   1413.07251     338.9627     304.1816
   1413.05725     337.4133     302.8643   1413.05725     337.4133     302.8643
   1413.04199     334.9954     301.5667   1413.04199     334.9954     301.5667
   1413.02673     333.9370     300.9219   1413.02673     333.9370     300.9219
   1413.01147     332.1557     299.4763   1413.01147     332.1557     299.4763
   1412.99622     330.1428     298.8703   1412.99622     330.1428     298.8703
   1412.98096     328.5615     297.8799   1412.98096     328.5615     297.8799
   1412.96570     326.4715     296.6922   1412.96570     326.4715     296.6922
   1412.95044     325.4226     295.8918   1412.95044     325.4226     295.8918
   1412.93518     323.7775     294.9276   1412.93518     323.7775     294.9276
   1412.91992     322.0095     293.3768   1412.91992     322.0095     293.3768
   1412.90466     320.8385     293.0363   1412.90466     320.8385     293.0363
   1412.88940     319.3742     291.7426   1412.88940     319.3742     291.7426
   1412.87415     317.9392     291.4230   1412.87415     317.9392     291.4230
   1412.85889     316.5265     290.6994   1412.85889     316.5265     290.6994
   1412.84363     315.1627     289.4794   1412.84363     315.1627     289.4794
   1412.82837     313.7980     288.6691   1412.82837     313.7980     288.6691
   1412.81311     312.8164     287.5879   1412.81311     312.8164     287.5879
   1412.79785     310.9691     287.7173   1412.79785     310.9691     287.7173
   1412.78259     309.9083     286.5156   1412.78259     309.9083     286.5156
   1412.76733     308.4506     286.2525   1412.76733     308.4506     286.2525
   1412.75208     307.3170     285.5367   1412.75208     307.3170     285.5367
   1412.73682     306.2782     284.5531   1412.73682     306.2782     284.5531
   1412.72156     305.7577     284.1784   1412.72156     305.7577     284.1784
   1412.70630     304.3162     283.7476   1412.70630     304.3162     283.7476
   1412.69104     303.1561     283.1768   1412.69104     303.1561     283.1768
   1412.67578     302.6835     282.8008   1412.67578     302.6835     282.8008
   1412.66052     301.9105     283.0399   1412.66052     301.9105     283.0399
   1412.64526     300.3470     281.9971   1412.64526     300.3470     281.9971
   1412.63000     299.9680     282.1232   1412.63000     299.9680     282.1232
   1412.61475     299.2718     281.3426   1412.61475     299.2718     281.3426
   1412.59949     298.1500     281.7283   1412.59949     298.1500     281.7283
   1412.58423     297.9427     280.9148   1412.58423     297.9427     280.9148
   1412.56897     297.0018     280.6446   1412.56897     297.0018     280.6446
   1412.55371     296.8967     281.1885   1412.55371     296.8967     281.1885
   1412.53845     295.9037     280.4120   1412.53845     295.9037     280.4120
   1412.52319     295.2400     280.6508   1412.52319     295.2400     280.6508
   1412.50793     295.0861     280.8303   1412.50793     295.0861     280.8303
   1412.49268     294.5952     280.4862   1412.49268     294.5952     280.4862
   1412.47742     294.3108     280.7818   1412.47742     294.3108     280.7818
   1412.46216     293.8237     280.7835   1412.46216     293.8237     280.7835
   1412.44690     293.5212     281.0208   1412.44690     293.5212     281.0208
   1412.43164     293.1934     281.1320   1412.43164     293.1934     281.1320
   1412.41638     292.6046     280.7157   1412.41638     292.6046     280.7157
   1412.40112     293.1874     281.2614   1412.40112     293.1874     281.2614
   1412.38586     292.6270     281.4139   1412.38586     292.6270     281.4139
   1412.37061     292.3636     281.6544   1412.37061     292.3636     281.6544
   1412.35535     292.5766     282.2061   1412.35535     292.5766     282.2061
   1412.34009     292.6770     282.6906   1412.34009     292.6770     282.6906
   1412.32483     292.4425     283.1374   1412.32483     292.4425     283.1374
   1412.30957     292.4783     283.6047   1412.30957     292.4783     283.6047
   1412.29431     292.4622     284.4554   1412.29431     292.4622     284.4554
   1412.27905     292.7530     284.4924   1412.27905     292.7530     284.4924
   1412.26379     293.2089     285.3490   1412.26379     293.2089     285.3490
   1412.24854     293.5252     286.0937   1412.24854     293.5252     286.0937
   1412.23328     293.5369     286.3681   1412.23328     293.5369     286.3681
   1412.21802     294.4071     286.7981   1412.21802     294.4071     286.7981
   1412.20276     295.0491     288.1573   1412.20276     295.0491     288.1573