#     FILENAME=!Skynet_57528_lach-cc-78_20515_20924.cyb.fits
#     BASENAME=Skynet_57528_lach-cc-78_20515_20924
#     SRC_NAME=lach-cc-78
#     OBSERVER=ccmadison16_9505
#     DATE_OBS=2016-05-20T15:57:37.430
#        OBSID=20515
#      SCANNUM=20924
#          MJD=57528.6661
#          UTC=57547
#     SCANTYPE=track
#     DATAMODE=HIRES
#     TUNEFREQ=1420.0000
# Actual_FREQ1=1420.0000
# Actual_FREQ2=1420.0000
#    LO1Tuning=6870.000
#     RFFILTER=1355_1435
#        OBSBW=-15.6250
#        NCHAN=1024 
#        FOCUS=37.0709
#           RA=20:29:38.24
#          DEC=39:03:17.53
#      RA(hrs)=20.494000
#     DEC(deg)=39.054900
#    AZIM(deg)=302.297
#    ELEV(deg)=22.470
#     IFattens=12.00, 10.00
#      WARNING=None
#    TCAL_XL1=7.9635
#    TCAL_YR1=9.1340
#    TCAL_XL2=7.9635
#    TCAL_YR2=9.1340
#     TRX_XL1=11.7060
#     TRX_YR1=11.7060
#     TRX_XL2=11.7060
#     TRX_YR2=11.7060
#        TAVE=1.0000
#Freq1(MHz)          XL1          YR1  Freq2(MHz)          XL2          YR2 

   1427.81250     363.9738     244.9362   1427.81250     363.9738     244.9362
   1427.79724     364.1852     245.1485   1427.79724     364.1852     245.1485
   1427.78198     365.1835     246.1309   1427.78198     365.1835     246.1309
   1427.76672     366.0207     246.4589   1427.76672     366.0207     246.4589
   1427.75146     366.4864     246.7243   1427.75146     366.4864     246.7243
   1427.73621     367.7397     247.4635   1427.73621     367.7397     247.4635
   1427.72095     367.9955     248.5479   1427.72095     367.9955     248.5479
   1427.70569     369.2721     249.3213   1427.70569     369.2721     249.3213
   1427.69043     369.9453     249.8296   1427.69043     369.9453     249.8296
   1427.67517     371.4112     250.5511   1427.67517     371.4112     250.5511
   1427.65991     371.9020     251.5115   1427.65991     371.9020     251.5115
   1427.64465     372.8356     252.3416   1427.64465     372.8356     252.3416
   1427.62939     374.8878     253.4044   1427.62939     374.8878     253.4044
   1427.61414     375.2955     254.6127   1427.61414     375.2955     254.6127
   1427.59888     376.2269     255.3549   1427.59888     376.2269     255.3549
   1427.58362     378.2192     256.5568   1427.58362     378.2192     256.5568
   1427.56836     379.2838     257.3126   1427.56836     379.2838     257.3126
   1427.55310     380.9598     258.4437   1427.55310     380.9598     258.4437
   1427.53784     382.6895     259.5634   1427.53784     382.6895     259.5634
   1427.52258     383.3984     260.8667   1427.52258     383.3984     260.8667
   1427.50732     385.2837     261.8397   1427.50732     385.2837     261.8397
   1427.49207     386.7197     262.9833   1427.49207     386.7197     262.9833
   1427.47681     387.7753     264.2947   1427.47681     387.7753     264.2947
   1427.46155     390.2167     265.6668   1427.46155     390.2167     265.6668
   1427.44629     391.2953     267.0305   1427.44629     391.2953     267.0305
   1427.43103     393.8455     268.3071   1427.43103     393.8455     268.3071
   1427.41577     395.2982     269.4635   1427.41577     395.2982     269.4635
   1427.40051     397.0967     271.3810   1427.40051     397.0967     271.3810
   1427.38525     398.8863     272.1806   1427.38525     398.8863     272.1806
   1427.37000     401.7954     273.7390   1427.37000     401.7954     273.7390
   1427.35474     403.1935     274.7729   1427.35474     403.1935     274.7729
   1427.33948     405.3920     276.5271   1427.33948     405.3920     276.5271
   1427.32422     406.9826     278.0497   1427.32422     406.9826     278.0497
   1427.30896     408.8154     279.5274   1427.30896     408.8154     279.5274
   1427.29370     411.5663     281.6003   1427.29370     411.5663     281.6003
   1427.27844     413.9936     282.8638   1427.27844     413.9936     282.8638
   1427.26318     416.3763     284.9448   1427.26318     416.3763     284.9448
   1427.24792     417.7934     286.1311   1427.24792     417.7934     286.1311
   1427.23267     420.4965     288.0297   1427.23267     420.4965     288.0297
   1427.21741     422.5572     289.8171   1427.21741     422.5572     289.8171
   1427.20215     425.1826     291.1045   1427.20215     425.1826     291.1045
   1427.18689     427.7604     292.8892   1427.18689     427.7604     292.8892
   1427.17163     429.8267     295.4189   1427.17163     429.8267     295.4189
   1427.15637     432.5620     296.6506   1427.15637     432.5620     296.6506
   1427.14111     434.3964     298.6998   1427.14111     434.3964     298.6998
   1427.12585     437.4793     300.4305   1427.12585     437.4793     300.4305
   1427.11060     439.5571     302.1599   1427.11060     439.5571     302.1599
   1427.09534     442.6232     303.9830   1427.09534     442.6232     303.9830
   1427.08008     445.3055     305.9022   1427.08008     445.3055     305.9022
   1427.06482     448.0055     307.4980   1427.06482     448.0055     307.4980
   1427.04956     451.0520     309.2754   1427.04956     451.0520     309.2754
   1427.03430     452.5725     311.4413   1427.03430     452.5725     311.4413
   1427.01904     455.6107     313.4481   1427.01904     455.6107     313.4481
   1427.00378     458.8782     315.7008   1427.00378     458.8782     315.7008
   1426.98853     460.5838     316.9825   1426.98853     460.5838     316.9825
   1426.97327     463.7557     319.2147   1426.97327     463.7557     319.2147
   1426.95801     466.9766     321.5099   1426.95801     466.9766     321.5099
   1426.94275     469.9139     323.4240   1426.94275     469.9139     323.4240
   1426.92749     472.6914     325.4865   1426.92749     472.6914     325.4865
   1426.91223     474.4632     327.1871   1426.91223     474.4632     327.1871
   1426.89697     478.3280     328.4609   1426.89697     478.3280     328.4609
   1426.88171     481.0203     331.1575   1426.88171     481.0203     331.1575
   1426.86646     484.3726     332.9776   1426.86646     484.3726     332.9776
   1426.85120     486.8000     335.6801   1426.85120     486.8000     335.6801
   1426.83594     488.7594     337.4406   1426.83594     488.7594     337.4406
   1426.82068     492.2404     339.2805   1426.82068     492.2404     339.2805
   1426.80542     495.8885     341.6852   1426.80542     495.8885     341.6852
   1426.79016     497.5573     344.2742   1426.79016     497.5573     344.2742
   1426.77490     500.5558     345.4234   1426.77490     500.5558     345.4234
   1426.75964     503.8961     346.9151   1426.75964     503.8961     346.9151
   1426.74438     507.1109     349.8752   1426.74438     507.1109     349.8752
   1426.72913     509.4980     352.0414   1426.72913     509.4980     352.0414
   1426.71387     512.6177     354.0347   1426.71387     512.6177     354.0347
   1426.69861     516.6099     355.9442   1426.69861     516.6099     355.9442
   1426.68335     518.4031     358.0785   1426.68335     518.4031     358.0785
   1426.66809     521.9660     359.5700   1426.66809     521.9660     359.5700
   1426.65283     524.6252     362.6477   1426.65283     524.6252     362.6477
   1426.63757     528.3454     363.6409   1426.63757     528.3454     363.6409
   1426.62231     530.4792     366.6452   1426.62231     530.4792     366.6452
   1426.60706     533.6812     367.5717   1426.60706     533.6812     367.5717
   1426.59180     537.1595     370.0635   1426.59180     537.1595     370.0635
   1426.57654     539.1171     371.8990   1426.57654     539.1171     371.8990
   1426.56128     542.4890     374.0578   1426.56128     542.4890     374.0578
   1426.54602     545.3336     375.9361   1426.54602     545.3336     375.9361
   1426.53076     548.6834     378.3102   1426.53076     548.6834     378.3102
   1426.51550     551.3058     380.2252   1426.51550     551.3058     380.2252
   1426.50024     553.5774     382.1172   1426.50024     553.5774     382.1172
   1426.48499     556.1010     383.7002   1426.48499     556.1010     383.7002
   1426.46973     559.5983     386.3754   1426.46973     559.5983     386.3754
   1426.45447     563.9513     388.2084   1426.45447     563.9513     388.2084
   1426.43921     565.3729     389.2688   1426.43921     565.3729     389.2688
   1426.42395     568.5771     392.0780   1426.42395     568.5771     392.0780
   1426.40869     571.4745     393.8356   1426.40869     571.4745     393.8356
   1426.39343     574.9391     396.0944   1426.39343     574.9391     396.0944
   1426.37817     577.2265     397.4976   1426.37817     577.2265     397.4976
   1426.36292     580.3725     399.0147   1426.36292     580.3725     399.0147
   1426.34766     582.4632     401.0550   1426.34766     582.4632     401.0550
   1426.33240     586.0788     402.8559   1426.33240     586.0788     402.8559
   1426.31714     589.2844     405.2050   1426.31714     589.2844     405.2050
   1426.30188     591.4221     406.8140   1426.30188     591.4221     406.8140
   1426.28662     594.0182     408.5957   1426.28662     594.0182     408.5957
   1426.27136     596.8870     409.7485   1426.27136     596.8870     409.7485
   1426.25610     598.6243     412.2443   1426.25610     598.6243     412.2443
   1426.24084     601.3790     414.2015   1426.24084     601.3790     414.2015
   1426.22559     604.8535     415.7691   1426.22559     604.8535     415.7691
   1426.21033     607.7526     418.0314   1426.21033     607.7526     418.0314
   1426.19507     608.6900     419.0821   1426.19507     608.6900     419.0821
   1426.17981     612.5049     421.0044   1426.17981     612.5049     421.0044
   1426.16455     614.9076     423.2932   1426.16455     614.9076     423.2932
   1426.14929     616.7990     424.8692   1426.14929     616.7990     424.8692
   1426.13403     620.8047     425.6564   1426.13403     620.8047     425.6564
   1426.11877     621.7642     426.8553   1426.11877     621.7642     426.8553
   1426.10352     624.6203     428.0391   1426.10352     624.6203     428.0391
   1426.08826     627.1628     429.9053   1426.08826     627.1628     429.9053
   1426.07300     629.3564     431.9374   1426.07300     629.3564     431.9374
   1426.05774     632.5601     433.6955   1426.05774     632.5601     433.6955
   1426.04248     634.0449     434.6219   1426.04248     634.0449     434.6219
   1426.02722     636.9310     436.8915   1426.02722     636.9310     436.8915
   1426.01196     638.0408     438.0381   1426.01196     638.0408     438.0381
   1425.99670     641.2668     439.8069   1425.99670     641.2668     439.8069
   1425.98145     643.7984     441.2410   1425.98145     643.7984     441.2410
   1425.96619     645.9957     442.1626   1425.96619     645.9957     442.1626
   1425.95093     648.3862     443.7749   1425.95093     648.3862     443.7749
   1425.93567     650.6177     445.2279   1425.93567     650.6177     445.2279
   1425.92041     652.3118     446.2594   1425.92041     652.3118     446.2594
   1425.90515     653.8536     447.6922   1425.90515     653.8536     447.6922
   1425.88989     658.1909     449.7905   1425.88989     658.1909     449.7905
   1425.87463     658.8193     450.3076   1425.87463     658.8193     450.3076
   1425.85938     661.1591     452.2479   1425.85938     661.1591     452.2479
   1425.84412     664.1346     453.9441   1425.84412     664.1346     453.9441
   1425.82886     666.8651     455.2672   1425.82886     666.8651     455.2672
   1425.81360     666.9915     456.0612   1425.81360     666.9915     456.0612
   1425.79834     668.5844     457.9763   1425.79834     668.5844     457.9763
   1425.78308     670.8868     458.2319   1425.78308     670.8868     458.2319
   1425.76782     672.9155     460.2306   1425.76782     672.9155     460.2306
   1425.75256     674.7256     460.5737   1425.75256     674.7256     460.5737
   1425.73730     677.1295     462.5916   1425.73730     677.1295     462.5916
   1425.72205     678.5736     463.8885   1425.72205     678.5736     463.8885
   1425.70679     680.0789     464.4031   1425.70679     680.0789     464.4031
   1425.69153     681.5678     465.2521   1425.69153     681.5678     465.2521
   1425.67627     682.8924     466.9842   1425.67627     682.8924     466.9842
   1425.66101     686.0355     468.1134   1425.66101     686.0355     468.1134
   1425.64575     686.4261     469.3855   1425.64575     686.4261     469.3855
   1425.63049     688.1658     470.3457   1425.63049     688.1658     470.3457
   1425.61523     690.0558     471.5544   1425.61523     690.0558     471.5544
   1425.59998     691.6316     472.3472   1425.59998     691.6316     472.3472
   1425.58472     692.2629     473.3481   1425.58472     692.2629     473.3481
   1425.56946     693.9935     473.8687   1425.56946     693.9935     473.8687
   1425.55420     695.6377     475.2884   1425.55420     695.6377     475.2884
   1425.53894     697.2559     476.0174   1425.53894     697.2559     476.0174
   1425.52368     698.5201     477.4674   1425.52368     698.5201     477.4674
   1425.50842     699.7190     478.5648   1425.50842     699.7190     478.5648
   1425.49316     701.0469     478.8850   1425.49316     701.0469     478.8850
   1425.47791     703.2330     480.2367   1425.47791     703.2330     480.2367
   1425.46265     703.9910     481.2143   1425.46265     703.9910     481.2143
   1425.44739     704.3121     481.8242   1425.44739     704.3121     481.8242
   1425.43213     705.8177     482.6749   1425.43213     705.8177     482.6749
   1425.41687     707.3563     483.8737   1425.41687     707.3563     483.8737
   1425.40161     708.7767     484.5578   1425.40161     708.7767     484.5578
   1425.38635     709.1003     485.8659   1425.38635     709.1003     485.8659
   1425.37109     709.9020     486.6468   1425.37109     709.9020     486.6468
   1425.35583     711.6320     487.5636   1425.35583     711.6320     487.5636
   1425.34058     712.8421     488.0769   1425.34058     712.8421     488.0769
   1425.32532     713.9133     488.6044   1425.32532     713.9133     488.6044
   1425.31006     715.8384     490.2914   1425.31006     715.8384     490.2914
   1425.29480     715.9821     491.1231   1425.29480     715.9821     491.1231
   1425.27954     717.7122     491.9539   1425.27954     717.7122     491.9539
   1425.26428     717.9348     492.5817   1425.26428     717.9348     492.5817
   1425.24902     720.4565     492.5273   1425.24902     720.4565     492.5273
   1425.23376     719.6745     493.3945   1425.23376     719.6745     493.3945
   1425.21851     719.6929     494.7215   1425.21851     719.6929     494.7215
   1425.20325     721.4783     494.9051   1425.20325     721.4783     494.9051
   1425.18799     721.4610     495.8610   1425.18799     721.4610     495.8610
   1425.17273     723.3440     496.2642   1425.17273     723.3440     496.2642
   1425.15747     723.5441     497.1783   1425.15747     723.5441     497.1783
   1425.14221     724.6591     497.9755   1425.14221     724.6591     497.9755
   1425.12695     725.2214     498.6761   1425.12695     725.2214     498.6761
   1425.11169     726.5027     499.7873   1425.11169     726.5027     499.7873
   1425.09644     727.4194     500.3896   1425.09644     727.4194     500.3896
   1425.08118     728.0300     500.8913   1425.08118     728.0300     500.8913
   1425.06592     728.9609     501.1151   1425.06592     728.9609     501.1151
   1425.05066     727.5359     502.4705   1425.05066     727.5359     502.4705
   1425.03540     729.5226     502.8951   1425.03540     729.5226     502.8951
   1425.02014     729.5598     503.1656   1425.02014     729.5598     503.1656
   1425.00488     730.5921     504.2151   1425.00488     730.5921     504.2151
   1424.98962     731.5154     504.8539   1424.98962     731.5154     504.8539
   1424.97437     730.7640     505.3203   1424.97437     730.7640     505.3203
   1424.95911     731.7130     506.0402   1424.95911     731.7130     506.0402
   1424.94385     733.4868     506.4005   1424.94385     733.4868     506.4005
   1424.92859     733.0402     507.2231   1424.92859     733.0402     507.2231
   1424.91333     733.5026     508.4097   1424.91333     733.5026     508.4097
   1424.89807     733.9428     508.9600   1424.89807     733.9428     508.9600
   1424.88281     734.3440     509.3157   1424.88281     734.3440     509.3157
   1424.86755     733.7974     509.8914   1424.86755     733.7974     509.8914
   1424.85229     733.9271     510.6077   1424.85229     733.9271     510.6077
   1424.83704     734.8970     511.6183   1424.83704     734.8970     511.6183
   1424.82178     735.4609     511.0912   1424.82178     735.4609     511.0912
   1424.80652     736.1683     511.9444   1424.80652     736.1683     511.9444
   1424.79126     735.8875     511.6349   1424.79126     735.8875     511.6349
   1424.77600     735.5421     511.9800   1424.77600     735.5421     511.9800
   1424.76074     734.8746     513.6459   1424.76074     734.8746     513.6459
   1424.74548     735.2893     514.1223   1424.74548     735.2893     514.1223
   1424.73022     736.3828     514.8191   1424.73022     736.3828     514.8191
   1424.71497     737.3061     515.1881   1424.71497     737.3061     515.1881
   1424.69971     736.0939     515.2883   1424.69971     736.0939     515.2883
   1424.68445     737.2673     516.5524   1424.68445     737.2673     516.5524
   1424.66919     736.8801     516.9977   1424.66919     736.8801     516.9977
   1424.65393     737.3736     517.0701   1424.65393     737.3736     517.0701
   1424.63867     737.6661     517.1261   1424.63867     737.6661     517.1261
   1424.62341     735.9529     518.6482   1424.62341     735.9529     518.6482
   1424.60815     736.6478     518.3174   1424.60815     736.6478     518.3174
   1424.59290     736.3230     518.7610   1424.59290     736.3230     518.7610
   1424.57764     737.4354     519.5085   1424.57764     737.4354     519.5085
   1424.56238     738.0806     519.9594   1424.56238     738.0806     519.9594
   1424.54712     736.9510     519.8616   1424.54712     736.9510     519.8616
   1424.53186     737.8098     521.3262   1424.53186     737.8098     521.3262
   1424.51660     737.4152     521.4989   1424.51660     737.4152     521.4989
   1424.50134     737.0234     522.6686   1424.50134     737.0234     522.6686
   1424.48608     738.3023     522.2570   1424.48608     738.3023     522.2570
   1424.47083     737.2886     523.7155   1424.47083     737.2886     523.7155
   1424.45557     737.2971     523.2386   1424.45557     737.2971     523.2386
   1424.44031     736.4509     523.9116   1424.44031     736.4509     523.9116
   1424.42505     737.5646     524.3821   1424.42505     737.5646     524.3821
   1424.40979     737.0349     524.8588   1424.40979     737.0349     524.8588
   1424.39453     738.3750     525.4279   1424.39453     738.3750     525.4279
   1424.37927     738.8518     526.2825   1424.37927     738.8518     526.2825
   1424.36401     737.7620     525.8864   1424.36401     737.7620     525.8864
   1424.34875     737.8290     526.5838   1424.34875     737.8290     526.5838
   1424.33350     738.3466     527.1184   1424.33350     738.3466     527.1184
   1424.31824     737.9407     527.7078   1424.31824     737.9407     527.7078
   1424.30298     737.7599     528.3661   1424.30298     737.7599     528.3661
   1424.28772     736.5200     528.7233   1424.28772     736.5200     528.7233
   1424.27246     737.2771     529.3864   1424.27246     737.2771     529.3864
   1424.25720     737.6843     529.5106   1424.25720     737.6843     529.5106
   1424.24194     736.4962     530.1453   1424.24194     736.4962     530.1453
   1424.22668     736.2863     530.4902   1424.22668     736.2863     530.4902
   1424.21143     736.8932     530.7264   1424.21143     736.8932     530.7264
   1424.19617     735.6611     531.7578   1424.19617     735.6611     531.7578
   1424.18091     735.5863     530.9127   1424.18091     735.5863     530.9127
   1424.16565     736.0644     532.1621   1424.16565     736.0644     532.1621
   1424.15039     736.2249     533.1543   1424.15039     736.2249     533.1543
   1424.13513     736.0999     533.9121   1424.13513     736.0999     533.9121
   1424.11987     736.1900     533.7281   1424.11987     736.1900     533.7281
   1424.10461     735.7225     534.7101   1424.10461     735.7225     534.7101
   1424.08936     736.1203     535.6491   1424.08936     736.1203     535.6491
   1424.07410     735.0278     535.2883   1424.07410     735.0278     535.2883
   1424.05884     735.3984     535.5974   1424.05884     735.3984     535.5974
   1424.04358     735.0487     535.9483   1424.04358     735.0487     535.9483
   1424.02832     735.1254     537.2118   1424.02832     735.1254     537.2118
   1424.01306     734.6706     537.0050   1424.01306     734.6706     537.0050
   1423.99780     735.5081     538.3631   1423.99780     735.5081     538.3631
   1423.98254     733.9688     537.8384   1423.98254     733.9688     537.8384
   1423.96729     735.2781     538.7488   1423.96729     735.2781     538.7488
   1423.95203     734.5999     539.0645   1423.95203     734.5999     539.0645
   1423.93677     735.1667     539.1035   1423.93677     735.1667     539.1035
   1423.92151     734.9824     540.8514   1423.92151     734.9824     540.8514
   1423.90625     733.4056     540.1589   1423.90625     733.4056     540.1589
   1423.89099     733.9218     540.9965   1423.89099     733.9218     540.9965
   1423.87573     733.4519     541.8904   1423.87573     733.4519     541.8904
   1423.86047     732.6362     540.9760   1423.86047     732.6362     540.9760
   1423.84521     732.3505     542.3060   1423.84521     732.3505     542.3060
   1423.82996     733.6902     542.1390   1423.82996     733.6902     542.1390
   1423.81470     733.5414     543.6432   1423.81470     733.5414     543.6432
   1423.79944     733.5576     543.4766   1423.79944     733.5576     543.4766
   1423.78418     732.7610     543.6251   1423.78418     732.7610     543.6251
   1423.76892     731.9894     544.9507   1423.76892     731.9894     544.9507
   1423.75366     733.4529     544.8897   1423.75366     733.4529     544.8897
   1423.73840     733.0089     544.9159   1423.73840     733.0089     544.9159
   1423.72314     732.4373     545.5011   1423.72314     732.4373     545.5011
   1423.70789     733.4811     546.4125   1423.70789     733.4811     546.4125
   1423.69263     731.1134     546.3903   1423.69263     731.1134     546.3903
   1423.67737     732.1453     546.2470   1423.67737     732.1453     546.2470
   1423.66211     732.5393     547.5799   1423.66211     732.5393     547.5799
   1423.64685     731.6309     547.5553   1423.64685     731.6309     547.5553
   1423.63159     730.8967     547.6682   1423.63159     730.8967     547.6682
   1423.61633     731.2109     547.5908   1423.61633     731.2109     547.5908
   1423.60107     730.5257     548.2415   1423.60107     730.5257     548.2415
   1423.58582     730.8773     548.9610   1423.58582     730.8773     548.9610
   1423.57056     730.2530     549.4200   1423.57056     730.2530     549.4200
   1423.55530     730.0406     549.8281   1423.55530     730.0406     549.8281
   1423.54004     729.3610     549.2842   1423.54004     729.3610     549.2842
   1423.52478     730.5008     550.1483   1423.52478     730.5008     550.1483
   1423.50952     730.6795     549.8725   1423.50952     730.6795     549.8725
   1423.49426     729.4692     550.9033   1423.49426     729.4692     550.9033
   1423.47900     729.9988     551.4034   1423.47900     729.9988     551.4034
   1423.46375     729.7511     551.1559   1423.46375     729.7511     551.1559
   1423.44849     729.2724     551.2851   1423.44849     729.2724     551.2851
   1423.43323     730.2050     550.8027   1423.43323     730.2050     550.8027
   1423.41797     728.5602     551.8731   1423.41797     728.5602     551.8731
   1423.40271     728.9208     552.9028   1423.40271     728.9208     552.9028
   1423.38745     728.7604     552.3354   1423.38745     728.7604     552.3354
   1423.37219     729.7877     552.7611   1423.37219     729.7877     552.7611
   1423.35693     727.8231     553.1840   1423.35693     727.8231     553.1840
   1423.34167     728.3473     552.5016   1423.34167     728.3473     552.5016
   1423.32642     726.9493     552.9456   1423.32642     726.9493     552.9456
   1423.31116     728.4212     553.1780   1423.31116     728.4212     553.1780
   1423.29590     727.2483     553.4478   1423.29590     727.2483     553.4478
   1423.28064     727.3495     554.0414   1423.28064     727.3495     554.0414
   1423.26538     727.0243     553.0062   1423.26538     727.0243     553.0062
   1423.25012     726.2255     554.6850   1423.25012     726.2255     554.6850
   1423.23486     726.9525     553.2277   1423.23486     726.9525     553.2277
   1423.21960     727.8315     554.2303   1423.21960     727.8315     554.2303
   1423.20435     726.8113     553.1761   1423.20435     726.8113     553.1761
   1423.18909     727.2983     553.8483   1423.18909     727.2983     553.8483
   1423.17383     725.6624     554.0520   1423.17383     725.6624     554.0520
   1423.15857     726.5377     554.5307   1423.15857     726.5377     554.5307
   1423.14331     725.3143     553.7332   1423.14331     725.3143     553.7332
   1423.12805     725.4065     553.7532   1423.12805     725.4065     553.7532
   1423.11279     726.1205     553.3575   1423.11279     726.1205     553.3575
   1423.09753     725.6503     553.7872   1423.09753     725.6503     553.7872
   1423.08228     725.0739     554.2910   1423.08228     725.0739     554.2910
   1423.06702     725.6564     554.1566   1423.06702     725.6564     554.1566
   1423.05176     725.4740     553.5976   1423.05176     725.4740     553.5976
   1423.03650     723.9409     553.0566   1423.03650     723.9409     553.0566
   1423.02124     725.6267     553.6697   1423.02124     725.6267     553.6697
   1423.00598     724.8394     553.0257   1423.00598     724.8394     553.0257
   1422.99072     724.7128     553.4626   1422.99072     724.7128     553.4626
   1422.97546     723.4444     552.6609   1422.97546     723.4444     552.6609
   1422.96021     724.5251     552.5296   1422.96021     724.5251     552.5296
   1422.94495     723.6032     551.9844   1422.94495     723.6032     551.9844
   1422.92969     723.5845     552.6755   1422.92969     723.5845     552.6755
   1422.91443     722.6566     552.8715   1422.91443     722.6566     552.8715
   1422.89917     722.7375     550.8309   1422.89917     722.7375     550.8309
   1422.88391     722.8036     552.0757   1422.88391     722.8036     552.0757
   1422.86865     722.1105     552.0756   1422.86865     722.1105     552.0756
   1422.85339     722.6666     551.0046   1422.85339     722.6666     551.0046
   1422.83813     721.4227     550.7665   1422.83813     721.4227     550.7665
   1422.82288     721.1598     549.8261   1422.82288     721.1598     549.8261
   1422.80762     721.6670     549.8446   1422.80762     721.6670     549.8446
   1422.79236     721.7065     550.1423   1422.79236     721.7065     550.1423
   1422.77710     721.1090     549.4392   1422.77710     721.1090     549.4392
   1422.76184     720.7792     548.5571   1422.76184     720.7792     548.5571
   1422.74658     720.4177     549.0516   1422.74658     720.4177     549.0516
   1422.73132     720.8851     547.4843   1422.73132     720.8851     547.4843
   1422.71606     719.9296     547.4230   1422.71606     719.9296     547.4230
   1422.70081     719.4814     547.7521   1422.70081     719.4814     547.7521
   1422.68555     719.1999     546.5718   1422.68555     719.1999     546.5718
   1422.67029     718.7097     546.0570   1422.67029     718.7097     546.0570
   1422.65503     719.8011     545.2502   1422.65503     719.8011     545.2502
   1422.63977     719.1553     545.0134   1422.63977     719.1553     545.0134
   1422.62451     719.2325     544.7971   1422.62451     719.2325     544.7971
   1422.60925     718.7759     544.5800   1422.60925     718.7759     544.5800
   1422.59399     717.8688     543.9221   1422.59399     717.8688     543.9221
   1422.57874     718.5914     542.4946   1422.57874     718.5914     542.4946
   1422.56348     717.3057     542.4210   1422.56348     717.3057     542.4210
   1422.54822     716.8940     540.8548   1422.54822     716.8940     540.8548
   1422.53296     717.1850     540.6580   1422.53296     717.1850     540.6580
   1422.51770     717.7318     539.8046   1422.51770     717.7318     539.8046
   1422.50244     715.4792     539.5323   1422.50244     715.4792     539.5323
   1422.48718     716.6370     538.9810   1422.48718     716.6370     538.9810
   1422.47192     715.2175     537.5504   1422.47192     715.2175     537.5504
   1422.45667     717.3026     536.4104   1422.45667     717.3026     536.4104
   1422.44141     715.6011     536.0060   1422.44141     715.6011     536.0060
   1422.42615     715.9141     535.1163   1422.42615     715.9141     535.1163
   1422.41089     715.2544     534.6674   1422.41089     715.2544     534.6674
   1422.39563     715.5351     534.5123   1422.39563     715.5351     534.5123
   1422.38037     715.8013     532.9778   1422.38037     715.8013     532.9778
   1422.36511     714.4148     531.7571   1422.36511     714.4148     531.7571
   1422.34985     713.9102     530.7406   1422.34985     713.9102     530.7406
   1422.33459     713.7095     530.3642   1422.33459     713.7095     530.3642
   1422.31934     713.7619     530.4389   1422.31934     713.7619     530.4389
   1422.30408     714.4456     529.0336   1422.30408     714.4456     529.0336
   1422.28882     712.2094     527.0370   1422.28882     712.2094     527.0370
   1422.27356     712.2767     526.4736   1422.27356     712.2767     526.4736
   1422.25830     712.1018     525.7039   1422.25830     712.1018     525.7039
   1422.24304     712.1888     524.8221   1422.24304     712.1888     524.8221
   1422.22778     712.1463     523.7424   1422.22778     712.1463     523.7424
   1422.21252     712.7219     523.0918   1422.21252     712.7219     523.0918
   1422.19727     711.1627     521.5532   1422.19727     711.1627     521.5532
   1422.18201     711.3239     521.2107   1422.18201     711.3239     521.2107
   1422.16675     712.4436     519.5126   1422.16675     712.4436     519.5126
   1422.15149     711.0307     518.4561   1422.15149     711.0307     518.4561
   1422.13623     709.4316     517.2585   1422.13623     709.4316     517.2585
   1422.12097     710.2891     517.0168   1422.12097     710.2891     517.0168
   1422.10571     710.5510     515.5659   1422.10571     710.5510     515.5659
   1422.09045     710.1777     514.5549   1422.09045     710.1777     514.5549
   1422.07520     708.9946     513.3959   1422.07520     708.9946     513.3959
   1422.05994     709.8455     511.2484   1422.05994     709.8455     511.2484
   1422.04468     708.8228     511.0327   1422.04468     708.8228     511.0327
   1422.02942     709.2719     509.6762   1422.02942     709.2719     509.6762
   1422.01416     708.9359     509.0518   1422.01416     708.9359     509.0518
   1421.99890     708.3410     508.0303   1421.99890     708.3410     508.0303
   1421.98364     708.6025     506.9840   1421.98364     708.6025     506.9840
   1421.96838     708.1780     505.0458   1421.96838     708.1780     505.0458
   1421.95312     707.0438     504.0319   1421.95312     707.0438     504.0319
   1421.93787     707.4016     503.3285   1421.93787     707.4016     503.3285
   1421.92261     707.4493     502.0785   1421.92261     707.4493     502.0785
   1421.90735     707.6425     501.7283   1421.90735     707.6425     501.7283
   1421.89209     705.5656     498.9621   1421.89209     705.5656     498.9621
   1421.87683     705.3434     498.0599   1421.87683     705.3434     498.0599
   1421.86157     707.0281     497.3344   1421.86157     707.0281     497.3344
   1421.84631     705.3514     496.6379   1421.84631     705.3514     496.6379
   1421.83105     705.7059     494.8211   1421.83105     705.7059     494.8211
   1421.81580     705.0502     493.4903   1421.81580     705.0502     493.4903
   1421.80054     705.0643     491.6771   1421.80054     705.0643     491.6771
   1421.78528     705.3121     490.6155   1421.78528     705.3121     490.6155
   1421.77002     703.6909     488.2175   1421.77002     703.6909     488.2175
   1421.75476     703.9601     488.0596   1421.75476     703.9601     488.0596
   1421.73950     704.0667     486.1760   1421.73950     704.0667     486.1760
   1421.72424     704.8651     486.1211   1421.72424     704.8651     486.1211
   1421.70898     703.1991     483.5454   1421.70898     703.1991     483.5454
   1421.69373     703.8481     482.5510   1421.69373     703.8481     482.5510
   1421.67847     703.4768     481.6393   1421.67847     703.4768     481.6393
   1421.66321     702.6716     481.0396   1421.66321     702.6716     481.0396
   1421.64795     702.8671     479.7777   1421.64795     702.8671     479.7777
   1421.63269     702.2790     478.0570   1421.63269     702.2790     478.0570
   1421.61743     702.4530     476.4604   1421.61743     702.4530     476.4604
   1421.60217     702.0933     475.3550   1421.60217     702.0933     475.3550
   1421.58691     701.1392     474.0026   1421.58691     701.1392     474.0026
   1421.57166     701.0517     472.5977   1421.57166     701.0517     472.5977
   1421.55640     701.8248     471.7553   1421.55640     701.8248     471.7553
   1421.54114     701.5610     470.5836   1421.54114     701.5610     470.5836
   1421.52588     701.0781     469.1095   1421.52588     701.0781     469.1095
   1421.51062     701.2466     468.0081   1421.51062     701.2466     468.0081
   1421.49536     700.5231     466.0597   1421.49536     700.5231     466.0597
   1421.48010     700.5371     465.4990   1421.48010     700.5371     465.4990
   1421.46484     700.2572     464.0829   1421.46484     700.2572     464.0829
   1421.44958     699.7870     461.8559   1421.44958     699.7870     461.8559
   1421.43433     699.7536     461.2513   1421.43433     699.7536     461.2513
   1421.41907     699.5750     459.6966   1421.41907     699.5750     459.6966
   1421.40381     699.3242     458.4841   1421.40381     699.3242     458.4841
   1421.38855     699.0474     457.2542   1421.38855     699.0474     457.2542
   1421.37329     699.1649     456.3730   1421.37329     699.1649     456.3730
   1421.35803     699.2282     454.8480   1421.35803     699.2282     454.8480
   1421.34277     697.8251     453.2016   1421.34277     697.8251     453.2016
   1421.32751     698.0541     453.4044   1421.32751     698.0541     453.4044
   1421.31226     699.3315     451.1011   1421.31226     699.3315     451.1011
   1421.29700     698.2038     449.8508   1421.29700     698.2038     449.8508
   1421.28174     698.2390     448.6332   1421.28174     698.2390     448.6332
   1421.26648     698.2418     447.5183   1421.26648     698.2418     447.5183
   1421.25122     699.5052     447.0443   1421.25122     699.5052     447.0443
   1421.23596     698.8362     445.9658   1421.23596     698.8362     445.9658
   1421.22070     699.0251     445.3596   1421.22070     699.0251     445.3596
   1421.20544     700.3025     444.2883   1421.20544     700.3025     444.2883
   1421.19019     702.0609     444.3263   1421.19019     702.0609     444.3263
   1421.17493     702.9288     443.3484   1421.17493     702.9288     443.3484
   1421.15967     702.9744     442.9062   1421.15967     702.9744     442.9062
   1421.14441     705.1747     442.3900   1421.14441     705.1747     442.3900
   1421.12915     706.5920     443.1644   1421.12915     706.5920     443.1644
   1421.11389     708.9078     443.3325   1421.11389     708.9078     443.3325
   1421.09863     711.9468     444.2447   1421.09863     711.9468     444.2447
   1421.08337     715.7057     444.2160   1421.08337     715.7057     444.2160
   1421.06812     721.6786     446.5193   1421.06812     721.6786     446.5193
   1421.05286     729.1753     451.2992   1421.05286     729.1753     451.2992
   1421.03760     746.1880     459.5358   1421.03760     746.1880     459.5358
   1421.02234     770.9430     472.5118   1421.02234     770.9430     472.5118
   1421.00708     810.5450     494.9340   1421.00708     810.5450     494.9340
   1420.99182     878.2745     533.5947   1420.99182     878.2745     533.5947
   1420.97656     990.8640     598.2368   1420.97656     990.8640     598.2368
   1420.96130    1188.0961     714.1974   1420.96130    1188.0961     714.1974
   1420.94604    1371.6213     818.6676   1420.94604    1371.6213     818.6676
   1420.93079    1469.5515     875.1476   1420.93079    1469.5515     875.1476
   1420.91553    1495.9851     889.9897   1420.91553    1495.9851     889.9897
   1420.90027    1434.3878     853.2921   1420.90027    1434.3878     853.2921
   1420.88501    1295.2701     768.4276   1420.88501    1295.2701     768.4276
   1420.86975    1201.8220     710.4572   1420.86975    1201.8220     710.4572
   1420.85449    1202.8878     707.3284   1420.85449    1202.8878     707.3284
   1420.83923    1199.4836     702.9973   1420.83923    1199.4836     702.9973
   1420.82397    1168.6768     685.5800   1420.82397    1168.6768     685.5800
   1420.80872    1072.6217     627.7841   1420.80872    1072.6217     627.7841
   1420.79346    1026.6497     600.0789   1420.79346    1026.6497     600.0789
   1420.77820    1055.1598     617.6628   1420.77820    1055.1598     617.6628
   1420.76294    1176.0728     685.2316   1420.76294    1176.0728     685.2316
   1420.74768    1300.3636     754.0853   1420.74768    1300.3636     754.0853
   1420.73242    1402.8552     807.7466   1420.73242    1402.8552     807.7466
   1420.71716    1448.1127     832.3317   1420.71716    1448.1127     832.3317
   1420.70190    1393.7594     798.2230   1420.70190    1393.7594     798.2230
   1420.68665    1272.3021     727.0483   1420.68665    1272.3021     727.0483
   1420.67139    1273.6678     726.3448   1420.67139    1273.6678     726.3448
   1420.65613    1421.6372     808.6925   1420.65613    1421.6372     808.6925
   1420.64087    1548.6976     876.0582   1420.64087    1548.6976     876.0582
   1420.62561    1740.7782     977.9865   1420.62561    1740.7782     977.9865
   1420.61035    2028.2837    1136.3992   1420.61035    2028.2837    1136.3992
   1420.59509    2234.5549    1251.7024   1420.59509    2234.5549    1251.7024
   1420.57983    2282.5723    1270.8159   1420.57983    2282.5723    1270.8159
   1420.56458    2181.7729    1213.4561   1420.56458    2181.7729    1213.4561
   1420.54932    2192.5615    1220.7411   1420.54932    2192.5615    1220.7411
   1420.53406    2192.3225    1214.4614   1420.53406    2192.3225    1214.4614
   1420.51880    2121.4495    1175.5588   1420.51880    2121.4495    1175.5588
   1420.50354    1929.3008    1067.8350   1420.50354    1929.3008    1067.8350
   1420.48828    1593.8683     883.7033   1420.48828    1593.8683     883.7033
   1420.47302    1175.1451     653.1598   1420.47302    1175.1451     653.1598
   1420.45776     926.7842     517.0261   1420.45776     926.7842     517.0261
   1420.44250     816.2661     456.5948   1420.44250     816.2661     456.5948
   1420.42725     765.7259     427.0286   1420.42725     765.7259     427.0286
   1420.41199     738.2211     411.2846   1420.41199     738.2211     411.2846
   1420.39673     722.4193     401.7419   1420.39673     722.4193     401.7419
   1420.38147     712.9271     395.4426   1420.38147     712.9271     395.4426
   1420.36621     706.7714     391.9285   1420.36621     706.7714     391.9285
   1420.35095     704.7394     389.4846   1420.35095     704.7394     389.4846
   1420.33569     702.8412     387.2693   1420.33569     702.8412     387.2693
   1420.32043     701.0443     385.9920   1420.32043     701.0443     385.9920
   1420.30518     701.2296     385.1245   1420.30518     701.2296     385.1245
   1420.28992     701.6097     384.2524   1420.28992     701.6097     384.2524
   1420.27466     701.4277     382.5642   1420.27466     701.4277     382.5642
   1420.25940     699.8962     382.4791   1420.25940     699.8962     382.4791
   1420.24414     699.7427     380.6233   1420.24414     699.7427     380.6233
   1420.22888     698.5135     379.8430   1420.22888     698.5135     379.8430
   1420.21362     697.4008     378.5740   1420.21362     697.4008     378.5740
   1420.19836     696.4352     377.3401   1420.19836     696.4352     377.3401
   1420.18311     693.8871     375.7418   1420.18311     693.8871     375.7418
   1420.16785     694.6563     374.1302   1420.16785     694.6563     374.1302
   1420.15259     692.3898     373.5498   1420.15259     692.3898     373.5498
   1420.13733     692.2617     372.6273   1420.13733     692.2617     372.6273
   1420.12207     691.5254     371.2344   1420.12207     691.5254     371.2344
   1420.10681     690.9421     370.9675   1420.10681     690.9421     370.9675
   1420.09155     690.5963     370.1792   1420.09155     690.5963     370.1792
   1420.07629     691.0740     369.4457   1420.07629     691.0740     369.4457
   1420.06104     690.6434     368.6581   1420.06104     690.6434     368.6581
   1420.04578     690.3865     367.4474   1420.04578     690.3865     367.4474
   1420.03052     691.0258     367.2599   1420.03052     691.0258     367.2599
   1420.01526     691.6678     367.2392   1420.01526     691.6678     367.2392
   1420.00000     692.1331     367.7685   1420.00000     692.1331     367.7685
   1419.98474     692.5980     368.2977   1419.98474     692.5980     368.2977
   1419.96948     693.6155     365.8826   1419.96948     693.6155     365.8826
   1419.95422     691.7973     364.3152   1419.95422     691.7973     364.3152
   1419.93896     691.3010     363.1579   1419.93896     691.3010     363.1579
   1419.92371     690.7909     363.0886   1419.92371     690.7909     363.0886
   1419.90845     692.1586     363.1513   1419.90845     692.1586     363.1513
   1419.89319     691.3695     362.3889   1419.89319     691.3695     362.3889
   1419.87793     692.7767     361.1470   1419.87793     692.7767     361.1470
   1419.86267     694.0012     361.0253   1419.86267     694.0012     361.0253
   1419.84741     693.1527     360.0111   1419.84741     693.1527     360.0111
   1419.83215     693.2546     360.1838   1419.83215     693.2546     360.1838
   1419.81689     693.0956     359.8886   1419.81689     693.0956     359.8886
   1419.80164     692.7304     360.0153   1419.80164     692.7304     360.0153
   1419.78638     694.4902     359.2294   1419.78638     694.4902     359.2294
   1419.77112     693.7289     359.3140   1419.77112     693.7289     359.3140
   1419.75586     695.7549     359.0834   1419.75586     695.7549     359.0834
   1419.74060     695.9057     358.1055   1419.74060     695.9057     358.1055
   1419.72534     695.7909     358.0095   1419.72534     695.7909     358.0095
   1419.71008     695.7526     357.6362   1419.71008     695.7526     357.6362
   1419.69482     697.2243     357.1541   1419.69482     697.2243     357.1541
   1419.67957     697.2582     356.3451   1419.67957     697.2582     356.3451
   1419.66431     698.0090     356.2555   1419.66431     698.0090     356.2555
   1419.64905     697.1249     356.1538   1419.64905     697.1249     356.1538
   1419.63379     697.4827     356.4992   1419.63379     697.4827     356.4992
   1419.61853     699.5270     355.9239   1419.61853     699.5270     355.9239
   1419.60327     698.8654     355.7887   1419.60327     698.8654     355.7887
   1419.58801     699.2777     355.1588   1419.58801     699.2777     355.1588
   1419.57275     699.0588     354.6983   1419.57275     699.0588     354.6983
   1419.55750     700.1518     354.7588   1419.55750     700.1518     354.7588
   1419.54224     701.7567     354.4081   1419.54224     701.7567     354.4081
   1419.52698     700.9172     354.4361   1419.52698     700.9172     354.4361
   1419.51172     700.6061     354.1407   1419.51172     700.6061     354.1407
   1419.49646     701.6183     353.7824   1419.49646     701.6183     353.7824
   1419.48120     702.1249     353.5730   1419.48120     702.1249     353.5730
   1419.46594     703.9052     353.3282   1419.46594     703.9052     353.3282
   1419.45068     701.2737     353.4755   1419.45068     701.2737     353.4755
   1419.43542     702.5919     353.1726   1419.43542     702.5919     353.1726
   1419.42017     703.8143     353.2166   1419.42017     703.8143     353.2166
   1419.40491     703.9164     352.5055   1419.40491     703.9164     352.5055
   1419.38965     704.6290     353.4704   1419.38965     704.6290     353.4704
   1419.37439     704.8839     351.8420   1419.37439     704.8839     351.8420
   1419.35913     703.5028     353.0038   1419.35913     703.5028     353.0038
   1419.34387     705.3836     352.4617   1419.34387     705.3836     352.4617
   1419.32861     707.0529     352.2739   1419.32861     707.0529     352.2739
   1419.31335     707.5220     352.5238   1419.31335     707.5220     352.5238
   1419.29810     706.9846     352.5992   1419.29810     706.9846     352.5992
   1419.28284     707.5534     352.2855   1419.28284     707.5534     352.2855
   1419.26758     708.7612     352.4331   1419.26758     708.7612     352.4331
   1419.25232     708.2294     351.9583   1419.25232     708.2294     351.9583
   1419.23706     709.9156     352.1428   1419.23706     709.9156     352.1428
   1419.22180     709.8981     351.8999   1419.22180     709.8981     351.8999
   1419.20654     709.7399     351.8040   1419.20654     709.7399     351.8040
   1419.19128     710.6816     352.0346   1419.19128     710.6816     352.0346
   1419.17603     711.4376     351.5850   1419.17603     711.4376     351.5850
   1419.16077     712.7130     352.1815   1419.16077     712.7130     352.1815
   1419.14551     713.8207     351.8065   1419.14551     713.8207     351.8065
   1419.13025     712.8087     351.8203   1419.13025     712.8087     351.8203
   1419.11499     714.2966     352.5428   1419.11499     714.2966     352.5428
   1419.09973     714.6069     351.9557   1419.09973     714.6069     351.9557
   1419.08447     715.4133     351.9478   1419.08447     715.4133     351.9478
   1419.06921     715.9468     351.5659   1419.06921     715.9468     351.5659
   1419.05396     716.8179     352.1544   1419.05396     716.8179     352.1544
   1419.03870     716.3333     352.2931   1419.03870     716.3333     352.2931
   1419.02344     717.0262     352.2211   1419.02344     717.0262     352.2211
   1419.00818     717.8049     352.8374   1419.00818     717.8049     352.8374
   1418.99292     718.6098     352.6835   1418.99292     718.6098     352.6835
   1418.97766     718.2822     352.4435   1418.97766     718.2822     352.4435
   1418.96240     719.3973     353.7508   1418.96240     719.3973     353.7508
   1418.94714     719.6799     352.9947   1418.94714     719.6799     352.9947
   1418.93188     720.8230     353.4397   1418.93188     720.8230     353.4397
   1418.91663     721.3980     353.2473   1418.91663     721.3980     353.2473
   1418.90137     721.4683     353.5949   1418.90137     721.4683     353.5949
   1418.88611     722.9634     353.3642   1418.88611     722.9634     353.3642
   1418.87085     723.4436     353.8762   1418.87085     723.4436     353.8762
   1418.85559     724.6609     353.7769   1418.85559     724.6609     353.7769
   1418.84033     724.8231     354.1085   1418.84033     724.8231     354.1085
   1418.82507     726.1965     353.9736   1418.82507     726.1965     353.9736
   1418.80981     725.0995     354.5868   1418.80981     725.0995     354.5868
   1418.79456     727.4792     354.7121   1418.79456     727.4792     354.7121
   1418.77930     726.9421     355.1281   1418.77930     726.9421     355.1281
   1418.76404     728.4251     355.6027   1418.76404     728.4251     355.6027
   1418.74878     729.2560     355.6382   1418.74878     729.2560     355.6382
   1418.73352     730.9736     355.1004   1418.73352     730.9736     355.1004
   1418.71826     729.7234     356.2213   1418.71826     729.7234     356.2213
   1418.70300     732.4031     356.0269   1418.70300     732.4031     356.0269
   1418.68774     731.7271     356.6015   1418.68774     731.7271     356.6015
   1418.67249     732.7087     356.4991   1418.67249     732.7087     356.4991
   1418.65723     734.6313     357.0866   1418.65723     734.6313     357.0866
   1418.64197     735.7281     356.5222   1418.64197     735.7281     356.5222
   1418.62671     735.0574     357.5100   1418.62671     735.0574     357.5100
   1418.61145     735.6970     357.7496   1418.61145     735.6970     357.7496
   1418.59619     736.7748     357.7881   1418.59619     736.7748     357.7881
   1418.58093     736.2314     358.4267   1418.58093     736.2314     358.4267
   1418.56567     738.8809     358.5295   1418.56567     738.8809     358.5295
   1418.55042     738.5925     358.7036   1418.55042     738.5925     358.7036
   1418.53516     739.5919     359.4880   1418.53516     739.5919     359.4880
   1418.51990     741.5145     360.1936   1418.51990     741.5145     360.1936
   1418.50464     742.0081     360.1691   1418.50464     742.0081     360.1691
   1418.48938     742.2185     360.5913   1418.48938     742.2185     360.5913
   1418.47412     742.3781     361.1079   1418.47412     742.3781     361.1079
   1418.45886     743.5874     360.9763   1418.45886     743.5874     360.9763
   1418.44360     744.7491     361.8895   1418.44360     744.7491     361.8895
   1418.42834     744.6791     361.7423   1418.42834     744.6791     361.7423
   1418.41309     745.7890     362.2611   1418.41309     745.7890     362.2611
   1418.39783     746.5986     362.6908   1418.39783     746.5986     362.6908
   1418.38257     747.8254     363.3279   1418.38257     747.8254     363.3279
   1418.36731     749.6489     363.6189   1418.36731     749.6489     363.6189
   1418.35205     750.1041     364.1980   1418.35205     750.1041     364.1980
   1418.33679     750.9417     364.2234   1418.33679     750.9417     364.2234
   1418.32153     751.6083     364.4662   1418.32153     751.6083     364.4662
   1418.30627     752.0650     364.8899   1418.30627     752.0650     364.8899
   1418.29102     753.0289     365.1146   1418.29102     753.0289     365.1146
   1418.27576     753.3792     365.7294   1418.27576     753.3792     365.7294
   1418.26050     755.4221     366.0938   1418.26050     755.4221     366.0938
   1418.24524     755.2867     366.5518   1418.24524     755.2867     366.5518
   1418.22998     758.1476     367.4718   1418.22998     758.1476     367.4718
   1418.21472     759.1245     367.8917   1418.21472     759.1245     367.8917
   1418.19946     759.2551     367.4937   1418.19946     759.2551     367.4937
   1418.18420     760.3262     368.6387   1418.18420     760.3262     368.6387
   1418.16895     760.3618     368.8633   1418.16895     760.3618     368.8633
   1418.15369     762.8294     369.3468   1418.15369     762.8294     369.3468
   1418.13843     762.7090     370.3099   1418.13843     762.7090     370.3099
   1418.12317     763.1140     370.4139   1418.12317     763.1140     370.4139
   1418.10791     764.8379     370.7240   1418.10791     764.8379     370.7240
   1418.09265     763.9048     371.4970   1418.09265     763.9048     371.4970
   1418.07739     766.4312     372.0910   1418.07739     766.4312     372.0910
   1418.06213     767.5626     371.7979   1418.06213     767.5626     371.7979
   1418.04688     768.4020     372.4111   1418.04688     768.4020     372.4111
   1418.03162     769.6078     372.7679   1418.03162     769.6078     372.7679
   1418.01636     770.5942     374.1523   1418.01636     770.5942     374.1523
   1418.00110     771.1108     374.2702   1418.00110     771.1108     374.2702
   1417.98584     771.2633     374.3899   1417.98584     771.2633     374.3899
   1417.97058     773.4842     375.4579   1417.97058     773.4842     375.4579
   1417.95532     774.9861     375.5662   1417.95532     774.9861     375.5662
   1417.94006     774.8654     375.8049   1417.94006     774.8654     375.8049
   1417.92480     775.1821     377.1532   1417.92480     775.1821     377.1532
   1417.90955     778.1884     377.8891   1417.90955     778.1884     377.8891
   1417.89429     777.9306     377.7465   1417.89429     777.9306     377.7465
   1417.87903     779.0302     378.8613   1417.87903     779.0302     378.8613
   1417.86377     780.1877     379.2018   1417.86377     780.1877     379.2018
   1417.84851     781.7869     379.6145   1417.84851     781.7869     379.6145
   1417.83325     782.6436     380.8106   1417.83325     782.6436     380.8106
   1417.81799     782.9998     380.2826   1417.81799     782.9998     380.2826
   1417.80273     784.4969     382.0362   1417.80273     784.4969     382.0362
   1417.78748     785.1652     381.5943   1417.78748     785.1652     381.5943
   1417.77222     786.2407     383.1812   1417.77222     786.2407     383.1812
   1417.75696     787.3433     383.3417   1417.75696     787.3433     383.3417
   1417.74170     787.6636     383.2910   1417.74170     787.6636     383.2910
   1417.72644     788.2983     384.3391   1417.72644     788.2983     384.3391
   1417.71118     789.5695     384.7414   1417.71118     789.5695     384.7414
   1417.69592     792.0355     385.2256   1417.69592     792.0355     385.2256
   1417.68066     791.4366     386.2544   1417.68066     791.4366     386.2544
   1417.66541     793.9814     386.6620   1417.66541     793.9814     386.6620
   1417.65015     794.0906     387.3736   1417.65015     794.0906     387.3736
   1417.63489     794.3862     388.3879   1417.63489     794.3862     388.3879
   1417.61963     797.5576     388.5424   1417.61963     797.5576     388.5424
   1417.60437     797.0758     389.0925   1417.60437     797.0758     389.0925
   1417.58911     799.4014     389.2365   1417.58911     799.4014     389.2365
   1417.57385     799.6225     390.4607   1417.57385     799.6225     390.4607
   1417.55859     800.6180     390.2119   1417.55859     800.6180     390.2119
   1417.54333     802.0626     391.5410   1417.54333     802.0626     391.5410
   1417.52808     801.9551     391.9421   1417.52808     801.9551     391.9421
   1417.51282     803.7172     392.7604   1417.51282     803.7172     392.7604
   1417.49756     804.4349     392.8082   1417.49756     804.4349     392.8082
   1417.48230     805.0125     393.5148   1417.48230     805.0125     393.5148
   1417.46704     806.9168     394.2392   1417.46704     806.9168     394.2392
   1417.45178     807.0752     394.5142   1417.45178     807.0752     394.5142
   1417.43652     808.5018     395.3969   1417.43652     808.5018     395.3969
   1417.42126     810.6600     396.1129   1417.42126     810.6600     396.1129
   1417.40601     810.4974     396.2403   1417.40601     810.4974     396.2403
   1417.39075     810.8181     397.6611   1417.39075     810.8181     397.6611
   1417.37549     810.6560     397.6864   1417.37549     810.6560     397.6864
   1417.36023     812.8342     398.6400   1417.36023     812.8342     398.6400
   1417.34497     814.0891     398.7628   1417.34497     814.0891     398.7628
   1417.32971     814.4998     400.1337   1417.32971     814.4998     400.1337
   1417.31445     816.7488     399.7968   1417.31445     816.7488     399.7968
   1417.29919     818.2469     401.0500   1417.29919     818.2469     401.0500
   1417.28394     818.1797     401.5756   1417.28394     818.1797     401.5756
   1417.26868     819.4772     402.2712   1417.26868     819.4772     402.2712
   1417.25342     819.0503     402.6118   1417.25342     819.0503     402.6118
   1417.23816     819.9124     403.1729   1417.23816     819.9124     403.1729
   1417.22290     821.1937     404.6729   1417.22290     821.1937     404.6729
   1417.20764     822.2999     404.4545   1417.20764     822.2999     404.4545
   1417.19238     823.0264     404.4460   1417.19238     823.0264     404.4460
   1417.17712     824.4273     405.4811   1417.17712     824.4273     405.4811
   1417.16187     825.9677     405.9166   1417.16187     825.9677     405.9166
   1417.14661     826.2397     406.0421   1417.14661     826.2397     406.0421
   1417.13135     827.7813     407.6398   1417.13135     827.7813     407.6398
   1417.11609     827.6066     407.5721   1417.11609     827.6066     407.5721
   1417.10083     826.4217     408.0879   1417.10083     826.4217     408.0879
   1417.08557     828.6061     408.5630   1417.08557     828.6061     408.5630
   1417.07031     830.2026     408.8237   1417.07031     830.2026     408.8237
   1417.05505     830.3469     409.6771   1417.05505     830.3469     409.6771
   1417.03979     831.1292     410.6884   1417.03979     831.1292     410.6884
   1417.02454     832.7718     410.5107   1417.02454     832.7718     410.5107
   1417.00928     832.7440     411.3629   1417.00928     832.7440     411.3629
   1416.99402     833.9210     412.2304   1416.99402     833.9210     412.2304
   1416.97876     833.6256     412.3452   1416.97876     833.6256     412.3452
   1416.96350     835.9525     413.1684   1416.96350     835.9525     413.1684
   1416.94824     836.4066     413.8004   1416.94824     836.4066     413.8004
   1416.93298     837.1785     413.6914   1416.93298     837.1785     413.6914
   1416.91772     837.5562     414.7077   1416.91772     837.5562     414.7077
   1416.90247     839.0553     414.8029   1416.90247     839.0553     414.8029
   1416.88721     838.6044     415.3658   1416.88721     838.6044     415.3658
   1416.87195     839.3101     415.1418   1416.87195     839.3101     415.1418
   1416.85669     840.1989     415.8967   1416.85669     840.1989     415.8967
   1416.84143     838.6749     417.0686   1416.84143     838.6749     417.0686
   1416.82617     841.0276     417.4725   1416.82617     841.0276     417.4725
   1416.81091     841.6945     417.2610   1416.81091     841.6945     417.2610
   1416.79565     841.1653     417.6252   1416.79565     841.1653     417.6252
   1416.78040     842.1953     418.2809   1416.78040     842.1953     418.2809
   1416.76514     842.6505     418.0183   1416.76514     842.6505     418.0183
   1416.74988     842.7657     419.2241   1416.74988     842.7657     419.2241
   1416.73462     842.1575     419.1519   1416.73462     842.1575     419.1519
   1416.71936     843.3134     419.6847   1416.71936     843.3134     419.6847
   1416.70410     843.0200     420.0990   1416.70410     843.0200     420.0990
   1416.68884     843.5753     419.8354   1416.68884     843.5753     419.8354
   1416.67358     844.6218     420.4788   1416.67358     844.6218     420.4788
   1416.65833     845.8047     421.1172   1416.65833     845.8047     421.1172
   1416.64307     844.4624     421.1995   1416.64307     844.4624     421.1995
   1416.62781     846.8687     421.4553   1416.62781     846.8687     421.4553
   1416.61255     846.3875     422.0087   1416.61255     846.3875     422.0087
   1416.59729     846.2098     421.2997   1416.59729     846.2098     421.2997
   1416.58203     847.0502     422.3695   1416.58203     847.0502     422.3695
   1416.56677     845.6067     422.4014   1416.56677     845.6067     422.4014
   1416.55151     846.8769     422.3755   1416.55151     846.8769     422.3755
   1416.53625     848.0284     422.8465   1416.53625     848.0284     422.8465
   1416.52100     846.1783     422.8580   1416.52100     846.1783     422.8580
   1416.50574     845.7650     422.8334   1416.50574     845.7650     422.8334
   1416.49048     848.1635     423.4954   1416.49048     848.1635     423.4954
   1416.47522     847.0538     422.8303   1416.47522     847.0538     422.8303
   1416.45996     847.8918     423.3559   1416.45996     847.8918     423.3559
   1416.44470     846.0921     423.6554   1416.44470     846.0921     423.6554
   1416.42944     847.4382     423.7238   1416.42944     847.4382     423.7238
   1416.41418     845.0612     424.0079   1416.41418     845.0612     424.0079
   1416.39893     846.8471     424.4659   1416.39893     846.8471     424.4659
   1416.38367     846.8879     424.3994   1416.38367     846.8879     424.3994
   1416.36841     846.6382     424.6039   1416.36841     846.6382     424.6039
   1416.35315     846.4141     423.8842   1416.35315     846.4141     423.8842
   1416.33789     846.5122     424.9271   1416.33789     846.5122     424.9271
   1416.32263     846.2139     424.2973   1416.32263     846.2139     424.2973
   1416.30737     846.6394     425.1215   1416.30737     846.6394     425.1215
   1416.29211     845.8984     424.3200   1416.29211     845.8984     424.3200
   1416.27686     844.9797     424.4564   1416.27686     844.9797     424.4564
   1416.26160     844.8351     424.4349   1416.26160     844.8351     424.4349
   1416.24634     845.1884     424.2338   1416.24634     845.1884     424.2338
   1416.23108     844.9675     424.6006   1416.23108     844.9675     424.6006
   1416.21582     844.6956     424.5886   1416.21582     844.6956     424.5886
   1416.20056     844.2923     424.1132   1416.20056     844.2923     424.1132
   1416.18530     844.8049     424.6307   1416.18530     844.8049     424.6307
   1416.17004     843.5811     424.3007   1416.17004     843.5811     424.3007
   1416.15479     843.4311     423.5279   1416.15479     843.4311     423.5279
   1416.13953     841.9875     423.9705   1416.13953     841.9875     423.9705
   1416.12427     841.5242     423.9702   1416.12427     841.5242     423.9702
   1416.10901     840.9389     424.5829   1416.10901     840.9389     424.5829
   1416.09375     840.0698     424.0904   1416.09375     840.0698     424.0904
   1416.07849     840.3554     423.7974   1416.07849     840.3554     423.7974
   1416.06323     840.3754     423.6009   1416.06323     840.3754     423.6009
   1416.04797     839.0215     422.8719   1416.04797     839.0215     422.8719
   1416.03271     838.7523     423.1729   1416.03271     838.7523     423.1729
   1416.01746     839.6524     423.6891   1416.01746     839.6524     423.6891
   1416.00220     838.7538     422.9603   1416.00220     838.7538     422.9603
   1415.98694     837.7184     423.2054   1415.98694     837.7184     423.2054
   1415.97168     837.0317     423.3034   1415.97168     837.0317     423.3034
   1415.95642     836.9077     423.3828   1415.95642     836.9077     423.3828
   1415.94116     835.4250     422.1963   1415.94116     835.4250     422.1963
   1415.92590     835.7260     422.8808   1415.92590     835.7260     422.8808
   1415.91064     834.4456     422.8139   1415.91064     834.4456     422.8139
   1415.89539     833.4224     421.7286   1415.89539     833.4224     421.7286
   1415.88013     832.2598     422.4312   1415.88013     832.2598     422.4312
   1415.86487     832.4299     421.7646   1415.86487     832.4299     421.7646
   1415.84961     831.0891     421.9287   1415.84961     831.0891     421.9287
   1415.83435     832.4873     421.3883   1415.83435     832.4873     421.3883
   1415.81909     831.1299     420.9331   1415.81909     831.1299     420.9331
   1415.80383     829.5126     420.7484   1415.80383     829.5126     420.7484
   1415.78857     829.7185     420.8992   1415.78857     829.7185     420.8992
   1415.77332     827.2116     420.3551   1415.77332     827.2116     420.3551
   1415.75806     827.8714     420.3011   1415.75806     827.8714     420.3011
   1415.74280     827.3618     420.5610   1415.74280     827.3618     420.5610
   1415.72754     824.6330     420.3711   1415.72754     824.6330     420.3711
   1415.71228     824.2645     419.8061   1415.71228     824.2645     419.8061
   1415.69702     823.7985     418.5665   1415.69702     823.7985     418.5665
   1415.68176     824.3276     419.2348   1415.68176     824.3276     419.2348
   1415.66650     821.9940     418.4757   1415.66650     821.9940     418.4757
   1415.65125     821.7202     418.4040   1415.65125     821.7202     418.4040
   1415.63599     819.9860     418.5653   1415.63599     819.9860     418.5653
   1415.62073     818.9210     417.9143   1415.62073     818.9210     417.9143
   1415.60547     818.2156     417.6816   1415.60547     818.2156     417.6816
   1415.59021     817.4158     417.9987   1415.59021     817.4158     417.9987
   1415.57495     816.6644     417.6580   1415.57495     816.6644     417.6580
   1415.55969     815.0082     417.0333   1415.55969     815.0082     417.0333
   1415.54443     813.5382     416.6707   1415.54443     813.5382     416.6707
   1415.52917     812.7897     416.5861   1415.52917     812.7897     416.5861
   1415.51392     812.5212     416.4017   1415.51392     812.5212     416.4017
   1415.49866     811.0509     416.1452   1415.49866     811.0509     416.1452
   1415.48340     810.8951     416.1576   1415.48340     810.8951     416.1576
   1415.46814     809.2039     415.0062   1415.46814     809.2039     415.0062
   1415.45288     808.1569     414.5750   1415.45288     808.1569     414.5750
   1415.43762     808.0864     414.2205   1415.43762     808.0864     414.2205
   1415.42236     806.1905     414.5338   1415.42236     806.1905     414.5338
   1415.40710     805.4343     413.6813   1415.40710     805.4343     413.6813
   1415.39185     803.3716     413.2861   1415.39185     803.3716     413.2861
   1415.37659     802.7166     413.4119   1415.37659     802.7166     413.4119
   1415.36133     799.5471     412.6008   1415.36133     799.5471     412.6008
   1415.34607     799.9726     412.7222   1415.34607     799.9726     412.7222
   1415.33081     798.0063     412.1082   1415.33081     798.0063     412.1082
   1415.31555     797.5072     411.4393   1415.31555     797.5072     411.4393
   1415.30029     797.1270     411.4477   1415.30029     797.1270     411.4477
   1415.28503     794.6723     410.9074   1415.28503     794.6723     410.9074
   1415.26978     794.6455     410.6689   1415.26978     794.6455     410.6689
   1415.25452     793.1290     409.9281   1415.25452     793.1290     409.9281
   1415.23926     791.6177     409.6185   1415.23926     791.6177     409.6185
   1415.22400     789.9056     408.8757   1415.22400     789.9056     408.8757
   1415.20874     787.7529     408.5081   1415.20874     787.7529     408.5081
   1415.19348     787.5472     408.8027   1415.19348     787.5472     408.8027
   1415.17822     784.9194     408.2173   1415.17822     784.9194     408.2173
   1415.16296     783.2404     407.3532   1415.16296     783.2404     407.3532
   1415.14771     781.1316     407.0604   1415.14771     781.1316     407.0604
   1415.13245     781.5555     407.2197   1415.13245     781.5555     407.2197
   1415.11719     779.3336     405.8972   1415.11719     779.3336     405.8972
   1415.10193     778.3467     405.9361   1415.10193     778.3467     405.9361
   1415.08667     775.6675     405.2038   1415.08667     775.6675     405.2038
   1415.07141     773.9023     404.6085   1415.07141     773.9023     404.6085
   1415.05615     772.3727     403.9042   1415.05615     772.3727     403.9042
   1415.04089     771.2013     404.0771   1415.04089     771.2013     404.0771
   1415.02563     769.8600     402.9691   1415.02563     769.8600     402.9691
   1415.01038     768.6641     402.5392   1415.01038     768.6641     402.5392
   1414.99512     766.1495     402.4554   1414.99512     766.1495     402.4554
   1414.97986     765.2031     401.1951   1414.97986     765.2031     401.1951
   1414.96460     762.6072     400.3488   1414.96460     762.6072     400.3488
   1414.94934     760.7330     400.7768   1414.94934     760.7330     400.7768
   1414.93408     759.3878     399.7129   1414.93408     759.3878     399.7129
   1414.91882     756.8484     399.5533   1414.91882     756.8484     399.5533
   1414.90356     756.5034     398.4236   1414.90356     756.5034     398.4236
   1414.88831     753.8755     398.5673   1414.88831     753.8755     398.5673
   1414.87305     751.7280     398.0297   1414.87305     751.7280     398.0297
   1414.85779     751.1758     397.4321   1414.85779     751.1758     397.4321
   1414.84253     747.7854     396.3435   1414.84253     747.7854     396.3435
   1414.82727     746.9121     395.9824   1414.82727     746.9121     395.9824
   1414.81201     743.7536     395.6981   1414.81201     743.7536     395.6981
   1414.79675     740.8000     395.2553   1414.79675     740.8000     395.2553
   1414.78149     739.5587     393.4935   1414.78149     739.5587     393.4935
   1414.76624     738.2524     392.5817   1414.76624     738.2524     392.5817
   1414.75098     735.2696     392.0097   1414.75098     735.2696     392.0097
   1414.73572     733.6782     391.7407   1414.73572     733.6782     391.7407
   1414.72046     730.9462     391.0225   1414.72046     730.9462     391.0225
   1414.70520     729.3007     390.7571   1414.70520     729.3007     390.7571
   1414.68994     726.4780     389.9688   1414.68994     726.4780     389.9688
   1414.67468     725.2991     389.1428   1414.67468     725.2991     389.1428
   1414.65942     722.8608     388.8188   1414.65942     722.8608     388.8188
   1414.64417     721.3013     387.6514   1414.64417     721.3013     387.6514
   1414.62891     719.4263     386.2072   1414.62891     719.4263     386.2072
   1414.61365     717.2761     386.5714   1414.61365     717.2761     386.5714
   1414.59839     713.1765     385.2821   1414.59839     713.1765     385.2821
   1414.58313     710.6050     384.6724   1414.58313     710.6050     384.6724
   1414.56787     708.6885     383.3247   1414.56787     708.6885     383.3247
   1414.55261     706.1663     382.8683   1414.55261     706.1663     382.8683
   1414.53735     704.6669     381.8586   1414.53735     704.6669     381.8586
   1414.52209     701.1060     381.3438   1414.52209     701.1060     381.3438
   1414.50684     698.4313     380.7709   1414.50684     698.4313     380.7709
   1414.49158     696.4905     379.5946   1414.49158     696.4905     379.5946
   1414.47632     693.9076     378.2258   1414.47632     693.9076     378.2258
   1414.46106     690.6877     377.7571   1414.46106     690.6877     377.7571
   1414.44580     689.0986     376.9463   1414.44580     689.0986     376.9463
   1414.43054     686.3122     375.7466   1414.43054     686.3122     375.7466
   1414.41528     681.6437     374.9436   1414.41528     681.6437     374.9436
   1414.40002     680.7216     374.1086   1414.40002     680.7216     374.1086
   1414.38477     679.1424     373.1339   1414.38477     679.1424     373.1339
   1414.36951     676.1856     371.9854   1414.36951     676.1856     371.9854
   1414.35425     672.5112     370.9512   1414.35425     672.5112     370.9512
   1414.33899     669.3257     371.0087   1414.33899     669.3257     371.0087
   1414.32373     667.9564     368.8047   1414.32373     667.9564     368.8047
   1414.30847     662.8742     368.0992   1414.30847     662.8742     368.0992
   1414.29321     662.5535     367.4834   1414.29321     662.5535     367.4834
   1414.27795     658.1190     366.6228   1414.27795     658.1190     366.6228
   1414.26270     656.6710     366.0191   1414.26270     656.6710     366.0191
   1414.24744     653.0836     364.5889   1414.24744     653.0836     364.5889
   1414.23218     650.1659     363.3998   1414.23218     650.1659     363.3998
   1414.21692     647.5383     362.1927   1414.21692     647.5383     362.1927
   1414.20166     644.8716     360.9372   1414.20166     644.8716     360.9372
   1414.18640     642.3236     360.3583   1414.18640     642.3236     360.3583
   1414.17114     638.5153     359.0168   1414.17114     638.5153     359.0168
   1414.15588     634.8403     358.5028   1414.15588     634.8403     358.5028
   1414.14062     632.9009     356.9475   1414.14062     632.9009     356.9475
   1414.12537     629.0209     356.4730   1414.12537     629.0209     356.4730
   1414.11011     626.8497     354.8382   1414.11011     626.8497     354.8382
   1414.09485     624.4953     353.1776   1414.09485     624.4953     353.1776
   1414.07959     620.9053     352.3355   1414.07959     620.9053     352.3355
   1414.06433     617.9114     351.4282   1414.06433     617.9114     351.4282
   1414.04907     614.1321     350.1331   1414.04907     614.1321     350.1331
   1414.03381     611.5812     350.1006   1414.03381     611.5812     350.1006
   1414.01855     609.6879     348.6612   1414.01855     609.6879     348.6612
   1414.00330     630.8600     357.6905   1414.00330     630.8600     357.6905
   1413.98804     603.1109     346.2380   1413.98804     603.1109     346.2380
   1413.97278     599.6829     344.5130   1413.97278     599.6829     344.5130
   1413.95752     595.3794     343.4427   1413.95752     595.3794     343.4427
   1413.94226     593.9031     342.3878   1413.94226     593.9031     342.3878
   1413.92700     589.3664     340.8360   1413.92700     589.3664     340.8360
   1413.91174     585.5555     339.6429   1413.91174     585.5555     339.6429
   1413.89648     584.6902     338.3308   1413.89648     584.6902     338.3308
   1413.88123     579.9956     337.2843   1413.88123     579.9956     337.2843
   1413.86597     577.0804     336.1951   1413.86597     577.0804     336.1951
   1413.85071     573.3318     334.8701   1413.85071     573.3318     334.8701
   1413.83545     570.9672     333.1867   1413.83545     570.9672     333.1867
   1413.82019     567.2158     332.9316   1413.82019     567.2158     332.9316
   1413.80493     565.2891     331.3170   1413.80493     565.2891     331.3170
   1413.78967     561.2133     329.5792   1413.78967     561.2133     329.5792
   1413.77441     558.7456     328.3560   1413.77441     558.7456     328.3560
   1413.75916     555.2021     326.8794   1413.75916     555.2021     326.8794
   1413.74390     551.8510     326.9140   1413.74390     551.8510     326.9140
   1413.72864     548.0269     324.5029   1413.72864     548.0269     324.5029
   1413.71338     545.6733     323.6394   1413.71338     545.6733     323.6394
   1413.69812     542.4130     321.7306   1413.69812     542.4130     321.7306
   1413.68286     538.7741     320.7057   1413.68286     538.7741     320.7057
   1413.66760     535.5816     319.3487   1413.66760     535.5816     319.3487
   1413.65234     532.8000     318.1321   1413.65234     532.8000     318.1321
   1413.63708     528.6293     316.4389   1413.63708     528.6293     316.4389
   1413.62183     526.4420     315.0653   1413.62183     526.4420     315.0653
   1413.60657     522.6849     313.8805   1413.60657     522.6849     313.8805
   1413.59131     519.7297     312.5701   1413.59131     519.7297     312.5701
   1413.57605     516.8391     311.6902   1413.57605     516.8391     311.6902
   1413.56079     512.9481     309.8954   1413.56079     512.9481     309.8954
   1413.54553     510.5005     308.8068   1413.54553     510.5005     308.8068
   1413.53027     507.0066     307.0757   1413.53027     507.0066     307.0757
   1413.51501     504.1655     306.3069   1413.51501     504.1655     306.3069
   1413.49976     501.3163     305.1628   1413.49976     501.3163     305.1628
   1413.48450     498.7391     303.7720   1413.48450     498.7391     303.7720
   1413.46924     494.5764     301.4623   1413.46924     494.5764     301.4623
   1413.45398     492.0972     300.8857   1413.45398     492.0972     300.8857
   1413.43872     489.6898     299.5306   1413.43872     489.6898     299.5306
   1413.42346     486.1710     298.7937   1413.42346     486.1710     298.7937
   1413.40820     483.0619     296.8290   1413.40820     483.0619     296.8290
   1413.39294     479.2074     295.7483   1413.39294     479.2074     295.7483
   1413.37769     477.5130     294.0916   1413.37769     477.5130     294.0916
   1413.36243     473.1333     293.6345   1413.36243     473.1333     293.6345
   1413.34717     470.8183     291.8511   1413.34717     470.8183     291.8511
   1413.33191     468.5916     290.3603   1413.33191     468.5916     290.3603
   1413.31665     465.8853     289.1993   1413.31665     465.8853     289.1993
   1413.30139     462.8598     287.5977   1413.30139     462.8598     287.5977
   1413.28613     459.6682     286.3074   1413.28613     459.6682     286.3074
   1413.27087     456.5825     285.5257   1413.27087     456.5825     285.5257
   1413.25562     454.0138     283.8401   1413.25562     454.0138     283.8401
   1413.24036     451.1648     282.5824   1413.24036     451.1648     282.5824
   1413.22510     449.0169     281.2832   1413.22510     449.0169     281.2832
   1413.20984     445.4999     280.5037   1413.20984     445.4999     280.5037
   1413.19458     444.0028     279.1630   1413.19458     444.0028     279.1630
   1413.17932     440.9123     277.5381   1413.17932     440.9123     277.5381
   1413.16406     438.1825     276.6568   1413.16406     438.1825     276.6568
   1413.14880     435.9731     275.3252   1413.14880     435.9731     275.3252
   1413.13354     432.6367     274.8234   1413.13354     432.6367     274.8234
   1413.11829     431.0254     273.2336   1413.11829     431.0254     273.2336
   1413.10303     427.6982     271.9266   1413.10303     427.6982     271.9266
   1413.08777     425.8463     271.0671   1413.08777     425.8463     271.0671
   1413.07251     422.7985     269.5641   1413.07251     422.7985     269.5641
   1413.05725     421.1137     268.2214   1413.05725     421.1137     268.2214
   1413.04199     418.5539     267.5662   1413.04199     418.5539     267.5662
   1413.02673     415.9893     266.1369   1413.02673     415.9893     266.1369
   1413.01147     413.6918     265.7475   1413.01147     413.6918     265.7475
   1412.99622     411.2495     264.1370   1412.99622     411.2495     264.1370
   1412.98096     409.5610     263.1943   1412.98096     409.5610     263.1943
   1412.96570     407.6495     262.2124   1412.96570     407.6495     262.2124
   1412.95044     404.4645     261.1464   1412.95044     404.4645     261.1464
   1412.93518     402.7184     260.1424   1412.93518     402.7184     260.1424
   1412.91992     400.8477     259.3901   1412.91992     400.8477     259.3901
   1412.90466     399.0904     258.4006   1412.90466     399.0904     258.4006
   1412.88940     397.3718     257.5723   1412.88940     397.3718     257.5723
   1412.87415     395.0286     256.6088   1412.87415     395.0286     256.6088
   1412.85889     393.5063     255.7037   1412.85889     393.5063     255.7037
   1412.84363     391.3903     255.0329   1412.84363     391.3903     255.0329
   1412.82837     389.7277     253.8448   1412.82837     389.7277     253.8448
   1412.81311     388.0235     252.9157   1412.81311     388.0235     252.9157
   1412.79785     387.2187     252.2774   1412.79785     387.2187     252.2774
   1412.78259     384.7495     251.7333   1412.78259     384.7495     251.7333
   1412.76733     383.7025     250.7867   1412.76733     383.7025     250.7867
   1412.75208     382.1940     250.1722   1412.75208     382.1940     250.1722
   1412.73682     380.4066     249.0783   1412.73682     380.4066     249.0783
   1412.72156     379.2056     248.7509   1412.72156     379.2056     248.7509
   1412.70630     377.8477     247.7833   1412.70630     377.8477     247.7833
   1412.69104     376.6553     247.7066   1412.69104     376.6553     247.7066
   1412.67578     375.7020     246.5961   1412.67578     375.7020     246.5961
   1412.66052     373.9671     246.1653   1412.66052     373.9671     246.1653
   1412.64526     373.6289     245.7937   1412.64526     373.6289     245.7937
   1412.63000     372.0461     244.9586   1412.63000     372.0461     244.9586
   1412.61475     370.4090     244.8200   1412.61475     370.4090     244.8200
   1412.59949     369.6151     244.6328   1412.59949     369.6151     244.6328
   1412.58423     369.0291     243.5069   1412.58423     369.0291     243.5069
   1412.56897     368.2169     243.6131   1412.56897     368.2169     243.6131
   1412.55371     367.4005     243.1603   1412.55371     367.4005     243.1603
   1412.53845     366.0260     242.9377   1412.53845     366.0260     242.9377
   1412.52319     365.9150     242.4361   1412.52319     365.9150     242.4361
   1412.50793     364.8759     242.4472   1412.50793     364.8759     242.4472
   1412.49268     364.4107     241.8787   1412.49268     364.4107     241.8787
   1412.47742     364.1960     241.8042   1412.47742     364.1960     241.8042
   1412.46216     363.1772     241.2470   1412.46216     363.1772     241.2470
   1412.44690     362.7215     241.7971   1412.44690     362.7215     241.7971
   1412.43164     362.7397     241.6350   1412.43164     362.7397     241.6350
   1412.41638     362.3162     241.3801   1412.41638     362.3162     241.3801
   1412.40112     361.7368     241.4185   1412.40112     361.7368     241.4185
   1412.38586     361.4648     241.3939   1412.38586     361.4648     241.3939
   1412.37061     361.2856     241.6418   1412.37061     361.2856     241.6418
   1412.35535     361.6078     241.3465   1412.35535     361.6078     241.3465
   1412.34009     360.6500     241.6313   1412.34009     360.6500     241.6313
   1412.32483     361.0433     241.3939   1412.32483     361.0433     241.3939
   1412.30957     361.3129     241.9893   1412.30957     361.3129     241.9893
   1412.29431     361.5790     242.2894   1412.29431     361.5790     242.2894
   1412.27905     361.5998     242.3550   1412.27905     361.5998     242.3550
   1412.26379     361.7826     243.1518   1412.26379     361.7826     243.1518
   1412.24854     361.9653     243.0361   1412.24854     361.9653     243.0361
   1412.23328     362.7607     243.2529   1412.23328     362.7607     243.2529
   1412.21802     362.5673     243.8893   1412.21802     362.5673     243.8893
   1412.20276     363.5751     244.1940   1412.20276     363.5751     244.1940