#     FILENAME=!Skynet_57528_lach-hhg-117_20393_20941.cyb.fits
#     BASENAME=Skynet_57528_lach-hhg-117_20393_20941
#     SRC_NAME=lach-hhg-117
#     OBSERVER=hhgmadison16_9500
#     DATE_OBS=2016-05-20T16:31:39.430
#        OBSID=20393
#      SCANNUM=20941
#          MJD=57528.6897
#          UTC=59589
#     SCANTYPE=track
#     DATAMODE=HIRES
#     TUNEFREQ=1420.0000
# Actual_FREQ1=1420.0000
# Actual_FREQ2=1420.0000
#    LO1Tuning=6870.000
#     RFFILTER=1355_1435
#        OBSBW=-15.6250
#        NCHAN=1024 
#        FOCUS=37.0709
#           RA=00:00:05.71
#          DEC=62:16:43.46
#      RA(hrs)=0.001600
#     DEC(deg)=62.278700
#    AZIM(deg)=325.266
#    ELEV(deg)=53.045
#     IFattens=11.00, 10.00
#      WARNING=None
#    TCAL_XL1=7.9635
#    TCAL_YR1=9.1340
#    TCAL_XL2=7.9635
#    TCAL_YR2=9.1340
#     TRX_XL1=11.7060
#     TRX_YR1=11.7060
#     TRX_XL2=11.7060
#     TRX_YR2=11.7060
#        TAVE=1.0000
#Freq1(MHz)          XL1          YR1  Freq2(MHz)          XL2          YR2 

   1427.81250     304.4047     227.6180   1427.81250     304.4047     227.6180
   1427.79724     305.3804     228.6129   1427.79724     305.3804     228.6129
   1427.78198     305.6707     228.7629   1427.78198     305.6707     228.7629
   1427.76672     305.9311     229.4218   1427.76672     305.9311     229.4218
   1427.75146     306.4014     230.0762   1427.75146     306.4014     230.0762
   1427.73621     307.7938     230.9922   1427.73621     307.7938     230.9922
   1427.72095     308.6099     231.9393   1427.72095     308.6099     231.9393
   1427.70569     309.0612     232.4701   1427.70569     309.0612     232.4701
   1427.69043     310.1271     233.3224   1427.69043     310.1271     233.3224
   1427.67517     310.6717     234.2286   1427.67517     310.6717     234.2286
   1427.65991     311.1198     235.1612   1427.65991     311.1198     235.1612
   1427.64465     312.6873     235.9292   1427.64465     312.6873     235.9292
   1427.62939     313.7079     236.7565   1427.62939     313.7079     236.7565
   1427.61414     314.6345     237.6436   1427.61414     314.6345     237.6436
   1427.59888     315.4281     238.8510   1427.59888     315.4281     238.8510
   1427.58362     316.7234     239.6620   1427.58362     316.7234     239.6620
   1427.56836     318.0482     240.5977   1427.56836     318.0482     240.5977
   1427.55310     319.0782     242.0770   1427.55310     319.0782     242.0770
   1427.53784     320.1813     243.1460   1427.53784     320.1813     243.1460
   1427.52258     321.5732     244.5050   1427.52258     321.5732     244.5050
   1427.50732     323.2560     245.8674   1427.50732     323.2560     245.8674
   1427.49207     324.0698     246.6948   1427.49207     324.0698     246.6948
   1427.47681     326.0185     248.2193   1427.47681     326.0185     248.2193
   1427.46155     327.5617     249.2356   1427.46155     327.5617     249.2356
   1427.44629     328.8822     250.6853   1427.44629     328.8822     250.6853
   1427.43103     329.8258     251.6953   1427.43103     329.8258     251.6953
   1427.41577     331.9384     253.0280   1427.41577     331.9384     253.0280
   1427.40051     333.7197     254.3676   1427.40051     333.7197     254.3676
   1427.38525     334.6719     255.8337   1427.38525     334.6719     255.8337
   1427.37000     337.1631     257.2066   1427.37000     337.1631     257.2066
   1427.35474     338.0482     259.0730   1427.35474     338.0482     259.0730
   1427.33948     339.9267     260.1387   1427.33948     339.9267     260.1387
   1427.32422     341.0615     261.5690   1427.32422     341.0615     261.5690
   1427.30896     344.0888     263.2299   1427.30896     344.0888     263.2299
   1427.29370     345.5973     264.7963   1427.29370     345.5973     264.7963
   1427.27844     347.4850     266.6539   1427.27844     347.4850     266.6539
   1427.26318     349.1579     268.0359   1427.26318     349.1579     268.0359
   1427.24792     351.1905     269.1936   1427.24792     351.1905     269.1936
   1427.23267     353.4716     270.9628   1427.23267     353.4716     270.9628
   1427.21741     355.4760     272.8919   1427.21741     355.4760     272.8919
   1427.20215     357.6369     274.9445   1427.20215     357.6369     274.9445
   1427.18689     359.2795     276.1662   1427.18689     359.2795     276.1662
   1427.17163     361.3471     277.6988   1427.17163     361.3471     277.6988
   1427.15637     362.8209     279.5339   1427.15637     362.8209     279.5339
   1427.14111     365.3736     281.5049   1427.14111     365.3736     281.5049
   1427.12585     367.5008     283.1255   1427.12585     367.5008     283.1255
   1427.11060     369.0169     284.6045   1427.11060     369.0169     284.6045
   1427.09534     371.4198     287.2947   1427.09534     371.4198     287.2947
   1427.08008     373.8941     288.1202   1427.08008     373.8941     288.1202
   1427.06482     376.2112     290.2635   1427.06482     376.2112     290.2635
   1427.04956     378.4213     292.4033   1427.04956     378.4213     292.4033
   1427.03430     380.8120     294.0282   1427.03430     380.8120     294.0282
   1427.01904     383.2314     296.0569   1427.01904     383.2314     296.0569
   1427.00378     385.1869     298.0912   1427.00378     385.1869     298.0912
   1426.98853     387.1259     299.9309   1426.98853     387.1259     299.9309
   1426.97327     390.4621     301.9220   1426.97327     390.4621     301.9220
   1426.95801     392.3205     303.7681   1426.95801     392.3205     303.7681
   1426.94275     394.7500     305.5513   1426.94275     394.7500     305.5513
   1426.92749     396.7299     307.3358   1426.92749     396.7299     307.3358
   1426.91223     398.9137     309.3298   1426.91223     398.9137     309.3298
   1426.89697     401.7857     311.4743   1426.89697     401.7857     311.4743
   1426.88171     403.5222     313.6439   1426.88171     403.5222     313.6439
   1426.86646     406.5898     315.6039   1426.86646     406.5898     315.6039
   1426.85120     409.3405     317.2461   1426.85120     409.3405     317.2461
   1426.83594     410.8736     318.8870   1426.83594     410.8736     318.8870
   1426.82068     414.0242     320.8283   1426.82068     414.0242     320.8283
   1426.80542     416.5582     323.5145   1426.80542     416.5582     323.5145
   1426.79016     419.2288     325.9221   1426.79016     419.2288     325.9221
   1426.77490     421.4178     327.3732   1426.77490     421.4178     327.3732
   1426.75964     424.1101     329.2294   1426.75964     424.1101     329.2294
   1426.74438     426.9100     331.7801   1426.74438     426.9100     331.7801
   1426.72913     428.7609     333.4867   1426.72913     428.7609     333.4867
   1426.71387     431.2670     335.8971   1426.71387     431.2670     335.8971
   1426.69861     433.6271     337.6462   1426.69861     433.6271     337.6462
   1426.68335     435.9181     339.9761   1426.68335     435.9181     339.9761
   1426.66809     438.1993     341.4992   1426.66809     438.1993     341.4992
   1426.65283     441.3517     343.5548   1426.65283     441.3517     343.5548
   1426.63757     443.9373     345.9404   1426.63757     443.9373     345.9404
   1426.62231     449.9090     349.8755   1426.62231     449.9090     349.8755
   1426.60706     450.9158     351.1067   1426.60706     450.9158     351.1067
   1426.59180     450.7767     352.1275   1426.59180     450.7767     352.1275
   1426.57654     452.8348     354.1177   1426.57654     452.8348     354.1177
   1426.56128     455.9727     356.0319   1426.56128     455.9727     356.0319
   1426.54602     459.0735     358.2592   1426.54602     459.0735     358.2592
   1426.53076     460.6295     359.9966   1426.53076     460.6295     359.9966
   1426.51550     462.9984     361.5351   1426.51550     462.9984     361.5351
   1426.50024     465.3927     363.7900   1426.50024     465.3927     363.7900
   1426.48499     467.6513     366.2306   1426.48499     467.6513     366.2306
   1426.46973     470.6247     368.2534   1426.46973     470.6247     368.2534
   1426.45447     473.1336     370.0570   1426.45447     473.1336     370.0570
   1426.43921     475.5646     372.1629   1426.43921     475.5646     372.1629
   1426.42395     478.0204     374.0896   1426.42395     478.0204     374.0896
   1426.40869     480.3661     375.7841   1426.40869     480.3661     375.7841
   1426.39343     481.5847     378.5015   1426.39343     481.5847     378.5015
   1426.37817     484.6137     379.8275   1426.37817     484.6137     379.8275
   1426.36292     487.6706     381.1570   1426.36292     487.6706     381.1570
   1426.34766     490.1145     384.0065   1426.34766     490.1145     384.0065
   1426.33240     491.6821     385.9894   1426.33240     491.6821     385.9894
   1426.31714     494.5325     387.6198   1426.31714     494.5325     387.6198
   1426.30188     496.5144     390.0183   1426.30188     496.5144     390.0183
   1426.28662     498.9518     391.1082   1426.28662     498.9518     391.1082
   1426.27136     500.6120     393.7001   1426.27136     500.6120     393.7001
   1426.25610     502.8349     395.2694   1426.25610     502.8349     395.2694
   1426.24084     505.4074     397.1502   1426.24084     505.4074     397.1502
   1426.22559     507.7711     398.7164   1426.22559     507.7711     398.7164
   1426.21033     508.9240     401.0706   1426.21033     508.9240     401.0706
   1426.19507     511.5925     403.0905   1426.19507     511.5925     403.0905
   1426.17981     514.0421     404.4353   1426.17981     514.0421     404.4353
   1426.16455     516.8892     406.6253   1426.16455     516.8892     406.6253
   1426.14929     518.4717     407.9084   1426.14929     518.4717     407.9084
   1426.13403     520.0629     409.7266   1426.13403     520.0629     409.7266
   1426.11877     522.4073     411.2549   1426.11877     522.4073     411.2549
   1426.10352     525.1085     413.4720   1426.10352     525.1085     413.4720
   1426.08826     526.4224     414.8824   1426.08826     526.4224     414.8824
   1426.07300     528.4581     417.3533   1426.07300     528.4581     417.3533
   1426.05774     529.9822     418.8514   1426.05774     529.9822     418.8514
   1426.04248     532.2217     420.8226   1426.04248     532.2217     420.8226
   1426.02722     534.5952     422.3741   1426.02722     534.5952     422.3741
   1426.01196     536.7287     423.7133   1426.01196     536.7287     423.7133
   1425.99670     538.2617     426.0602   1425.99670     538.2617     426.0602
   1425.98145     539.8925     427.5436   1425.98145     539.8925     427.5436
   1425.96619     541.6628     428.9833   1425.96619     541.6628     428.9833
   1425.95093     543.6319     430.9358   1425.95093     543.6319     430.9358
   1425.93567     545.2771     432.2395   1425.93567     545.2771     432.2395
   1425.92041     547.7715     433.7745   1425.92041     547.7715     433.7745
   1425.90515     549.5282     435.0118   1425.90515     549.5282     435.0118
   1425.88989     551.5911     437.4347   1425.88989     551.5911     437.4347
   1425.87463     552.2002     438.6584   1425.87463     552.2002     438.6584
   1425.85938     555.0729     440.6492   1425.85938     555.0729     440.6492
   1425.84412     556.7002     442.4590   1425.84412     556.7002     442.4590
   1425.82886     557.4059     443.4067   1425.82886     557.4059     443.4067
   1425.81360     560.0552     445.5279   1425.81360     560.0552     445.5279
   1425.79834     562.2546     446.7302   1425.79834     562.2546     446.7302
   1425.78308     563.6110     448.0655   1425.78308     563.6110     448.0655
   1425.76782     564.0984     449.4681   1425.76782     564.0984     449.4681
   1425.75256     565.8411     451.9185   1425.75256     565.8411     451.9185
   1425.73730     567.3765     452.4560   1425.73730     567.3765     452.4560
   1425.72205     568.4350     454.4684   1425.72205     568.4350     454.4684
   1425.70679     570.0782     455.3824   1425.70679     570.0782     455.3824
   1425.69153     571.6786     457.0100   1425.69153     571.6786     457.0100
   1425.67627     572.6973     458.2906   1425.67627     572.6973     458.2906
   1425.66101     574.1561     460.5794   1425.66101     574.1561     460.5794
   1425.64575     575.3831     461.2718   1425.64575     575.3831     461.2718
   1425.63049     576.9087     462.6608   1425.63049     576.9087     462.6608
   1425.61523     577.8764     463.5189   1425.61523     577.8764     463.5189
   1425.59998     579.6475     465.9732   1425.59998     579.6475     465.9732
   1425.58472     581.2108     466.6477   1425.58472     581.2108     466.6477
   1425.56946     581.9458     467.7585   1425.56946     581.9458     467.7585
   1425.55420     583.9035     469.7892   1425.55420     583.9035     469.7892
   1425.53894     585.2061     470.9871   1425.53894     585.2061     470.9871
   1425.52368     584.8082     472.0170   1425.52368     584.8082     472.0170
   1425.50842     586.5151     473.8579   1425.50842     586.5151     473.8579
   1425.49316     587.8671     475.0857   1425.49316     587.8671     475.0857
   1425.47791     588.4844     475.9298   1425.47791     588.4844     475.9298
   1425.46265     588.9762     477.5989   1425.46265     588.9762     477.5989
   1425.44739     590.6404     478.8387   1425.44739     590.6404     478.8387
   1425.43213     592.1500     479.1023   1425.43213     592.1500     479.1023
   1425.41687     592.7488     481.4773   1425.41687     592.7488     481.4773
   1425.40161     593.9370     481.1812   1425.40161     593.9370     481.1812
   1425.38635     594.8857     482.7529   1425.38635     594.8857     482.7529
   1425.37109     595.6851     484.2795   1425.37109     595.6851     484.2795
   1425.35583     596.2131     485.5658   1425.35583     596.2131     485.5658
   1425.34058     597.5926     486.4590   1425.34058     597.5926     486.4590
   1425.32532     597.9104     487.7016   1425.32532     597.9104     487.7016
   1425.31006     598.6565     489.4106   1425.31006     598.6565     489.4106
   1425.29480     600.0886     489.6040   1425.29480     600.0886     489.6040
   1425.27954     599.4685     490.5005   1425.27954     599.4685     490.5005
   1425.26428     600.5373     492.2438   1425.26428     600.5373     492.2438
   1425.24902     601.7159     492.5461   1425.24902     601.7159     492.5461
   1425.23376     602.1995     493.4153   1425.23376     602.1995     493.4153
   1425.21851     602.9796     495.7357   1425.21851     602.9796     495.7357
   1425.20325     603.1915     495.8470   1425.20325     603.1915     495.8470
   1425.18799     604.7831     496.9717   1425.18799     604.7831     496.9717
   1425.17273     605.3034     497.5652   1425.17273     605.3034     497.5652
   1425.15747     605.8392     499.0939   1425.15747     605.8392     499.0939
   1425.14221     606.1585     499.9076   1425.14221     606.1585     499.9076
   1425.12695     606.8580     500.2719   1425.12695     606.8580     500.2719
   1425.11169     607.6789     502.5123   1425.11169     607.6789     502.5123
   1425.09644     607.3996     502.5909   1425.09644     607.3996     502.5909
   1425.08118     608.0952     503.8496   1425.08118     608.0952     503.8496
   1425.06592     608.7505     504.9533   1425.06592     608.7505     504.9533
   1425.05066     607.8402     506.1592   1425.05066     607.8402     506.1592
   1425.03540     609.5251     506.3120   1425.03540     609.5251     506.3120
   1425.02014     610.5177     507.1558   1425.02014     610.5177     507.1558
   1425.00488     610.3956     507.6191   1425.00488     610.3956     507.6191
   1424.98962     610.2440     509.6199   1424.98962     610.2440     509.6199
   1424.97437     611.0429     510.6161   1424.97437     611.0429     510.6161
   1424.95911     610.4320     511.0954   1424.95911     610.4320     511.0954
   1424.94385     612.5880     511.5132   1424.94385     612.5880     511.5132
   1424.92859     612.3507     512.0792   1424.92859     612.3507     512.0792
   1424.91333     612.5137     512.5023   1424.91333     612.5137     512.5023
   1424.89807     612.3808     513.5748   1424.89807     612.3808     513.5748
   1424.88281     613.0814     514.7509   1424.88281     613.0814     514.7509
   1424.86755     613.1225     515.9084   1424.86755     613.1225     515.9084
   1424.85229     613.0859     516.4326   1424.85229     613.0859     516.4326
   1424.83704     614.0867     517.7775   1424.83704     614.0867     517.7775
   1424.82178     613.7200     517.7380   1424.82178     613.7200     517.7380
   1424.80652     613.7852     518.1844   1424.80652     613.7852     518.1844
   1424.79126     613.8712     518.2209   1424.79126     613.8712     518.2209
   1424.77600     614.0472     519.0591   1424.77600     614.0472     519.0591
   1424.76074     613.7333     521.0018   1424.76074     613.7333     521.0018
   1424.74548     614.4688     520.6886   1424.74548     614.4688     520.6886
   1424.73022     614.5217     521.0091   1424.73022     614.5217     521.0091
   1424.71497     614.4655     521.4659   1424.71497     614.4655     521.4659
   1424.69971     613.6306     521.9992   1424.69971     613.6306     521.9992
   1424.68445     613.9150     523.6558   1424.68445     613.9150     523.6558
   1424.66919     614.3175     523.6792   1424.66919     614.3175     523.6792
   1424.65393     614.6758     525.1160   1424.65393     614.6758     525.1160
   1424.63867     613.7382     525.6597   1424.63867     613.7382     525.6597
   1424.62341     615.2161     526.7175   1424.62341     615.2161     526.7175
   1424.60815     614.4493     526.4841   1424.60815     614.4493     526.4841
   1424.59290     614.5682     527.3917   1424.59290     614.5682     527.3917
   1424.57764     614.9542     527.3046   1424.57764     614.9542     527.3046
   1424.56238     614.9810     528.2372   1424.56238     614.9810     528.2372
   1424.54712     614.1028     529.1307   1424.54712     614.1028     529.1307
   1424.53186     614.6219     529.4342   1424.53186     614.6219     529.4342
   1424.51660     614.5342     529.8740   1424.51660     614.5342     529.8740
   1424.50134     614.3157     529.8924   1424.50134     614.3157     529.8924
   1424.48608     614.7057     530.8082   1424.48608     614.7057     530.8082
   1424.47083     614.7246     530.9523   1424.47083     614.7246     530.9523
   1424.45557     613.8881     531.3553   1424.45557     613.8881     531.3553
   1424.44031     613.9306     533.1949   1424.44031     613.9306     533.1949
   1424.42505     615.0883     532.3624   1424.42505     615.0883     532.3624
   1424.40979     614.3829     533.1520   1424.40979     614.3829     533.1520
   1424.39453     613.4047     533.6727   1424.39453     613.4047     533.6727
   1424.37927     613.2975     533.8936   1424.37927     613.2975     533.8936
   1424.36401     612.5716     534.3043   1424.36401     612.5716     534.3043
   1424.34875     611.9691     535.5581   1424.34875     611.9691     535.5581
   1424.33350     613.3932     535.2603   1424.33350     613.3932     535.2603
   1424.31824     612.6095     535.7518   1424.31824     612.6095     535.7518
   1424.30298     611.5922     535.9812   1424.30298     611.5922     535.9812
   1424.28772     611.8773     536.2586   1424.28772     611.8773     536.2586
   1424.27246     611.7355     535.8003   1424.27246     611.7355     535.8003
   1424.25720     611.7902     536.6844   1424.25720     611.7902     536.6844
   1424.24194     612.2992     537.1957   1424.24194     612.2992     537.1957
   1424.22668     611.6025     537.1491   1424.22668     611.6025     537.1491
   1424.21143     610.5403     537.6420   1424.21143     610.5403     537.6420
   1424.19617     610.7017     537.7634   1424.19617     610.7017     537.7634
   1424.18091     611.9160     539.2891   1424.18091     611.9160     539.2891
   1424.16565     611.4625     539.1336   1424.16565     611.4625     539.1336
   1424.15039     609.9006     538.8394   1424.15039     609.9006     538.8394
   1424.13513     610.1358     540.8949   1424.13513     610.1358     540.8949
   1424.11987     610.1265     540.1045   1424.11987     610.1265     540.1045
   1424.10461     609.6333     540.3684   1424.10461     609.6333     540.3684
   1424.08936     609.5396     540.7520   1424.08936     609.5396     540.7520
   1424.07410     609.7465     540.8535   1424.07410     609.7465     540.8535
   1424.05884     608.5943     540.6060   1424.05884     608.5943     540.6060
   1424.04358     609.8813     541.3015   1424.04358     609.8813     541.3015
   1424.02832     608.3401     540.7675   1424.02832     608.3401     540.7675
   1424.01306     608.0827     541.4475   1424.01306     608.0827     541.4475
   1423.99780     608.3285     541.9591   1423.99780     608.3285     541.9591
   1423.98254     607.2083     541.2803   1423.98254     607.2083     541.2803
   1423.96729     606.3148     542.1358   1423.96729     606.3148     542.1358
   1423.95203     608.6847     542.3042   1423.95203     608.6847     542.3042
   1423.93677     606.7190     542.1566   1423.93677     606.7190     542.1566
   1423.92151     607.0491     542.1903   1423.92151     607.0491     542.1903
   1423.90625     606.1270     542.3691   1423.90625     606.1270     542.3691
   1423.89099     607.3328     542.3710   1423.89099     607.3328     542.3710
   1423.87573     606.2772     542.1552   1423.87573     606.2772     542.1552
   1423.86047     605.8211     541.8055   1423.86047     605.8211     541.8055
   1423.84521     604.5971     543.1179   1423.84521     604.5971     543.1179
   1423.82996     605.9044     543.1755   1423.82996     605.9044     543.1755
   1423.81470     605.9756     542.7397   1423.81470     605.9756     542.7397
   1423.79944     604.3669     542.2012   1423.79944     604.3669     542.2012
   1423.78418     604.5717     542.4524   1423.78418     604.5717     542.4524
   1423.76892     604.3606     542.6611   1423.76892     604.3606     542.6611
   1423.75366     604.0461     542.2537   1423.75366     604.0461     542.2537
   1423.73840     602.4350     542.4548   1423.73840     602.4350     542.4548
   1423.72314     602.6653     542.9852   1423.72314     602.6653     542.9852
   1423.70789     603.2170     543.3177   1423.70789     603.2170     543.3177
   1423.69263     602.8741     542.0856   1423.69263     602.8741     542.0856
   1423.67737     602.7785     542.7634   1423.67737     602.7785     542.7634
   1423.66211     602.1382     543.0905   1423.66211     602.1382     543.0905
   1423.64685     601.9862     542.0741   1423.64685     601.9862     542.0741
   1423.63159     601.5409     542.4894   1423.63159     601.5409     542.4894
   1423.61633     601.3289     541.7061   1423.61633     601.3289     541.7061
   1423.60107     601.2012     541.6553   1423.60107     601.2012     541.6553
   1423.58582     600.4921     541.5972   1423.58582     600.4921     541.5972
   1423.57056     600.8395     542.2844   1423.57056     600.8395     542.2844
   1423.55530     599.7239     541.5857   1423.55530     599.7239     541.5857
   1423.54004     600.0974     542.0099   1423.54004     600.0974     542.0099
   1423.52478     600.3889     541.4164   1423.52478     600.3889     541.4164
   1423.50952     599.8541     540.6453   1423.50952     599.8541     540.6453
   1423.49426     599.4797     540.8225   1423.49426     599.4797     540.8225
   1423.47900     598.4499     540.7214   1423.47900     598.4499     540.7214
   1423.46375     598.3376     540.3071   1423.46375     598.3376     540.3071
   1423.44849     598.5597     539.9854   1423.44849     598.5597     539.9854
   1423.43323     598.9067     539.9410   1423.43323     598.9067     539.9410
   1423.41797     597.9711     540.5923   1423.41797     597.9711     540.5923
   1423.40271     597.6407     539.2609   1423.40271     597.6407     539.2609
   1423.38745     597.5135     538.3447   1423.38745     597.5135     538.3447
   1423.37219     596.6559     538.7304   1423.37219     596.6559     538.7304
   1423.35693     597.3026     538.5383   1423.35693     597.3026     538.5383
   1423.34167     596.5806     537.3732   1423.34167     596.5806     537.3732
   1423.32642     595.9101     537.5277   1423.32642     595.9101     537.5277
   1423.31116     595.6857     537.6265   1423.31116     595.6857     537.6265
   1423.29590     596.0220     536.5143   1423.29590     596.0220     536.5143
   1423.28064     595.4603     537.2301   1423.28064     595.4603     537.2301
   1423.26538     595.2751     536.0558   1423.26538     595.2751     536.0558
   1423.25012     594.5973     535.6552   1423.25012     594.5973     535.6552
   1423.23486     594.1601     535.4332   1423.23486     594.1601     535.4332
   1423.21960     594.0840     534.9276   1423.21960     594.0840     534.9276
   1423.20435     594.5729     535.3077   1423.20435     594.5729     535.3077
   1423.18909     594.2327     534.1951   1423.18909     594.2327     534.1951
   1423.17383     593.6702     533.7333   1423.17383     593.6702     533.7333
   1423.15857     593.5653     533.4252   1423.15857     593.5653     533.4252
   1423.14331     593.5303     532.8820   1423.14331     593.5303     532.8820
   1423.12805     592.6493     532.4445   1423.12805     592.6493     532.4445
   1423.11279     593.6353     532.1544   1423.11279     593.6353     532.1544
   1423.09753     592.8723     531.1478   1423.09753     592.8723     531.1478
   1423.08228     591.8395     530.9731   1423.08228     591.8395     530.9731
   1423.06702     592.1308     529.8969   1423.06702     592.1308     529.8969
   1423.05176     591.9131     530.1271   1423.05176     591.9131     530.1271
   1423.03650     592.3138     529.0853   1423.03650     592.3138     529.0853
   1423.02124     592.2612     529.0333   1423.02124     592.2612     529.0333
   1423.00598     591.4103     528.7871   1423.00598     591.4103     528.7871
   1422.99072     589.8101     527.4360   1422.99072     589.8101     527.4360
   1422.97546     590.5164     527.2968   1422.97546     590.5164     527.2968
   1422.96021     590.1797     527.0965   1422.96021     590.1797     527.0965
   1422.94495     590.7001     525.7003   1422.94495     590.7001     525.7003
   1422.92969     589.2728     525.3654   1422.92969     589.2728     525.3654
   1422.91443     590.4827     524.5339   1422.91443     590.4827     524.5339
   1422.89917     590.1292     525.4802   1422.89917     590.1292     525.4802
   1422.88391     590.3849     522.7056   1422.88391     590.3849     522.7056
   1422.86865     588.9796     522.4361   1422.86865     588.9796     522.4361
   1422.85339     589.6922     522.1857   1422.85339     589.6922     522.1857
   1422.83813     589.0325     521.7523   1422.83813     589.0325     521.7523
   1422.82288     589.0107     521.0730   1422.82288     589.0107     521.0730
   1422.80762     588.3954     519.7106   1422.80762     588.3954     519.7106
   1422.79236     588.7755     518.7001   1422.79236     588.7755     518.7001
   1422.77710     588.0477     518.8853   1422.77710     588.0477     518.8853
   1422.76184     587.8559     517.4645   1422.76184     587.8559     517.4645
   1422.74658     587.8149     516.4191   1422.74658     587.8149     516.4191
   1422.73132     588.0099     515.9938   1422.73132     588.0099     515.9938
   1422.71606     587.1841     515.3254   1422.71606     587.1841     515.3254
   1422.70081     587.2401     513.9501   1422.70081     587.2401     513.9501
   1422.68555     587.2615     513.0262   1422.68555     587.2615     513.0262
   1422.67029     587.6475     512.7851   1422.67029     587.6475     512.7851
   1422.65503     586.2935     512.2623   1422.65503     586.2935     512.2623
   1422.63977     587.1900     511.4220   1422.63977     587.1900     511.4220
   1422.62451     586.7994     511.2763   1422.62451     586.7994     511.2763
   1422.60925     586.6640     509.5724   1422.60925     586.6640     509.5724
   1422.59399     586.1338     509.6475   1422.59399     586.1338     509.6475
   1422.57874     585.8006     508.4586   1422.57874     585.8006     508.4586
   1422.56348     586.2313     506.5345   1422.56348     586.2313     506.5345
   1422.54822     585.0853     505.8455   1422.54822     585.0853     505.8455
   1422.53296     585.4765     505.6102   1422.53296     585.4765     505.6102
   1422.51770     585.1086     504.8243   1422.51770     585.1086     504.8243
   1422.50244     585.6465     504.2015   1422.50244     585.6465     504.2015
   1422.48718     584.8862     502.7806   1422.48718     584.8862     502.7806
   1422.47192     584.3516     501.5612   1422.47192     584.3516     501.5612
   1422.45667     585.0151     501.0910   1422.45667     585.0151     501.0910
   1422.44141     584.3616     500.3156   1422.44141     584.3616     500.3156
   1422.42615     585.1299     499.0710   1422.42615     585.1299     499.0710
   1422.41089     584.4968     497.7961   1422.41089     584.4968     497.7961
   1422.39563     583.7873     498.0843   1422.39563     583.7873     498.0843
   1422.38037     584.7610     496.7610   1422.38037     584.7610     496.7610
   1422.36511     584.7654     495.7152   1422.36511     584.7654     495.7152
   1422.34985     582.7421     495.2206   1422.34985     582.7421     495.2206
   1422.33459     583.1959     493.7476   1422.33459     583.1959     493.7476
   1422.31934     581.4970     493.2827   1422.31934     581.4970     493.2827
   1422.30408     582.8491     492.7608   1422.30408     582.8491     492.7608
   1422.28882     583.4766     491.0355   1422.28882     583.4766     491.0355
   1422.27356     582.5571     489.5117   1422.27356     582.5571     489.5117
   1422.25830     582.7842     488.5216   1422.25830     582.7842     488.5216
   1422.24304     583.3271     488.4536   1422.24304     583.3271     488.4536
   1422.22778     582.3223     486.9615   1422.22778     582.3223     486.9615
   1422.21252     582.0073     486.1886   1422.21252     582.0073     486.1886
   1422.19727     582.4218     485.8517   1422.19727     582.4218     485.8517
   1422.18201     582.1855     483.5140   1422.18201     582.1855     483.5140
   1422.16675     582.5414     482.2240   1422.16675     582.5414     482.2240
   1422.15149     582.5108     482.2983   1422.15149     582.5108     482.2983
   1422.13623     581.1329     480.8606   1422.13623     581.1329     480.8606
   1422.12097     581.7640     479.6967   1422.12097     581.7640     479.6967
   1422.10571     580.6357     478.6888   1422.10571     580.6357     478.6888
   1422.09045     580.9313     476.8241   1422.09045     580.9313     476.8241
   1422.07520     580.9144     476.4432   1422.07520     580.9144     476.4432
   1422.05994     580.3105     475.4947   1422.05994     580.3105     475.4947
   1422.04468     579.7601     474.3604   1422.04468     579.7601     474.3604
   1422.02942     581.1817     473.4076   1422.02942     581.1817     473.4076
   1422.01416     580.4723     472.6328   1422.01416     580.4723     472.6328
   1421.99890     580.7565     471.1914   1421.99890     580.7565     471.1914
   1421.98364     580.0544     470.3958   1421.98364     580.0544     470.3958
   1421.96838     580.4600     469.5445   1421.96838     580.4600     469.5445
   1421.95312     579.5964     468.5547   1421.95312     579.5964     468.5547
   1421.93787     577.9415     468.1073   1421.93787     577.9415     468.1073
   1421.92261     578.2162     466.1289   1421.92261     578.2162     466.1289
   1421.90735     579.3883     465.8416   1421.90735     579.3883     465.8416
   1421.89209     578.8613     463.4684   1421.89209     578.8613     463.4684
   1421.87683     579.3855     463.0410   1421.87683     579.3855     463.0410
   1421.86157     579.2329     461.7050   1421.86157     579.2329     461.7050
   1421.84631     578.4468     460.3500   1421.84631     578.4468     460.3500
   1421.83105     578.8013     459.5387   1421.83105     578.8013     459.5387
   1421.81580     579.6093     457.7643   1421.81580     579.6093     457.7643
   1421.80054     577.5898     457.2315   1421.80054     577.5898     457.2315
   1421.78528     578.0972     456.3557   1421.78528     578.0972     456.3557
   1421.77002     576.9310     455.0316   1421.77002     576.9310     455.0316
   1421.75476     577.5386     454.0849   1421.75476     577.5386     454.0849
   1421.73950     577.8495     452.9871   1421.73950     577.8495     452.9871
   1421.72424     578.0120     451.9235   1421.72424     578.0120     451.9235
   1421.70898     578.0499     450.1116   1421.70898     578.0499     450.1116
   1421.69373     577.4172     449.0111   1421.69373     577.4172     449.0111
   1421.67847     576.5652     448.3195   1421.67847     576.5652     448.3195
   1421.66321     577.5417     446.9126   1421.66321     577.5417     446.9126
   1421.64795     576.5507     446.5051   1421.64795     576.5507     446.5051
   1421.63269     577.5368     444.6757   1421.63269     577.5368     444.6757
   1421.61743     577.3221     443.2437   1421.61743     577.3221     443.2437
   1421.60217     576.5417     442.9644   1421.60217     576.5417     442.9644
   1421.58691     576.5112     442.1247   1421.58691     576.5112     442.1247
   1421.57166     577.0042     440.3157   1421.57166     577.0042     440.3157
   1421.55640     576.4641     439.4341   1421.55640     576.4641     439.4341
   1421.54114     575.7739     438.7662   1421.54114     575.7739     438.7662
   1421.52588     575.7020     437.1536   1421.52588     575.7020     437.1536
   1421.51062     576.8178     436.1187   1421.51062     576.8178     436.1187
   1421.49536     576.1080     434.8877   1421.49536     576.1080     434.8877
   1421.48010     576.0287     434.4976   1421.48010     576.0287     434.4976
   1421.46484     575.9169     432.4841   1421.46484     575.9169     432.4841
   1421.44958     576.0694     432.2071   1421.44958     576.0694     432.2071
   1421.43433     576.5822     431.4951   1421.43433     576.5822     431.4951
   1421.41907     576.1603     430.2295   1421.41907     576.1603     430.2295
   1421.40381     576.2732     428.8132   1421.40381     576.2732     428.8132
   1421.38855     576.1795     428.6536   1421.38855     576.1795     428.6536
   1421.37329     575.9463     427.4061   1421.37329     575.9463     427.4061
   1421.35803     576.0433     426.9267   1421.35803     576.0433     426.9267
   1421.34277     575.1494     426.3620   1421.34277     575.1494     426.3620
   1421.32751     577.9995     424.9205   1421.32751     577.9995     424.9205
   1421.31226     576.1915     423.7308   1421.31226     576.1915     423.7308
   1421.29700     575.5874     423.1482   1421.29700     575.5874     423.1482
   1421.28174     575.7874     421.5546   1421.28174     575.7874     421.5546
   1421.26648     575.2311     420.6397   1421.26648     575.2311     420.6397
   1421.25122     575.8830     419.4212   1421.25122     575.8830     419.4212
   1421.23596     575.7187     418.6931   1421.23596     575.7187     418.6931
   1421.22070     574.8158     416.5825   1421.22070     574.8158     416.5825
   1421.20544     575.3278     416.1662   1421.20544     575.3278     416.1662
   1421.19019     574.8169     415.4362   1421.19019     574.8169     415.4362
   1421.17493     576.1541     414.7128   1421.17493     576.1541     414.7128
   1421.15967     576.8994     415.2231   1421.15967     576.8994     415.2231
   1421.14441     580.7762     416.3087   1421.14441     580.7762     416.3087
   1421.12915     585.0462     418.5901   1421.12915     585.0462     418.5901
   1421.11389     594.1476     423.6107   1421.11389     594.1476     423.6107
   1421.09863     603.6423     430.3575   1421.09863     603.6423     430.3575
   1421.08337     607.2155     431.2491   1421.08337     607.2155     431.2491
   1421.06812     607.2139     430.5484   1421.06812     607.2139     430.5484
   1421.05286     605.0267     428.5758   1421.05286     605.0267     428.5758
   1421.03760     603.8483     426.2995   1421.03760     603.8483     426.2995
   1421.02234     607.1309     427.6600   1421.02234     607.1309     427.6600
   1421.00708     615.8388     432.6602   1421.00708     615.8388     432.6602
   1420.99182     636.5334     446.7086   1420.99182     636.5334     446.7086
   1420.97656     693.9579     485.4940   1420.97656     693.9579     485.4940
   1420.96130     795.0228     553.9229   1420.96130     795.0228     553.9229
   1420.94604     854.9878     595.1314   1420.94604     854.9878     595.1314
   1420.93079     873.2180     605.3146   1420.93079     873.2180     605.3146
   1420.91553     811.8579     563.6974   1420.91553     811.8579     563.6974
   1420.90027     740.1343     511.4900   1420.90027     740.1343     511.4900
   1420.88501     734.4913     506.1513   1420.88501     734.4913     506.1513
   1420.86975     800.4335     549.9889   1420.86975     800.4335     549.9889
   1420.85449     826.4501     565.3586   1420.85449     826.4501     565.3586
   1420.83923     760.3029     518.9648   1420.83923     760.3029     518.9648
   1420.82397     765.8605     522.2590   1420.82397     765.8605     522.2590
   1420.80872     860.2014     586.4103   1420.80872     860.2014     586.4103
   1420.79346     925.0074     629.6125   1420.79346     925.0074     629.6125
   1420.77820    1013.5465     688.9276   1420.77820    1013.5465     688.9276
   1420.76294    1108.2010     750.9658   1420.76294    1108.2010     750.9658
   1420.74768    1178.8635     794.9702   1420.74768    1178.8635     794.9702
   1420.73242    1243.4240     835.6184   1420.73242    1243.4240     835.6184
   1420.71716    1338.8063     898.2122   1420.71716    1338.8063     898.2122
   1420.70190    1317.8628     882.0300   1420.70190    1317.8628     882.0300
   1420.68665    1256.3901     840.8888   1420.68665    1256.3901     840.8888
   1420.67139    1178.0321     784.7519   1420.67139    1178.0321     784.7519
   1420.65613    1035.9224     689.2849   1420.65613    1035.9224     689.2849
   1420.64087     988.0665     655.5347   1420.64087     988.0665     655.5347
   1420.62561    1014.3722     672.2075   1420.62561    1014.3722     672.2075
   1420.61035     918.6041     607.9423   1420.61035     918.6041     607.9423
   1420.59509     822.6130     545.1679   1420.59509     822.6130     545.1679
   1420.57983     831.1358     551.7277   1420.57983     831.1358     551.7277
   1420.56458     902.7369     596.8856   1420.56458     902.7369     596.8856
   1420.54932     922.2870     607.9210   1420.54932     922.2870     607.9210
   1420.53406     963.6540     635.3813   1420.53406     963.6540     635.3813
   1420.51880    1024.1759     672.4636   1420.51880    1024.1759     672.4636
   1420.50354    1117.7676     732.6866   1420.50354    1117.7676     732.6866
   1420.48828    1332.1538     868.3801   1420.48828    1332.1538     868.3801
   1420.47302    1444.7694     942.3993   1420.47302    1444.7694     942.3993
   1420.45776    1130.0375     735.4656   1420.45776    1130.0375     735.4656
   1420.44250     779.2257     507.2089   1420.44250     779.2257     507.2089
   1420.42725     674.0747     438.3559   1420.42725     674.0747     438.3559
   1420.41199     625.6461     405.9387   1420.41199     625.6461     405.9387
   1420.39673     600.3101     390.2073   1420.39673     600.3101     390.2073
   1420.38147     588.5180     381.1058   1420.38147     588.5180     381.1058
   1420.36621     582.1080     375.8992   1420.36621     582.1080     375.8992
   1420.35095     577.2414     373.1858   1420.35095     577.2414     373.1858
   1420.33569     575.1365     371.4898   1420.33569     575.1365     371.4898
   1420.32043     573.1541     369.5677   1420.32043     573.1541     369.5677
   1420.30518     573.0145     368.3362   1420.30518     573.0145     368.3362
   1420.28992     571.5139     367.5449   1420.28992     571.5139     367.5449
   1420.27466     571.3680     366.9059   1420.27466     571.3680     366.9059
   1420.25940     571.9027     365.6684   1420.25940     571.9027     365.6684
   1420.24414     570.9571     364.8217   1420.24414     570.9571     364.8217
   1420.22888     570.7013     364.0485   1420.22888     570.7013     364.0485
   1420.21362     570.9485     363.0173   1420.21362     570.9485     363.0173
   1420.19836     569.7007     361.9074   1420.19836     569.7007     361.9074
   1420.18311     568.6639     361.1070   1420.18311     568.6639     361.1070
   1420.16785     568.2304     360.2676   1420.16785     568.2304     360.2676
   1420.15259     567.5510     358.9442   1420.15259     567.5510     358.9442
   1420.13733     567.6384     358.2384   1420.13733     567.6384     358.2384
   1420.12207     566.6655     357.6142   1420.12207     566.6655     357.6142
   1420.10681     566.4234     356.8909   1420.10681     566.4234     356.8909
   1420.09155     565.6122     355.7803   1420.09155     565.6122     355.7803
   1420.07629     564.8420     355.4057   1420.07629     564.8420     355.4057
   1420.06104     564.9568     354.8488   1420.06104     564.9568     354.8488
   1420.04578     565.6435     353.9173   1420.04578     565.6435     353.9173
   1420.03052     565.8119     353.5080   1420.03052     565.8119     353.5080
   1420.01526     565.1641     353.7498   1420.01526     565.1641     353.7498
   1420.00000     566.0436     354.4607   1420.00000     566.0436     354.4607
   1419.98474     566.9227     355.1715   1419.98474     566.9227     355.1715
   1419.96948     567.7313     352.8642   1419.96948     567.7313     352.8642
   1419.95422     564.3061     351.4319   1419.95422     564.3061     351.4319
   1419.93896     565.3042     351.1530   1419.93896     565.3042     351.1530
   1419.92371     564.5863     350.3926   1419.92371     564.5863     350.3926
   1419.90845     564.0516     350.4923   1419.90845     564.0516     350.4923
   1419.89319     564.9578     350.1924   1419.89319     564.9578     350.1924
   1419.87793     565.0030     349.3833   1419.87793     565.0030     349.3833
   1419.86267     565.1431     349.4445   1419.86267     565.1431     349.4445
   1419.84741     564.2915     347.9955   1419.84741     564.2915     347.9955
   1419.83215     564.7607     348.1912   1419.83215     564.7607     348.1912
   1419.81689     564.9705     348.1126   1419.81689     564.9705     348.1126
   1419.80164     565.9207     346.8235   1419.80164     565.9207     346.8235
   1419.78638     564.5294     347.1800   1419.78638     564.5294     347.1800
   1419.77112     565.6300     346.9005   1419.77112     565.6300     346.9005
   1419.75586     565.7194     346.5423   1419.75586     565.7194     346.5423
   1419.74060     565.4433     346.1126   1419.74060     565.4433     346.1126
   1419.72534     565.9177     345.6974   1419.72534     565.9177     345.6974
   1419.71008     566.6171     346.4623   1419.71008     566.6171     346.4623
   1419.69482     566.2281     346.1273   1419.69482     566.2281     346.1273
   1419.67957     566.3193     345.7256   1419.67957     566.3193     345.7256
   1419.66431     566.7780     344.9783   1419.66431     566.7780     344.9783
   1419.64905     567.1291     345.5924   1419.64905     567.1291     345.5924
   1419.63379     567.0977     345.3409   1419.63379     567.0977     345.3409
   1419.61853     567.0433     345.1035   1419.61853     567.0433     345.1035
   1419.60327     567.6519     344.6563   1419.60327     567.6519     344.6563
   1419.58801     568.2574     344.6428   1419.58801     568.2574     344.6428
   1419.57275     568.2551     344.4104   1419.57275     568.2551     344.4104
   1419.55750     568.0264     344.3226   1419.55750     568.0264     344.3226
   1419.54224     568.7780     344.3018   1419.54224     568.7780     344.3018
   1419.52698     568.5884     343.9247   1419.52698     568.5884     343.9247
   1419.51172     569.1997     343.7260   1419.51172     569.1997     343.7260
   1419.49646     569.7156     343.9021   1419.49646     569.7156     343.9021
   1419.48120     570.2175     344.2930   1419.48120     570.2175     344.2930
   1419.46594     569.6591     343.7428   1419.46594     569.6591     343.7428
   1419.45068     570.5408     344.2229   1419.45068     570.5408     344.2229
   1419.43542     570.4692     343.7757   1419.43542     570.4692     343.7757
   1419.42017     570.6641     343.6378   1419.42017     570.6641     343.6378
   1419.40491     570.9385     343.8350   1419.40491     570.9385     343.8350
   1419.38965     571.0184     343.4697   1419.38965     571.0184     343.4697
   1419.37439     571.4421     344.2133   1419.37439     571.4421     344.2133
   1419.35913     571.9101     343.7790   1419.35913     571.9101     343.7790
   1419.34387     571.9035     343.6072   1419.34387     571.9035     343.6072
   1419.32861     572.3647     344.4147   1419.32861     572.3647     344.4147
   1419.31335     572.6845     343.9045   1419.31335     572.6845     343.9045
   1419.29810     574.2547     344.3522   1419.29810     574.2547     344.3522
   1419.28284     573.0103     344.2399   1419.28284     573.0103     344.2399
   1419.26758     574.0646     344.3288   1419.26758     574.0646     344.3288
   1419.25232     573.9113     343.9370   1419.25232     573.9113     343.9370
   1419.23706     573.6275     344.2365   1419.23706     573.6275     344.2365
   1419.22180     575.3911     344.5307   1419.22180     575.3911     344.5307
   1419.20654     575.3615     344.9778   1419.20654     575.3615     344.9778
   1419.19128     575.8497     344.5964   1419.19128     575.8497     344.5964
   1419.17603     577.4754     344.9586   1419.17603     577.4754     344.9586
   1419.16077     576.3054     344.8513   1419.16077     576.3054     344.8513
   1419.14551     577.8521     345.1525   1419.14551     577.8521     345.1525
   1419.13025     576.7244     345.2234   1419.13025     576.7244     345.2234
   1419.11499     577.9451     345.5768   1419.11499     577.9451     345.5768
   1419.09973     577.3781     345.5316   1419.09973     577.3781     345.5316
   1419.08447     578.4800     345.8647   1419.08447     578.4800     345.8647
   1419.06921     579.1337     345.5394   1419.06921     579.1337     345.5394
   1419.05396     579.2388     345.9213   1419.05396     579.2388     345.9213
   1419.03870     579.5305     346.1637   1419.03870     579.5305     346.1637
   1419.02344     580.0276     346.4379   1419.02344     580.0276     346.4379
   1419.00818     579.6860     346.8377   1419.00818     579.6860     346.8377
   1418.99292     579.7171     347.7123   1418.99292     579.7171     347.7123
   1418.97766     581.1583     347.0847   1418.97766     581.1583     347.0847
   1418.96240     581.6104     347.6622   1418.96240     581.6104     347.6622
   1418.94714     583.5515     347.4955   1418.94714     583.5515     347.4955
   1418.93188     582.5707     348.5218   1418.93188     582.5707     348.5218
   1418.91663     582.9017     348.2458   1418.91663     582.9017     348.2458
   1418.90137     583.6085     348.9243   1418.90137     583.6085     348.9243
   1418.88611     584.2522     349.0121   1418.88611     584.2522     349.0121
   1418.87085     584.2422     349.3051   1418.87085     584.2422     349.3051
   1418.85559     583.9922     349.6146   1418.85559     583.9922     349.6146
   1418.84033     584.9797     350.3643   1418.84033     584.9797     350.3643
   1418.82507     585.9258     350.2050   1418.82507     585.9258     350.2050
   1418.80981     587.4464     350.6974   1418.80981     587.4464     350.6974
   1418.79456     587.1082     351.4762   1418.79456     587.1082     351.4762
   1418.77930     588.0187     351.7007   1418.77930     588.0187     351.7007
   1418.76404     587.8577     352.0750   1418.76404     587.8577     352.0750
   1418.74878     588.5750     352.5863   1418.74878     588.5750     352.5863
   1418.73352     589.6824     353.0850   1418.73352     589.6824     353.0850
   1418.71826     589.3806     353.2481   1418.71826     589.3806     353.2481
   1418.70300     590.4410     353.0081   1418.70300     590.4410     353.0081
   1418.68774     590.7827     353.9397   1418.68774     590.7827     353.9397
   1418.67249     591.4881     354.5482   1418.67249     591.4881     354.5482
   1418.65723     591.4632     354.8295   1418.65723     591.4632     354.8295
   1418.64197     593.5031     355.7668   1418.64197     593.5031     355.7668
   1418.62671     592.6672     356.0472   1418.62671     592.6672     356.0472
   1418.61145     593.3696     356.1524   1418.61145     593.3696     356.1524
   1418.59619     594.0153     357.1251   1418.59619     594.0153     357.1251
   1418.58093     595.3748     357.8852   1418.58093     595.3748     357.8852
   1418.56567     595.8312     358.4815   1418.56567     595.8312     358.4815
   1418.55042     597.1413     358.5032   1418.55042     597.1413     358.5032
   1418.53516     596.6649     359.2958   1418.53516     596.6649     359.2958
   1418.51990     596.9402     359.5195   1418.51990     596.9402     359.5195
   1418.50464     598.3150     360.2328   1418.50464     598.3150     360.2328
   1418.48938     599.5882     360.8383   1418.48938     599.5882     360.8383
   1418.47412     599.0413     361.1969   1418.47412     599.0413     361.1969
   1418.45886     600.0646     361.8080   1418.45886     600.0646     361.8080
   1418.44360     600.6855     361.8288   1418.44360     600.6855     361.8288
   1418.42834     600.6410     363.2495   1418.42834     600.6410     363.2495
   1418.41309     602.1858     363.5949   1418.41309     602.1858     363.5949
   1418.39783     602.9022     363.9682   1418.39783     602.9022     363.9682
   1418.38257     603.1110     365.2061   1418.38257     603.1110     365.2061
   1418.36731     603.9230     364.9817   1418.36731     603.9230     364.9817
   1418.35205     605.0475     365.6696   1418.35205     605.0475     365.6696
   1418.33679     605.1413     366.4733   1418.33679     605.1413     366.4733
   1418.32153     607.3008     367.1621   1418.32153     607.3008     367.1621
   1418.30627     606.8753     368.0861   1418.30627     606.8753     368.0861
   1418.29102     607.8981     368.5934   1418.29102     607.8981     368.5934
   1418.27576     609.4166     369.2776   1418.27576     609.4166     369.2776
   1418.26050     608.7431     370.2466   1418.26050     608.7431     370.2466
   1418.24524     610.1660     370.4833   1418.24524     610.1660     370.4833
   1418.22998     609.4231     371.1823   1418.22998     609.4231     371.1823
   1418.21472     611.4851     371.7999   1418.21472     611.4851     371.7999
   1418.19946     611.7149     372.9186   1418.19946     611.7149     372.9186
   1418.18420     613.0651     373.4563   1418.18420     613.0651     373.4563
   1418.16895     613.0899     374.4269   1418.16895     613.0899     374.4269
   1418.15369     613.6025     374.3184   1418.15369     613.6025     374.3184
   1418.13843     614.2628     375.2342   1418.13843     614.2628     375.2342
   1418.12317     615.0699     375.8462   1418.12317     615.0699     375.8462
   1418.10791     616.3472     377.0403   1418.10791     616.3472     377.0403
   1418.09265     617.5017     378.1263   1418.09265     617.5017     378.1263
   1418.07739     617.0757     378.5430   1418.07739     617.0757     378.5430
   1418.06213     618.2231     379.5003   1418.06213     618.2231     379.5003
   1418.04688     619.4606     379.0280   1418.04688     619.4606     379.0280
   1418.03162     619.6617     380.2898   1418.03162     619.6617     380.2898
   1418.01636     620.4818     380.6751   1418.01636     620.4818     380.6751
   1418.00110     622.7135     382.1201   1418.00110     622.7135     382.1201
   1417.98584     622.2107     382.8615   1417.98584     622.2107     382.8615
   1417.97058     623.3571     383.2310   1417.97058     623.3571     383.2310
   1417.95532     624.4202     384.6115   1417.95532     624.4202     384.6115
   1417.94006     625.4274     384.8567   1417.94006     625.4274     384.8567
   1417.92480     624.9593     385.8231   1417.92480     624.9593     385.8231
   1417.90955     626.2313     386.0287   1417.90955     626.2313     386.0287
   1417.89429     627.2837     386.9413   1417.89429     627.2837     386.9413
   1417.87903     628.4178     388.1893   1417.87903     628.4178     388.1893
   1417.86377     629.0708     388.7674   1417.86377     629.0708     388.7674
   1417.84851     629.5222     389.5557   1417.84851     629.5222     389.5557
   1417.83325     629.4946     390.7454   1417.83325     629.4946     390.7454
   1417.81799     630.7195     391.2633   1417.81799     630.7195     391.2633
   1417.80273     632.5336     391.4789   1417.80273     632.5336     391.4789
   1417.78748     632.4663     392.7771   1417.78748     632.4663     392.7771
   1417.77222     633.7689     393.9678   1417.77222     633.7689     393.9678
   1417.75696     633.8022     394.0683   1417.75696     633.8022     394.0683
   1417.74170     635.7015     394.9969   1417.74170     635.7015     394.9969
   1417.72644     637.0229     396.1843   1417.72644     637.0229     396.1843
   1417.71118     636.7847     396.3860   1417.71118     636.7847     396.3860
   1417.69592     638.3223     397.3226   1417.69592     638.3223     397.3226
   1417.68066     638.4540     398.3120   1417.68066     638.4540     398.3120
   1417.66541     639.2854     399.0112   1417.66541     639.2854     399.0112
   1417.65015     641.3505     399.6773   1417.65015     641.3505     399.6773
   1417.63489     640.4677     400.5866   1417.63489     640.4677     400.5866
   1417.61963     641.5316     402.3203   1417.61963     641.5316     402.3203
   1417.60437     642.6642     402.5321   1417.60437     642.6642     402.5321
   1417.58911     644.2307     403.3452   1417.58911     644.2307     403.3452
   1417.57385     645.0623     404.1049   1417.57385     645.0623     404.1049
   1417.55859     645.2361     405.1683   1417.55859     645.2361     405.1683
   1417.54333     646.0479     405.5213   1417.54333     646.0479     405.5213
   1417.52808     646.1250     406.2009   1417.52808     646.1250     406.2009
   1417.51282     648.2635     407.0550   1417.51282     648.2635     407.0550
   1417.49756     649.1711     408.7320   1417.49756     649.1711     408.7320
   1417.48230     649.5588     408.9911   1417.48230     649.5588     408.9911
   1417.46704     649.9577     410.0500   1417.46704     649.9577     410.0500
   1417.45178     650.7553     411.0229   1417.45178     650.7553     411.0229
   1417.43652     651.4211     411.7220   1417.43652     651.4211     411.7220
   1417.42126     652.7637     412.1252   1417.42126     652.7637     412.1252
   1417.40601     654.2700     413.0469   1417.40601     654.2700     413.0469
   1417.39075     654.3212     413.7960   1417.39075     654.3212     413.7960
   1417.37549     654.4389     414.9299   1417.37549     654.4389     414.9299
   1417.36023     655.4540     415.4014   1417.36023     655.4540     415.4014
   1417.34497     656.1204     416.7395   1417.34497     656.1204     416.7395
   1417.32971     657.0726     416.8848   1417.32971     657.0726     416.8848
   1417.31445     657.8516     417.7351   1417.31445     657.8516     417.7351
   1417.29919     658.1777     418.2296   1417.29919     658.1777     418.2296
   1417.28394     659.5941     419.0454   1417.28394     659.5941     419.0454
   1417.26868     660.0775     419.1821   1417.26868     660.0775     419.1821
   1417.25342     660.7751     421.6194   1417.25342     660.7751     421.6194
   1417.23816     661.3348     420.9730   1417.23816     661.3348     420.9730
   1417.22290     662.9393     422.3527   1417.22290     662.9393     422.3527
   1417.20764     662.5540     422.8911   1417.20764     662.5540     422.8911
   1417.19238     664.3003     423.7979   1417.19238     664.3003     423.7979
   1417.17712     663.5674     424.3817   1417.17712     663.5674     424.3817
   1417.16187     665.1465     424.8110   1417.16187     665.1465     424.8110
   1417.14661     666.0356     425.5717   1417.14661     666.0356     425.5717
   1417.13135     666.8898     426.4642   1417.13135     666.8898     426.4642
   1417.11609     666.6342     426.5947   1417.11609     666.6342     426.5947
   1417.10083     668.5051     427.7870   1417.10083     668.5051     427.7870
   1417.08557     667.8221     427.7290   1417.08557     667.8221     427.7290
   1417.07031     667.9111     428.4814   1417.07031     667.9111     428.4814
   1417.05505     670.0325     429.2196   1417.05505     670.0325     429.2196
   1417.03979     670.3149     430.0102   1417.03979     670.3149     430.0102
   1417.02454     670.1947     431.1004   1417.02454     670.1947     431.1004
   1417.00928     672.0309     431.6118   1417.00928     672.0309     431.6118
   1416.99402     671.5046     432.9342   1416.99402     671.5046     432.9342
   1416.97876     672.8518     432.3423   1416.97876     672.8518     432.3423
   1416.96350     672.2696     432.8330   1416.96350     672.2696     432.8330
   1416.94824     673.7781     433.6915   1416.94824     673.7781     433.6915
   1416.93298     673.8521     433.9587   1416.93298     673.8521     433.9587
   1416.91772     675.3221     435.2379   1416.91772     675.3221     435.2379
   1416.90247     674.3726     434.8083   1416.90247     674.3726     434.8083
   1416.88721     675.1321     435.5732   1416.88721     675.1321     435.5732
   1416.87195     676.2276     435.8674   1416.87195     676.2276     435.8674
   1416.85669     677.0241     435.9865   1416.85669     677.0241     435.9865
   1416.84143     676.9450     436.9443   1416.84143     676.9450     436.9443
   1416.82617     678.4229     436.9556   1416.82617     678.4229     436.9556
   1416.81091     678.4529     438.2214   1416.81091     678.4529     438.2214
   1416.79565     678.3607     437.9917   1416.79565     678.3607     437.9917
   1416.78040     679.5153     438.7348   1416.78040     679.5153     438.7348
   1416.76514     679.1737     439.2430   1416.76514     679.1737     439.2430
   1416.74988     680.5886     439.3709   1416.74988     680.5886     439.3709
   1416.73462     680.3160     438.7336   1416.73462     680.3160     438.7336
   1416.71936     679.8251     440.0276   1416.71936     679.8251     440.0276
   1416.70410     680.9078     440.1187   1416.70410     680.9078     440.1187
   1416.68884     681.4492     440.2947   1416.68884     681.4492     440.2947
   1416.67358     682.6891     440.5301   1416.67358     682.6891     440.5301
   1416.65833     680.8173     440.7304   1416.65833     680.8173     440.7304
   1416.64307     681.7777     440.8563   1416.64307     681.7777     440.8563
   1416.62781     681.3948     440.8753   1416.62781     681.3948     440.8753
   1416.61255     683.3596     441.4200   1416.61255     683.3596     441.4200
   1416.59729     682.8645     441.0656   1416.59729     682.8645     441.0656
   1416.58203     682.0462     441.5036   1416.58203     682.0462     441.5036
   1416.56677     682.7197     441.8397   1416.56677     682.7197     441.8397
   1416.55151     682.4625     441.2720   1416.55151     682.4625     441.2720
   1416.53625     683.2283     441.6584   1416.53625     683.2283     441.6584
   1416.52100     683.4266     441.8223   1416.52100     683.4266     441.8223
   1416.50574     684.3386     441.8641   1416.50574     684.3386     441.8641
   1416.49048     683.6887     441.5887   1416.49048     683.6887     441.5887
   1416.47522     683.8619     442.6989   1416.47522     683.8619     442.6989
   1416.45996     683.8127     441.8750   1416.45996     683.8127     441.8750
   1416.44470     684.5736     441.5690   1416.44470     684.5736     441.5690
   1416.42944     684.5552     441.6215   1416.42944     684.5552     441.6215
   1416.41418     682.8843     441.1356   1416.41418     682.8843     441.1356
   1416.39893     684.1095     441.6389   1416.39893     684.1095     441.6389
   1416.38367     684.4492     441.7560   1416.38367     684.4492     441.7560
   1416.36841     684.6650     441.8478   1416.36841     684.6650     441.8478
   1416.35315     684.3828     440.9518   1416.35315     684.3828     440.9518
   1416.33789     684.8957     441.1221   1416.33789     684.8957     441.1221
   1416.32263     684.2689     441.2956   1416.32263     684.2689     441.2956
   1416.30737     684.1497     441.2618   1416.30737     684.1497     441.2618
   1416.29211     685.8739     440.4418   1416.29211     685.8739     440.4418
   1416.27686     684.9634     440.6393   1416.27686     684.9634     440.6393
   1416.26160     684.6227     440.6104   1416.26160     684.6227     440.6104
   1416.24634     683.9289     440.2007   1416.24634     683.9289     440.2007
   1416.23108     684.1392     439.9544   1416.23108     684.1392     439.9544
   1416.21582     683.8441     439.4380   1416.21582     683.8441     439.4380
   1416.20056     683.2960     439.0077   1416.20056     683.2960     439.0077
   1416.18530     683.1543     439.5180   1416.18530     683.1543     439.5180
   1416.17004     684.0942     438.8203   1416.17004     684.0942     438.8203
   1416.15479     682.9705     438.7683   1416.15479     682.9705     438.7683
   1416.13953     682.0002     438.3957   1416.13953     682.0002     438.3957
   1416.12427     684.1868     437.4466   1416.12427     684.1868     437.4466
   1416.10901     683.8324     437.6746   1416.10901     683.8324     437.6746
   1416.09375     681.7642     436.9439   1416.09375     681.7642     436.9439
   1416.07849     681.9837     437.0254   1416.07849     681.9837     437.0254
   1416.06323     681.3843     436.8319   1416.06323     681.3843     436.8319
   1416.04797     682.3374     435.5753   1416.04797     682.3374     435.5753
   1416.03271     682.3555     435.8853   1416.03271     682.3555     435.8853
   1416.01746     680.0350     435.9716   1416.01746     680.0350     435.9716
   1416.00220     681.1688     436.0649   1416.00220     681.1688     436.0649
   1415.98694     680.2714     434.4005   1415.98694     680.2714     434.4005
   1415.97168     680.0254     434.1726   1415.97168     680.0254     434.1726
   1415.95642     680.6176     433.4030   1415.95642     680.6176     433.4030
   1415.94116     679.7161     433.1768   1415.94116     679.7161     433.1768
   1415.92590     679.4413     433.1932   1415.92590     679.4413     433.1932
   1415.91064     679.5204     432.8309   1415.91064     679.5204     432.8309
   1415.89539     678.6042     432.3742   1415.89539     678.6042     432.3742
   1415.88013     677.2548     431.3299   1415.88013     677.2548     431.3299
   1415.86487     678.3481     431.6549   1415.86487     678.3481     431.6549
   1415.84961     677.3141     431.3004   1415.84961     677.3141     431.3004
   1415.83435     676.8825     430.4195   1415.83435     676.8825     430.4195
   1415.81909     675.3514     430.5362   1415.81909     675.3514     430.5362
   1415.80383     675.2695     429.6456   1415.80383     675.2695     429.6456
   1415.78857     675.7942     429.2195   1415.78857     675.7942     429.2195
   1415.77332     674.1984     428.9338   1415.77332     674.1984     428.9338
   1415.75806     675.2607     428.6908   1415.75806     675.2607     428.6908
   1415.74280     673.5385     428.2472   1415.74280     673.5385     428.2472
   1415.72754     673.5465     427.5046   1415.72754     673.5465     427.5046
   1415.71228     673.4232     427.3763   1415.71228     673.4232     427.3763
   1415.69702     671.6864     426.6347   1415.69702     671.6864     426.6347
   1415.68176     671.3187     425.8578   1415.68176     671.3187     425.8578
   1415.66650     670.9426     425.4945   1415.66650     670.9426     425.4945
   1415.65125     670.8060     424.7863   1415.65125     670.8060     424.7863
   1415.63599     669.2780     424.7429   1415.63599     669.2780     424.7429
   1415.62073     669.1336     423.4790   1415.62073     669.1336     423.4790
   1415.60547     667.4494     424.4962   1415.60547     667.4494     424.4962
   1415.59021     668.2217     422.8074   1415.59021     668.2217     422.8074
   1415.57495     667.6129     422.3156   1415.57495     667.6129     422.3156
   1415.55969     666.3546     421.5033   1415.55969     666.3546     421.5033
   1415.54443     665.7813     420.7072   1415.54443     665.7813     420.7072
   1415.52917     665.0029     421.4585   1415.52917     665.0029     421.4585
   1415.51392     664.2595     420.3993   1415.51392     664.2595     420.3993
   1415.49866     664.8007     419.7357   1415.49866     664.8007     419.7357
   1415.48340     664.3550     419.1088   1415.48340     664.3550     419.1088
   1415.46814     662.3279     418.1711   1415.46814     662.3279     418.1711
   1415.45288     661.0169     418.0045   1415.45288     661.0169     418.0045
   1415.43762     660.4913     418.0305   1415.43762     660.4913     418.0305
   1415.42236     659.3647     416.3983   1415.42236     659.3647     416.3983
   1415.40710     658.5620     415.8506   1415.40710     658.5620     415.8506
   1415.39185     658.8091     416.2490   1415.39185     658.8091     416.2490
   1415.37659     657.1397     414.7655   1415.37659     657.1397     414.7655
   1415.36133     657.2530     414.2595   1415.36133     657.2530     414.2595
   1415.34607     655.4639     413.3430   1415.34607     655.4639     413.3430
   1415.33081     654.9053     412.7332   1415.33081     654.9053     412.7332
   1415.31555     653.0361     411.9265   1415.31555     653.0361     411.9265
   1415.30029     652.1640     412.2761   1415.30029     652.1640     412.2761
   1415.28503     651.4941     410.6501   1415.28503     651.4941     410.6501
   1415.26978     650.4247     410.7973   1415.26978     650.4247     410.7973
   1415.25452     648.9520     409.7073   1415.25452     648.9520     409.7073
   1415.23926     648.1859     409.4872   1415.23926     648.1859     409.4872
   1415.22400     647.2592     408.5609   1415.22400     647.2592     408.5609
   1415.20874     645.7009     407.5336   1415.20874     645.7009     407.5336
   1415.19348     645.7501     406.5604   1415.19348     645.7501     406.5604
   1415.17822     644.2861     406.0718   1415.17822     644.2861     406.0718
   1415.16296     642.7297     405.4076   1415.16296     642.7297     405.4076
   1415.14771     641.3479     404.8214   1415.14771     641.3479     404.8214
   1415.13245     640.7103     404.0627   1415.13245     640.7103     404.0627
   1415.11719     639.2684     403.2542   1415.11719     639.2684     403.2542
   1415.10193     637.5365     402.4265   1415.10193     637.5365     402.4265
   1415.08667     636.7999     402.1275   1415.08667     636.7999     402.1275
   1415.07141     636.0586     401.0982   1415.07141     636.0586     401.0982
   1415.05615     634.5240     400.0231   1415.05615     634.5240     400.0231
   1415.04089     634.2793     399.4852   1415.04089     634.2793     399.4852
   1415.02563     631.8345     398.9238   1415.02563     631.8345     398.9238
   1415.01038     631.3503     397.9150   1415.01038     631.3503     397.9150
   1414.99512     629.3002     397.0724   1414.99512     629.3002     397.0724
   1414.97986     628.9909     396.6210   1414.97986     628.9909     396.6210
   1414.96460     626.3658     395.6244   1414.96460     626.3658     395.6244
   1414.94934     625.7790     395.4657   1414.94934     625.7790     395.4657
   1414.93408     624.3625     393.6150   1414.93408     624.3625     393.6150
   1414.91882     621.7573     392.9071   1414.91882     621.7573     392.9071
   1414.90356     620.2155     392.6930   1414.90356     620.2155     392.6930
   1414.88831     619.9284     391.3738   1414.88831     619.9284     391.3738
   1414.87305     618.1656     390.2073   1414.87305     618.1656     390.2073
   1414.85779     616.5103     390.3755   1414.85779     616.5103     390.3755
   1414.84253     614.5208     388.8827   1414.84253     614.5208     388.8827
   1414.82727     613.7107     388.1514   1414.82727     613.7107     388.1514
   1414.81201     612.4813     387.0005   1414.81201     612.4813     387.0005
   1414.79675     611.1186     385.8924   1414.79675     611.1186     385.8924
   1414.78149     610.0070     385.0222   1414.78149     610.0070     385.0222
   1414.76624     606.5480     383.9484   1414.76624     606.5480     383.9484
   1414.75098     605.0248     383.3838   1414.75098     605.0248     383.3838
   1414.73572     603.0630     382.3718   1414.73572     603.0630     382.3718
   1414.72046     602.2932     380.6334   1414.72046     602.2932     380.6334
   1414.70520     599.3051     380.3092   1414.70520     599.3051     380.3092
   1414.68994     597.4945     379.1773   1414.68994     597.4945     379.1773
   1414.67468     596.5420     377.8566   1414.67468     596.5420     377.8566
   1414.65942     594.7952     377.4386   1414.65942     594.7952     377.4386
   1414.64417     592.9539     376.8874   1414.64417     592.9539     376.8874
   1414.62891     591.2408     375.1001   1414.62891     591.2408     375.1001
   1414.61365     589.4241     374.3809   1414.61365     589.4241     374.3809
   1414.59839     586.9722     372.9692   1414.59839     586.9722     372.9692
   1414.58313     585.5804     372.5679   1414.58313     585.5804     372.5679
   1414.56787     582.9487     371.2754   1414.56787     582.9487     371.2754
   1414.55261     581.5146     369.9217   1414.55261     581.5146     369.9217
   1414.53735     580.3277     368.8271   1414.53735     580.3277     368.8271
   1414.52209     577.7938     367.7626   1414.52209     577.7938     367.7626
   1414.50684     575.1873     367.0895   1414.50684     575.1873     367.0895
   1414.49158     574.1951     365.3653   1414.49158     574.1951     365.3653
   1414.47632     572.1581     364.7332   1414.47632     572.1581     364.7332
   1414.46106     569.5807     363.5280   1414.46106     569.5807     363.5280
   1414.44580     567.8273     362.4437   1414.44580     567.8273     362.4437
   1414.43054     565.5189     360.7498   1414.43054     565.5189     360.7498
   1414.41528     563.6783     359.9630   1414.41528     563.6783     359.9630
   1414.40002     561.5302     359.1020   1414.40002     561.5302     359.1020
   1414.38477     559.1844     357.5623   1414.38477     559.1844     357.5623
   1414.36951     557.2670     356.4996   1414.36951     557.2670     356.4996
   1414.35425     555.0012     354.5519   1414.35425     555.0012     354.5519
   1414.33899     552.7969     354.1352   1414.33899     552.7969     354.1352
   1414.32373     550.5660     352.8148   1414.32373     550.5660     352.8148
   1414.30847     547.7197     351.2822   1414.30847     547.7197     351.2822
   1414.29321     546.1623     350.6421   1414.29321     546.1623     350.6421
   1414.27795     543.9042     349.1182   1414.27795     543.9042     349.1182
   1414.26270     540.7941     347.9958   1414.26270     540.7941     347.9958
   1414.24744     539.6210     346.7075   1414.24744     539.6210     346.7075
   1414.23218     536.5784     345.7155   1414.23218     536.5784     345.7155
   1414.21692     534.5439     344.1761   1414.21692     534.5439     344.1761
   1414.20166     532.8456     342.6641   1414.20166     532.8456     342.6641
   1414.18640     529.6370     341.0772   1414.18640     529.6370     341.0772
   1414.17114     526.8882     340.3282   1414.17114     526.8882     340.3282
   1414.15588     525.0967     339.1550   1414.15588     525.0967     339.1550
   1414.14062     523.3008     337.3999   1414.14062     523.3008     337.3999
   1414.12537     520.5093     336.4814   1414.12537     520.5093     336.4814
   1414.11011     518.8831     335.6221   1414.11011     518.8831     335.6221
   1414.09485     515.7448     334.2794   1414.09485     515.7448     334.2794
   1414.07959     513.7181     332.6340   1414.07959     513.7181     332.6340
   1414.06433     510.8781     331.1567   1414.06433     510.8781     331.1567
   1414.04907     508.7172     329.8450   1414.04907     508.7172     329.8450
   1414.03381     505.9409     328.7504   1414.03381     505.9409     328.7504
   1414.01855     503.4713     327.5785   1414.01855     503.4713     327.5785
   1414.00330     527.2947     334.7426   1414.00330     527.2947     334.7426
   1413.98804     500.3038     325.6100   1413.98804     500.3038     325.6100
   1413.97278     495.8434     323.6789   1413.97278     495.8434     323.6789
   1413.95752     494.0929     321.7383   1413.95752     494.0929     321.7383
   1413.94226     490.2877     320.3958   1413.94226     490.2877     320.3958
   1413.92700     487.8810     319.0611   1413.92700     487.8810     319.0611
   1413.91174     485.4644     317.3381   1413.91174     485.4644     317.3381
   1413.89648     482.7782     316.1325   1413.89648     482.7782     316.1325
   1413.88123     480.4074     314.5060   1413.88123     480.4074     314.5060
   1413.86597     478.3292     313.5082   1413.86597     478.3292     313.5082
   1413.85071     475.2185     311.9185   1413.85071     475.2185     311.9185
   1413.83545     471.9978     310.9320   1413.83545     471.9978     310.9320
   1413.82019     470.1412     309.4960   1413.82019     470.1412     309.4960
   1413.80493     468.2730     308.0075   1413.80493     468.2730     308.0075
   1413.78967     465.6425     306.6479   1413.78967     465.6425     306.6479
   1413.77441     462.4452     305.4358   1413.77441     462.4452     305.4358
   1413.75916     460.0881     303.3663   1413.75916     460.0881     303.3663
   1413.74390     457.7863     302.1306   1413.74390     457.7863     302.1306
   1413.72864     454.7828     301.2912   1413.72864     454.7828     301.2912
   1413.71338     451.8076     299.8525   1413.71338     451.8076     299.8525
   1413.69812     449.0581     297.8456   1413.69812     449.0581     297.8456
   1413.68286     446.7744     296.7859   1413.68286     446.7744     296.7859
   1413.66760     443.9535     295.3312   1413.66760     443.9535     295.3312
   1413.65234     441.7811     293.9561   1413.65234     441.7811     293.9561
   1413.63708     439.3961     292.7508   1413.63708     439.3961     292.7508
   1413.62183     436.1180     291.0510   1413.62183     436.1180     291.0510
   1413.60657     434.1293     289.9487   1413.60657     434.1293     289.9487
   1413.59131     431.3962     288.5553   1413.59131     431.3962     288.5553
   1413.57605     428.7121     287.1601   1413.57605     428.7121     287.1601
   1413.56079     426.1548     285.3688   1413.56079     426.1548     285.3688
   1413.54553     423.6028     284.3421   1413.54553     423.6028     284.3421
   1413.53027     421.2622     282.9290   1413.53027     421.2622     282.9290
   1413.51501     418.7756     281.4838   1413.51501     418.7756     281.4838
   1413.49976     415.8403     280.2236   1413.49976     415.8403     280.2236
   1413.48450     413.4120     278.8347   1413.48450     413.4120     278.8347
   1413.46924     410.9626     277.8298   1413.46924     410.9626     277.8298
   1413.45398     408.3801     275.9411   1413.45398     408.3801     275.9411
   1413.43872     405.8462     274.9675   1413.43872     405.8462     274.9675
   1413.42346     403.6584     273.3476   1413.42346     403.6584     273.3476
   1413.40820     401.7716     272.4842   1413.40820     401.7716     272.4842
   1413.39294     398.2984     270.4954   1413.39294     398.2984     270.4954
   1413.37769     396.2801     269.7716   1413.37769     396.2801     269.7716
   1413.36243     393.4955     268.3642   1413.36243     393.4955     268.3642
   1413.34717     390.9885     267.4194   1413.34717     390.9885     267.4194
   1413.33191     388.9180     265.7676   1413.33191     388.9180     265.7676
   1413.31665     386.8387     264.6442   1413.31665     386.8387     264.6442
   1413.30139     384.4820     262.7601   1413.30139     384.4820     262.7601
   1413.28613     382.3360     261.9348   1413.28613     382.3360     261.9348
   1413.27087     379.7126     261.1952   1413.27087     379.7126     261.1952
   1413.25562     377.5057     259.7313   1413.25562     377.5057     259.7313
   1413.24036     375.5919     258.4515   1413.24036     375.5919     258.4515
   1413.22510     373.2178     257.1195   1413.22510     373.2178     257.1195
   1413.20984     370.8734     255.7715   1413.20984     370.8734     255.7715
   1413.19458     369.0118     255.4111   1413.19458     369.0118     255.4111
   1413.17932     366.9335     253.5151   1413.17932     366.9335     253.5151
   1413.16406     364.3258     252.6945   1413.16406     364.3258     252.6945
   1413.14880     362.6401     251.5896   1413.14880     362.6401     251.5896
   1413.13354     360.4024     250.3014   1413.13354     360.4024     250.3014
   1413.11829     357.6264     249.4456   1413.11829     357.6264     249.4456
   1413.10303     356.1040     247.8138   1413.10303     356.1040     247.8138
   1413.08777     354.3789     247.1020   1413.08777     354.3789     247.1020
   1413.07251     352.1773     245.9062   1413.07251     352.1773     245.9062
   1413.05725     350.3254     244.8260   1413.05725     350.3254     244.8260
   1413.04199     348.6060     243.9176   1413.04199     348.6060     243.9176
   1413.02673     346.6007     242.8429   1413.02673     346.6007     242.8429
   1413.01147     344.5660     241.8291   1413.01147     344.5660     241.8291
   1412.99622     342.1677     241.0601   1412.99622     342.1677     241.0601
   1412.98096     340.5179     240.2659   1412.98096     340.5179     240.2659
   1412.96570     339.2803     239.0778   1412.96570     339.2803     239.0778
   1412.95044     337.7407     238.3062   1412.95044     337.7407     238.3062
   1412.93518     335.7507     237.6410   1412.93518     335.7507     237.6410
   1412.91992     334.2194     236.7504   1412.91992     334.2194     236.7504
   1412.90466     333.0733     236.0378   1412.90466     333.0733     236.0378
   1412.88940     330.8913     234.7030   1412.88940     330.8913     234.7030
   1412.87415     330.0982     234.4932   1412.87415     330.0982     234.4932
   1412.85889     328.1503     233.2960   1412.85889     328.1503     233.2960
   1412.84363     326.6106     232.4589   1412.84363     326.6106     232.4589
   1412.82837     325.1930     232.1376   1412.82837     325.1930     232.1376
   1412.81311     323.5811     231.1174   1412.81311     323.5811     231.1174
   1412.79785     322.3929     230.4223   1412.79785     322.3929     230.4223
   1412.78259     321.3596     229.7528   1412.78259     321.3596     229.7528
   1412.76733     319.6668     229.2459   1412.76733     319.6668     229.2459
   1412.75208     318.7383     228.8379   1412.75208     318.7383     228.8379
   1412.73682     317.7069     228.1222   1412.73682     317.7069     228.1222
   1412.72156     316.1033     227.5719   1412.72156     316.1033     227.5719
   1412.70630     314.9673     226.8483   1412.70630     314.9673     226.8483
   1412.69104     314.5057     226.5765   1412.69104     314.5057     226.5765
   1412.67578     313.3680     226.2032   1412.67578     313.3680     226.2032
   1412.66052     312.2145     225.5439   1412.66052     312.2145     225.5439
   1412.64526     311.5453     225.2727   1412.64526     311.5453     225.2727
   1412.63000     309.7534     224.9515   1412.63000     309.7534     224.9515
   1412.61475     309.7708     224.5527   1412.61475     309.7708     224.5527
   1412.59949     308.6339     224.3953   1412.59949     308.6339     224.3953
   1412.58423     307.9182     223.7191   1412.58423     307.9182     223.7191
   1412.56897     307.2903     223.8722   1412.56897     307.2903     223.8722
   1412.55371     306.3220     223.4039   1412.55371     306.3220     223.4039
   1412.53845     305.7647     223.5769   1412.53845     305.7647     223.5769
   1412.52319     305.9608     223.1012   1412.52319     305.9608     223.1012
   1412.50793     305.3191     223.1847   1412.50793     305.3191     223.1847
   1412.49268     304.6237     222.7660   1412.49268     304.6237     222.7660
   1412.47742     303.6300     222.7591   1412.47742     303.6300     222.7591
   1412.46216     303.9103     222.7004   1412.46216     303.9103     222.7004
   1412.44690     303.3430     222.9402   1412.44690     303.3430     222.9402
   1412.43164     302.7815     222.8619   1412.43164     302.7815     222.8619
   1412.41638     302.7238     222.9707   1412.41638     302.7238     222.9707
   1412.40112     302.1827     223.0764   1412.40112     302.1827     223.0764
   1412.38586     302.2797     223.1900   1412.38586     302.2797     223.1900
   1412.37061     302.4276     223.3687   1412.37061     302.4276     223.3687
   1412.35535     302.0759     223.2990   1412.35535     302.0759     223.2990
   1412.34009     302.4549     224.0177   1412.34009     302.4549     224.0177
   1412.32483     302.2602     223.6917   1412.32483     302.2602     223.6917
   1412.30957     302.4051     224.1914   1412.30957     302.4051     224.1914
   1412.29431     302.3871     224.6045   1412.29431     302.3871     224.6045
   1412.27905     302.6286     224.9684   1412.27905     302.6286     224.9684
   1412.26379     302.9877     225.0449   1412.26379     302.9877     225.0449
   1412.24854     303.0667     225.6152   1412.24854     303.0667     225.6152
   1412.23328     303.2198     226.1069   1412.23328     303.2198     226.1069
   1412.21802     303.8554     226.7701   1412.21802     303.8554     226.7701
   1412.20276     304.0262     227.2079   1412.20276     304.0262     227.2079