#     FILENAME=!Skynet_57533_lach-hhg-198-2_20805_21205.cyb.fits
#     BASENAME=Skynet_57533_lach-hhg-198-2_20805_21205
#     SRC_NAME=lach-hhg-198-2
#     OBSERVER=ccmadison16_9505
#     DATE_OBS=2016-05-25T18:27:45.870
#        OBSID=20805
#      SCANNUM=21205
#          MJD=57533.7703
#          UTC=66555
#     SCANTYPE=track
#     DATAMODE=HIRES
#     TUNEFREQ=1420.0000
# Actual_FREQ1=1420.0000
# Actual_FREQ2=1420.0000
#    LO1Tuning=6870.000
#     RFFILTER=1355_1435
#        OBSBW=-15.6250
#        NCHAN=1024 
#        FOCUS=37.0709
#           RA=06:23:39.17
#          DEC=13:15:21.35
#      RA(hrs)=6.394200
#     DEC(deg)=13.255900
#    AZIM(deg)=147.115
#    ELEV(deg)=61.268
#     IFattens=10.00, 9.00
#      WARNING=None
#    TCAL_XL1=7.9635
#    TCAL_YR1=9.1340
#    TCAL_XL2=7.9635
#    TCAL_YR2=9.1340
#     TRX_XL1=11.7060
#     TRX_YR1=11.7060
#     TRX_XL2=11.7060
#     TRX_YR2=11.7060
#        TAVE=1.0000
#Freq1(MHz)          XL1          YR1  Freq2(MHz)          XL2          YR2 

   1427.81250     362.5891     256.3173   1427.81250     362.5891     256.3173
   1427.79724     363.2939     256.5748   1427.79724     363.2939     256.5748
   1427.78198     363.9498     257.7614   1427.78198     363.9498     257.7614
   1427.76672     364.5878     259.1697   1427.76672     364.5878     259.1697
   1427.75146     365.3029     260.2004   1427.75146     365.3029     260.2004
   1427.73621     366.2383     260.7948   1427.73621     366.2383     260.7948
   1427.72095     367.3249     262.3033   1427.72095     367.3249     262.3033
   1427.70569     368.0661     263.6204   1427.70569     368.0661     263.6204
   1427.69043     368.5957     264.7029   1427.69043     368.5957     264.7029
   1427.67517     370.0411     265.1932   1427.67517     370.0411     265.1932
   1427.65991     371.5113     266.5172   1427.65991     371.5113     266.5172
   1427.64465     372.1091     268.2675   1427.64465     372.1091     268.2675
   1427.62939     374.0630     269.5609   1427.62939     374.0630     269.5609
   1427.61414     374.5570     270.7592   1427.61414     374.5570     270.7592
   1427.59888     376.0400     272.1535   1427.59888     376.0400     272.1535
   1427.58362     377.6204     273.6783   1427.58362     377.6204     273.6783
   1427.56836     379.0234     275.1527   1427.56836     379.0234     275.1527
   1427.55310     380.5335     275.9571   1427.55310     380.5335     275.9571
   1427.53784     381.6774     277.6387   1427.53784     381.6774     277.6387
   1427.52258     383.5920     279.5270   1427.52258     383.5920     279.5270
   1427.50732     384.6190     280.9105   1427.50732     384.6190     280.9105
   1427.49207     387.2328     282.4456   1427.49207     387.2328     282.4456
   1427.47681     388.5788     284.1127   1427.47681     388.5788     284.1127
   1427.46155     389.8414     285.9438   1427.46155     389.8414     285.9438
   1427.44629     392.3934     287.6050   1427.44629     392.3934     287.6050
   1427.43103     394.1996     289.2152   1427.43103     394.1996     289.2152
   1427.41577     395.8929     290.8645   1427.41577     395.8929     290.8645
   1427.40051     397.5085     292.6830   1427.40051     397.5085     292.6830
   1427.38525     399.5751     294.0779   1427.38525     399.5751     294.0779
   1427.37000     401.6984     296.4025   1427.37000     401.6984     296.4025
   1427.35474     403.9279     298.0085   1427.35474     403.9279     298.0085
   1427.33948     406.3718     299.6895   1427.33948     406.3718     299.6895
   1427.32422     408.4390     301.6357   1427.32422     408.4390     301.6357
   1427.30896     410.6862     303.3454   1427.30896     410.6862     303.3454
   1427.29370     412.0759     305.3477   1427.29370     412.0759     305.3477
   1427.27844     416.0780     307.5913   1427.27844     416.0780     307.5913
   1427.26318     417.1761     309.2807   1427.26318     417.1761     309.2807
   1427.24792     420.1365     310.9440   1427.24792     420.1365     310.9440
   1427.23267     422.2234     312.9872   1427.23267     422.2234     312.9872
   1427.21741     425.6551     314.5168   1427.21741     425.6551     314.5168
   1427.20215     427.1633     316.9948   1427.20215     427.1633     316.9948
   1427.18689     429.4319     319.4318   1427.18689     429.4319     319.4318
   1427.17163     432.1640     321.4351   1427.17163     432.1640     321.4351
   1427.15637     435.3945     323.6138   1427.15637     435.3945     323.6138
   1427.14111     437.5163     325.4531   1427.14111     437.5163     325.4531
   1427.12585     440.4198     327.4796   1427.12585     440.4198     327.4796
   1427.11060     443.0168     329.4283   1427.11060     443.0168     329.4283
   1427.09534     445.6315     331.4852   1427.09534     445.6315     331.4852
   1427.08008     448.0984     333.4647   1427.08008     448.0984     333.4647
   1427.06482     451.5864     335.4776   1427.06482     451.5864     335.4776
   1427.04956     455.0442     338.0389   1427.04956     455.0442     338.0389
   1427.03430     456.7090     339.5999   1427.03430     456.7090     339.5999
   1427.01904     459.7677     341.8871   1427.01904     459.7677     341.8871
   1427.00378     462.6811     344.5472   1427.00378     462.6811     344.5472
   1426.98853     465.4453     345.9641   1426.98853     465.4453     345.9641
   1426.97327     469.0959     348.1899   1426.97327     469.0959     348.1899
   1426.95801     472.3459     350.4877   1426.95801     472.3459     350.4877
   1426.94275     475.0328     351.6635   1426.94275     475.0328     351.6635
   1426.92749     477.7552     354.9991   1426.92749     477.7552     354.9991
   1426.91223     481.5057     356.9326   1426.91223     481.5057     356.9326
   1426.89697     483.1603     358.8816   1426.89697     483.1603     358.8816
   1426.88171     486.9649     361.6986   1426.88171     486.9649     361.6986
   1426.86646     490.3146     363.6170   1426.86646     490.3146     363.6170
   1426.85120     492.8779     365.3748   1426.85120     492.8779     365.3748
   1426.83594     497.1547     367.4678   1426.83594     497.1547     367.4678
   1426.82068     499.4064     369.9053   1426.82068     499.4064     369.9053
   1426.80542     503.4075     371.7188   1426.80542     503.4075     371.7188
   1426.79016     505.8530     373.9698   1426.79016     505.8530     373.9698
   1426.77490     508.6735     376.0130   1426.77490     508.6735     376.0130
   1426.75964     512.5397     378.1559   1426.75964     512.5397     378.1559
   1426.74438     516.0063     380.4889   1426.74438     516.0063     380.4889
   1426.72913     518.9131     382.8752   1426.72913     518.9131     382.8752
   1426.71387     522.1032     384.6638   1426.71387     522.1032     384.6638
   1426.69861     525.9001     386.9799   1426.69861     525.9001     386.9799
   1426.68335     529.7248     389.2461   1426.68335     529.7248     389.2461
   1426.66809     531.7412     390.8708   1426.66809     531.7412     390.8708
   1426.65283     535.7095     392.9839   1426.65283     535.7095     392.9839
   1426.63757     537.6432     395.4852   1426.63757     537.6432     395.4852
   1426.62231     541.7566     402.3933   1426.62231     541.7566     402.3933
   1426.60706     545.2841     401.1738   1426.60706     545.2841     401.1738
   1426.59180     548.1886     401.0970   1426.59180     548.1886     401.0970
   1426.57654     551.6595     402.7045   1426.57654     551.6595     402.7045
   1426.56128     554.8090     405.6727   1426.56128     554.8090     405.6727
   1426.54602     557.8776     407.0930   1426.54602     557.8776     407.0930
   1426.53076     561.1140     409.2319   1426.53076     561.1140     409.2319
   1426.51550     564.3109     411.0170   1426.51550     564.3109     411.0170
   1426.50024     566.8260     412.7889   1426.50024     566.8260     412.7889
   1426.48499     571.0045     414.7408   1426.48499     571.0045     414.7408
   1426.46973     573.8484     417.0620   1426.46973     573.8484     417.0620
   1426.45447     577.1579     419.1471   1426.45447     577.1579     419.1471
   1426.43921     580.4009     420.7645   1426.43921     580.4009     420.7645
   1426.42395     584.3088     421.9016   1426.42395     584.3088     421.9016
   1426.40869     587.2119     423.7246   1426.40869     587.2119     423.7246
   1426.39343     589.8141     425.9650   1426.39343     589.8141     425.9650
   1426.37817     593.2987     428.1587   1426.37817     593.2987     428.1587
   1426.36292     596.5200     429.6467   1426.36292     596.5200     429.6467
   1426.34766     599.2806     431.1778   1426.34766     599.2806     431.1778
   1426.33240     602.8776     433.0264   1426.33240     602.8776     433.0264
   1426.31714     605.3696     434.9039   1426.31714     605.3696     434.9039
   1426.30188     609.6197     436.1950   1426.30188     609.6197     436.1950
   1426.28662     611.8427     437.6853   1426.28662     611.8427     437.6853
   1426.27136     615.9810     439.6474   1426.27136     615.9810     439.6474
   1426.25610     617.8851     441.3253   1426.25610     617.8851     441.3253
   1426.24084     621.8451     443.2961   1426.24084     621.8451     443.2961
   1426.22559     624.2349     444.8689   1426.22559     624.2349     444.8689
   1426.21033     626.6609     446.0615   1426.21033     626.6609     446.0615
   1426.19507     630.1261     447.4720   1426.19507     630.1261     447.4720
   1426.17981     632.2744     449.5260   1426.17981     632.2744     449.5260
   1426.16455     635.2534     450.9101   1426.16455     635.2534     450.9101
   1426.14929     637.6699     452.6500   1426.14929     637.6699     452.6500
   1426.13403     642.1115     454.9205   1426.13403     642.1115     454.9205
   1426.11877     644.7581     456.6344   1426.11877     644.7581     456.6344
   1426.10352     646.1005     457.4219   1426.10352     646.1005     457.4219
   1426.08826     649.4308     457.6632   1426.08826     649.4308     457.6632
   1426.07300     653.3783     459.3414   1426.07300     653.3783     459.3414
   1426.05774     655.6588     461.5512   1426.05774     655.6588     461.5512
   1426.04248     657.9972     463.1486   1426.04248     657.9972     463.1486
   1426.02722     660.0189     464.8300   1426.02722     660.0189     464.8300
   1426.01196     663.3293     465.8474   1426.01196     663.3293     465.8474
   1425.99670     666.0253     466.3176   1425.99670     666.0253     466.3176
   1425.98145     669.0278     468.4959   1425.98145     669.0278     468.4959
   1425.96619     670.9434     469.0996   1425.96619     670.9434     469.0996
   1425.95093     673.4863     470.6104   1425.95093     673.4863     470.6104
   1425.93567     675.1559     471.8913   1425.93567     675.1559     471.8913
   1425.92041     679.7680     472.5718   1425.92041     679.7680     472.5718
   1425.90515     681.4470     473.5165   1425.90515     681.4470     473.5165
   1425.88989     684.0137     475.0613   1425.88989     684.0137     475.0613
   1425.87463     684.6657     476.4548   1425.87463     684.6657     476.4548
   1425.85938     688.5892     476.8800   1425.85938     688.5892     476.8800
   1425.84412     690.4080     478.6686   1425.84412     690.4080     478.6686
   1425.82886     691.5269     479.4602   1425.82886     691.5269     479.4602
   1425.81360     694.0782     480.6767   1425.81360     694.0782     480.6767
   1425.79834     696.4950     481.6967   1425.79834     696.4950     481.6967
   1425.78308     698.6945     481.9884   1425.78308     698.6945     481.9884
   1425.76782     702.2800     483.4835   1425.76782     702.2800     483.4835
   1425.75256     702.4609     485.1050   1425.75256     702.4609     485.1050
   1425.73730     705.1181     485.6695   1425.73730     705.1181     485.6695
   1425.72205     706.9992     486.8256   1425.72205     706.9992     486.8256
   1425.70679     708.6027     487.7375   1425.70679     708.6027     487.7375
   1425.69153     711.0925     488.3046   1425.69153     711.0925     488.3046
   1425.67627     712.1386     489.5625   1425.67627     712.1386     489.5625
   1425.66101     714.9562     490.2293   1425.66101     714.9562     490.2293
   1425.64575     716.4809     490.7382   1425.64575     716.4809     490.7382
   1425.63049     717.9315     491.5627   1425.63049     717.9315     491.5627
   1425.61523     720.4189     492.7592   1425.61523     720.4189     492.7592
   1425.59998     722.0361     492.6721   1425.59998     722.0361     492.6721
   1425.58472     723.9135     493.9966   1425.58472     723.9135     493.9966
   1425.56946     725.6115     494.5807   1425.56946     725.6115     494.5807
   1425.55420     727.6151     496.6450   1425.55420     727.6151     496.6450
   1425.53894     728.2386     496.1801   1425.53894     728.2386     496.1801
   1425.52368     730.0629     497.1825   1425.52368     730.0629     497.1825
   1425.50842     732.1666     498.3995   1425.50842     732.1666     498.3995
   1425.49316     733.1823     497.9788   1425.49316     733.1823     497.9788
   1425.47791     733.8883     499.4755   1425.47791     733.8883     499.4755
   1425.46265     735.0988     500.3474   1425.46265     735.0988     500.3474
   1425.44739     737.0186     499.9125   1425.44739     737.0186     499.9125
   1425.43213     737.7806     500.5225   1425.43213     737.7806     500.5225
   1425.41687     739.1323     502.0151   1425.41687     739.1323     502.0151
   1425.40161     739.9396     502.2695   1425.40161     739.9396     502.2695
   1425.38635     742.1234     502.6613   1425.38635     742.1234     502.6613
   1425.37109     743.5447     503.8965   1425.37109     743.5447     503.8965
   1425.35583     744.6177     503.3611   1425.35583     744.6177     503.3611
   1425.34058     745.8163     504.5874   1425.34058     745.8163     504.5874
   1425.32532     746.7479     505.2094   1425.32532     746.7479     505.2094
   1425.31006     748.9459     505.9203   1425.31006     748.9459     505.9203
   1425.29480     748.2731     506.5873   1425.29480     748.2731     506.5873
   1425.27954     750.4822     506.6964   1425.27954     750.4822     506.6964
   1425.26428     749.9803     507.4651   1425.26428     749.9803     507.4651
   1425.24902     751.1165     507.7135   1425.24902     751.1165     507.7135
   1425.23376     751.1810     507.4558   1425.23376     751.1810     507.4558
   1425.21851     753.5281     507.7096   1425.21851     753.5281     507.7096
   1425.20325     752.0131     509.1779   1425.20325     752.0131     509.1779
   1425.18799     754.2034     509.2264   1425.18799     754.2034     509.2264
   1425.17273     754.2416     509.8036   1425.17273     754.2416     509.8036
   1425.15747     756.1890     510.2584   1425.15747     756.1890     510.2584
   1425.14221     755.7781     511.2932   1425.14221     755.7781     511.2932
   1425.12695     757.6081     510.7798   1425.12695     757.6081     510.7798
   1425.11169     756.9060     511.4359   1425.11169     756.9060     511.4359
   1425.09644     757.9948     511.8452   1425.09644     757.9948     511.8452
   1425.08118     758.2159     511.8509   1425.08118     758.2159     511.8509
   1425.06592     758.2012     512.5521   1425.06592     758.2012     512.5521
   1425.05066     760.6821     513.1282   1425.05066     760.6821     513.1282
   1425.03540     759.3421     512.4439   1425.03540     759.3421     512.4439
   1425.02014     759.9850     514.1001   1425.02014     759.9850     514.1001
   1425.00488     760.9122     513.7628   1425.00488     760.9122     513.7628
   1424.98962     761.4882     514.5014   1424.98962     761.4882     514.5014
   1424.97437     762.0555     514.6003   1424.97437     762.0555     514.6003
   1424.95911     761.6917     514.4671   1424.95911     761.6917     514.4671
   1424.94385     761.1588     514.5020   1424.94385     761.1588     514.5020
   1424.92859     761.2431     515.3649   1424.92859     761.2431     515.3649
   1424.91333     762.8484     514.7329   1424.91333     762.8484     514.7329
   1424.89807     762.8431     514.9583   1424.89807     762.8431     514.9583
   1424.88281     763.2987     515.7547   1424.88281     763.2987     515.7547
   1424.86755     761.8985     516.1816   1424.86755     761.8985     516.1816
   1424.85229     762.5361     516.3816   1424.85229     762.5361     516.3816
   1424.83704     763.3680     515.3969   1424.83704     763.3680     515.3969
   1424.82178     762.9808     516.4846   1424.82178     762.9808     516.4846
   1424.80652     763.0521     516.8326   1424.80652     763.0521     516.8326
   1424.79126     764.0176     516.7817   1424.79126     764.0176     516.7817
   1424.77600     762.7346     517.3715   1424.77600     762.7346     517.3715
   1424.76074     763.5545     517.1373   1424.76074     763.5545     517.1373
   1424.74548     762.5211     517.6941   1424.74548     762.5211     517.6941
   1424.73022     763.1763     517.4302   1424.73022     763.1763     517.4302
   1424.71497     762.6929     516.5669   1424.71497     762.6929     516.5669
   1424.69971     762.9581     517.5150   1424.69971     762.9581     517.5150
   1424.68445     760.9172     517.9198   1424.68445     760.9172     517.9198
   1424.66919     761.3976     517.3123   1424.66919     761.3976     517.3123
   1424.65393     761.5689     518.0879   1424.65393     761.5689     518.0879
   1424.63867     762.2363     518.1871   1424.63867     762.2363     518.1871
   1424.62341     760.4746     518.4922   1424.62341     760.4746     518.4922
   1424.60815     761.4434     518.5303   1424.60815     761.4434     518.5303
   1424.59290     760.0798     518.0223   1424.59290     760.0798     518.0223
   1424.57764     760.2876     518.9777   1424.57764     760.2876     518.9777
   1424.56238     761.1957     518.2073   1424.56238     761.1957     518.2073
   1424.54712     758.9707     517.9904   1424.54712     758.9707     517.9904
   1424.53186     760.1190     518.7208   1424.53186     760.1190     518.7208
   1424.51660     759.3460     518.4293   1424.51660     759.3460     518.4293
   1424.50134     759.9595     517.8478   1424.50134     759.9595     517.8478
   1424.48608     758.4668     518.5114   1424.48608     758.4668     518.5114
   1424.47083     757.1719     517.4909   1424.47083     757.1719     517.4909
   1424.45557     757.6700     517.8852   1424.45557     757.6700     517.8852
   1424.44031     755.9529     517.5785   1424.44031     755.9529     517.5785
   1424.42505     755.6828     518.0729   1424.42505     755.6828     518.0729
   1424.40979     755.4260     518.3577   1424.40979     755.4260     518.3577
   1424.39453     754.3730     518.3807   1424.39453     754.3730     518.3807
   1424.37927     754.7411     518.0394   1424.37927     754.7411     518.0394
   1424.36401     755.1949     517.9269   1424.36401     755.1949     517.9269
   1424.34875     753.8615     517.8126   1424.34875     753.8615     517.8126
   1424.33350     753.9597     517.0068   1424.33350     753.9597     517.0068
   1424.31824     753.0496     517.0629   1424.31824     753.0496     517.0629
   1424.30298     752.0908     517.5652   1424.30298     752.0908     517.5652
   1424.28772     750.4255     517.3493   1424.28772     750.4255     517.3493
   1424.27246     749.9830     517.3231   1424.27246     749.9830     517.3231
   1424.25720     750.4713     517.5396   1424.25720     750.4713     517.5396
   1424.24194     750.5193     517.7567   1424.24194     750.5193     517.7567
   1424.22668     748.6934     517.0549   1424.22668     748.6934     517.0549
   1424.21143     749.3217     516.2048   1424.21143     749.3217     516.2048
   1424.19617     748.1823     516.1840   1424.19617     748.1823     516.1840
   1424.18091     746.5276     515.9688   1424.18091     746.5276     515.9688
   1424.16565     746.8934     516.4704   1424.16565     746.8934     516.4704
   1424.15039     746.4567     515.6941   1424.15039     746.4567     515.6941
   1424.13513     746.2253     516.2683   1424.13513     746.2253     516.2683
   1424.11987     745.6381     515.7172   1424.11987     745.6381     515.7172
   1424.10461     744.7325     516.4235   1424.10461     744.7325     516.4235
   1424.08936     744.9355     515.6676   1424.08936     744.9355     515.6676
   1424.07410     742.1417     514.3535   1424.07410     742.1417     514.3535
   1424.05884     742.0273     515.3620   1424.05884     742.0273     515.3620
   1424.04358     742.5108     514.8751   1424.04358     742.5108     514.8751
   1424.02832     740.7523     514.7558   1424.02832     740.7523     514.7558
   1424.01306     741.3926     515.1977   1424.01306     741.3926     515.1977
   1423.99780     739.8526     513.9290   1423.99780     739.8526     513.9290
   1423.98254     740.0071     513.9656   1423.98254     740.0071     513.9656
   1423.96729     738.3539     514.0143   1423.96729     738.3539     514.0143
   1423.95203     737.1136     513.7191   1423.95203     737.1136     513.7191
   1423.93677     737.3329     513.3442   1423.93677     737.3329     513.3442
   1423.92151     735.9523     512.3732   1423.92151     735.9523     512.3732
   1423.90625     737.3380     512.8747   1423.90625     737.3380     512.8747
   1423.89099     735.1187     512.0807   1423.89099     735.1187     512.0807
   1423.87573     734.7516     512.5248   1423.87573     734.7516     512.5248
   1423.86047     733.5724     512.3690   1423.86047     733.5724     512.3690
   1423.84521     733.0070     511.8936   1423.84521     733.0070     511.8936
   1423.82996     732.8695     511.9681   1423.82996     732.8695     511.9681
   1423.81470     732.1472     510.5302   1423.81470     732.1472     510.5302
   1423.79944     731.1218     510.9697   1423.79944     731.1218     510.9697
   1423.78418     730.5127     511.0762   1423.78418     730.5127     511.0762
   1423.76892     729.1866     511.6642   1423.76892     729.1866     511.6642
   1423.75366     729.0881     510.2347   1423.75366     729.0881     510.2347
   1423.73840     727.3156     509.1894   1423.73840     727.3156     509.1894
   1423.72314     728.9905     510.0607   1423.72314     728.9905     510.0607
   1423.70789     727.0441     509.1316   1423.70789     727.0441     509.1316
   1423.69263     726.2570     508.6535   1423.69263     726.2570     508.6535
   1423.67737     725.2559     508.7916   1423.67737     725.2559     508.7916
   1423.66211     725.4066     507.6070   1423.66211     725.4066     507.6070
   1423.64685     724.5616     507.4053   1423.64685     724.5616     507.4053
   1423.63159     724.2026     506.7586   1423.63159     724.2026     506.7586
   1423.61633     722.4681     506.8575   1423.61633     722.4681     506.8575
   1423.60107     722.9654     506.4093   1423.60107     722.9654     506.4093
   1423.58582     721.2188     506.0018   1423.58582     721.2188     506.0018
   1423.57056     721.2849     505.6067   1423.57056     721.2849     505.6067
   1423.55530     720.6116     505.4467   1423.55530     720.6116     505.4467
   1423.54004     720.6785     505.3742   1423.54004     720.6785     505.3742
   1423.52478     720.7683     504.6187   1423.52478     720.7683     504.6187
   1423.50952     719.7593     504.1361   1423.50952     719.7593     504.1361
   1423.49426     718.0996     503.3625   1423.49426     718.0996     503.3625
   1423.47900     717.4092     502.6844   1423.47900     717.4092     502.6844
   1423.46375     717.3538     503.1163   1423.46375     717.3538     503.1163
   1423.44849     717.3444     502.1530   1423.44849     717.3444     502.1530
   1423.43323     715.7472     501.0945   1423.43323     715.7472     501.0945
   1423.41797     715.5120     500.7367   1423.41797     715.5120     500.7367
   1423.40271     715.8247     501.1142   1423.40271     715.8247     501.1142
   1423.38745     715.2585     501.0130   1423.38745     715.2585     501.0130
   1423.37219     713.6339     500.5761   1423.37219     713.6339     500.5761
   1423.35693     712.7033     499.9406   1423.35693     712.7033     499.9406
   1423.34167     713.1420     499.4354   1423.34167     713.1420     499.4354
   1423.32642     713.4214     498.0850   1423.32642     713.4214     498.0850
   1423.31116     711.2609     498.2966   1423.31116     711.2609     498.2966
   1423.29590     712.2357     498.1602   1423.29590     712.2357     498.1602
   1423.28064     710.6339     497.2366   1423.28064     710.6339     497.2366
   1423.26538     710.9102     496.6632   1423.26538     710.9102     496.6632
   1423.25012     710.5015     496.1282   1423.25012     710.5015     496.1282
   1423.23486     709.4673     495.8206   1423.23486     709.4673     495.8206
   1423.21960     708.7163     495.2418   1423.21960     708.7163     495.2418
   1423.20435     708.2386     493.6102   1423.20435     708.2386     493.6102
   1423.18909     708.8190     493.8268   1423.18909     708.8190     493.8268
   1423.17383     706.8831     493.0112   1423.17383     706.8831     493.0112
   1423.15857     707.2117     493.0436   1423.15857     707.2117     493.0436
   1423.14331     706.9070     492.4171   1423.14331     706.9070     492.4171
   1423.12805     705.6375     491.8977   1423.12805     705.6375     491.8977
   1423.11279     706.8337     490.2389   1423.11279     706.8337     490.2389
   1423.09753     705.6359     491.0139   1423.09753     705.6359     491.0139
   1423.08228     705.6395     489.7777   1423.08228     705.6395     489.7777
   1423.06702     705.6304     489.9763   1423.06702     705.6304     489.9763
   1423.05176     704.3042     488.6558   1423.05176     704.3042     488.6558
   1423.03650     703.6155     488.1616   1423.03650     703.6155     488.1616
   1423.02124     703.1126     487.2469   1423.02124     703.1126     487.2469
   1423.00598     702.7690     486.7816   1423.00598     702.7690     486.7816
   1422.99072     702.1465     486.6530   1422.99072     702.1465     486.6530
   1422.97546     701.7587     485.3498   1422.97546     701.7587     485.3498
   1422.96021     701.8820     484.9655   1422.96021     701.8820     484.9655
   1422.94495     701.7185     484.4146   1422.94495     701.7185     484.4146
   1422.92969     701.2245     483.8177   1422.92969     701.2245     483.8177
   1422.91443     700.5048     482.6199   1422.91443     700.5048     482.6199
   1422.89917     699.8602     482.2120   1422.89917     699.8602     482.2120
   1422.88391     700.0061     481.2466   1422.88391     700.0061     481.2466
   1422.86865     699.9254     480.7738   1422.86865     699.9254     480.7738
   1422.85339     699.5093     480.8524   1422.85339     699.5093     480.8524
   1422.83813     698.1188     479.2503   1422.83813     698.1188     479.2503
   1422.82288     698.1100     478.7855   1422.82288     698.1100     478.7855
   1422.80762     698.2625     477.7911   1422.80762     698.2625     477.7911
   1422.79236     698.4509     477.6170   1422.79236     698.4509     477.6170
   1422.77710     696.9959     476.5211   1422.77710     696.9959     476.5211
   1422.76184     697.9965     476.5699   1422.76184     697.9965     476.5699
   1422.74658     697.5659     475.4519   1422.74658     697.5659     475.4519
   1422.73132     695.7676     474.8187   1422.73132     695.7676     474.8187
   1422.71606     696.5313     473.4615   1422.71606     696.5313     473.4615
   1422.70081     696.4003     473.2503   1422.70081     696.4003     473.2503
   1422.68555     697.0782     472.6462   1422.68555     697.0782     472.6462
   1422.67029     695.4640     471.4850   1422.67029     695.4640     471.4850
   1422.65503     695.9933     470.2564   1422.65503     695.9933     470.2564
   1422.63977     695.5447     470.3905   1422.63977     695.5447     470.3905
   1422.62451     695.1356     468.7542   1422.62451     695.1356     468.7542
   1422.60925     694.5660     468.4370   1422.60925     694.5660     468.4370
   1422.59399     694.9562     467.7935   1422.59399     694.9562     467.7935
   1422.57874     695.3757     467.4798   1422.57874     695.3757     467.4798
   1422.56348     693.8775     466.6290   1422.56348     693.8775     466.6290
   1422.54822     695.2709     465.4010   1422.54822     695.2709     465.4010
   1422.53296     696.0250     464.9687   1422.53296     696.0250     464.9687
   1422.51770     694.3252     464.4625   1422.51770     694.3252     464.4625
   1422.50244     693.6096     463.4573   1422.50244     693.6096     463.4573
   1422.48718     694.2985     462.8041   1422.48718     694.2985     462.8041
   1422.47192     692.9884     462.2224   1422.47192     692.9884     462.2224
   1422.45667     693.5381     461.0431   1422.45667     693.5381     461.0431
   1422.44141     692.4181     460.3144   1422.44141     692.4181     460.3144
   1422.42615     692.1443     459.0864   1422.42615     692.1443     459.0864
   1422.41089     692.2078     458.5665   1422.41089     692.2078     458.5665
   1422.39563     692.2216     457.6648   1422.39563     692.2216     457.6648
   1422.38037     691.8939     457.5960   1422.38037     691.8939     457.5960
   1422.36511     692.5447     455.4667   1422.36511     692.5447     455.4667
   1422.34985     692.0192     455.3572   1422.34985     692.0192     455.3572
   1422.33459     690.8480     454.7657   1422.33459     690.8480     454.7657
   1422.31934     691.1264     454.3277   1422.31934     691.1264     454.3277
   1422.30408     691.7421     452.7114   1422.30408     691.7421     452.7114
   1422.28882     691.6740     452.7057   1422.28882     691.6740     452.7057
   1422.27356     691.5891     452.1834   1422.27356     691.5891     452.1834
   1422.25830     691.3273     450.2646   1422.25830     691.3273     450.2646
   1422.24304     692.3721     450.5455   1422.24304     692.3721     450.5455
   1422.22778     691.6819     449.2599   1422.22778     691.6819     449.2599
   1422.21252     690.1011     447.4789   1422.21252     690.1011     447.4789
   1422.19727     690.9264     447.1048   1422.19727     690.9264     447.1048
   1422.18201     688.9731     446.7178   1422.18201     688.9731     446.7178
   1422.16675     690.0566     445.7109   1422.16675     690.0566     445.7109
   1422.15149     690.2383     444.0591   1422.15149     690.2383     444.0591
   1422.13623     690.6581     444.5044   1422.13623     690.6581     444.5044
   1422.12097     690.7983     442.7826   1422.12097     690.7983     442.7826
   1422.10571     689.9759     442.1049   1422.10571     689.9759     442.1049
   1422.09045     689.7719     441.4323   1422.09045     689.7719     441.4323
   1422.07520     690.0930     440.7410   1422.07520     690.0930     440.7410
   1422.05994     689.4859     440.0533   1422.05994     689.4859     440.0533
   1422.04468     690.7647     438.7217   1422.04468     690.7647     438.7217
   1422.02942     690.5356     437.8001   1422.02942     690.5356     437.8001
   1422.01416     688.4604     436.5708   1422.01416     688.4604     436.5708
   1421.99890     693.3558     437.3723   1421.99890     693.3558     437.3723
   1421.98364     689.8373     435.2941   1421.98364     689.8373     435.2941
   1421.96838     689.1356     434.0484   1421.96838     689.1356     434.0484
   1421.95312     688.6169     433.2990   1421.95312     688.6169     433.2990
   1421.93787     688.4007     432.7621   1421.93787     688.4007     432.7621
   1421.92261     687.9785     431.8734   1421.92261     687.9785     431.8734
   1421.90735     689.0833     431.0389   1421.90735     689.0833     431.0389
   1421.89209     688.5065     429.6804   1421.89209     688.5065     429.6804
   1421.87683     688.0363     429.6392   1421.87683     688.0363     429.6392
   1421.86157     688.6498     427.8871   1421.86157     688.6498     427.8871
   1421.84631     688.7416     427.4550   1421.84631     688.7416     427.4550
   1421.83105     688.1202     426.8656   1421.83105     688.1202     426.8656
   1421.81580     688.9313     425.2488   1421.81580     688.9313     425.2488
   1421.80054     687.7533     424.9199   1421.80054     687.7533     424.9199
   1421.78528     688.1262     423.7645   1421.78528     688.1262     423.7645
   1421.77002     687.8700     422.8535   1421.77002     687.8700     422.8535
   1421.75476     687.6505     421.8283   1421.75476     687.6505     421.8283
   1421.73950     688.1325     421.0922   1421.73950     688.1325     421.0922
   1421.72424     687.6337     420.2213   1421.72424     687.6337     420.2213
   1421.70898     687.4181     419.7470   1421.70898     687.4181     419.7470
   1421.69373     688.0678     418.4757   1421.69373     688.0678     418.4757
   1421.67847     686.7720     417.0760   1421.67847     686.7720     417.0760
   1421.66321     687.5814     415.9604   1421.66321     687.5814     415.9604
   1421.64795     686.8724     415.5896   1421.64795     686.8724     415.5896
   1421.63269     687.0003     414.5062   1421.63269     687.0003     414.5062
   1421.61743     686.5317     413.7182   1421.61743     686.5317     413.7182
   1421.60217     686.2764     413.3982   1421.60217     686.2764     413.3982
   1421.58691     686.1552     411.7782   1421.58691     686.1552     411.7782
   1421.57166     686.2195     411.1519   1421.57166     686.2195     411.1519
   1421.55640     686.7631     410.4469   1421.55640     686.7631     410.4469
   1421.54114     686.9497     409.1610   1421.54114     686.9497     409.1610
   1421.52588     687.4616     408.1012   1421.52588     687.4616     408.1012
   1421.51062     687.5546     407.5513   1421.51062     687.5546     407.5513
   1421.49536     686.6040     406.5365   1421.49536     686.6040     406.5365
   1421.48010     685.9333     405.9634   1421.48010     685.9333     405.9634
   1421.46484     686.7944     405.2572   1421.46484     686.7944     405.2572
   1421.44958     685.9445     404.2217   1421.44958     685.9445     404.2217
   1421.43433     686.1033     403.0152   1421.43433     686.1033     403.0152
   1421.41907     685.5009     402.5662   1421.41907     685.5009     402.5662
   1421.40381     684.7474     401.9176   1421.40381     684.7474     401.9176
   1421.38855     686.1027     400.7101   1421.38855     686.1027     400.7101
   1421.37329     684.9316     400.1556   1421.37329     684.9316     400.1556
   1421.35803     685.2325     398.4527   1421.35803     685.2325     398.4527
   1421.34277     684.3668     397.5939   1421.34277     684.3668     397.5939
   1421.32751     684.7492     397.7895   1421.32751     684.7492     397.7895
   1421.31226     685.3145     396.2390   1421.31226     685.3145     396.2390
   1421.29700     685.7995     395.0761   1421.29700     685.7995     395.0761
   1421.28174     684.0948     394.1647   1421.28174     684.0948     394.1647
   1421.26648     684.2793     394.2486   1421.26648     684.2793     394.2486
   1421.25122     684.2444     392.6703   1421.25122     684.2444     392.6703
   1421.23596     683.7191     391.4909   1421.23596     683.7191     391.4909
   1421.22070     682.8359     390.7793   1421.22070     682.8359     390.7793
   1421.20544     683.3371     389.8545   1421.20544     683.3371     389.8545
   1421.19019     683.3502     388.8521   1421.19019     683.3502     388.8521
   1421.17493     683.4660     387.6582   1421.17493     683.4660     387.6582
   1421.15967     683.6359     387.4433   1421.15967     683.6359     387.4433
   1421.14441     682.9614     387.0452   1421.14441     682.9614     387.0452
   1421.12915     681.9241     386.0067   1421.12915     681.9241     386.0067
   1421.11389     683.2661     385.5508   1421.11389     683.2661     385.5508
   1421.09863     682.3267     383.9843   1421.09863     682.3267     383.9843
   1421.08337     682.2323     383.5883   1421.08337     682.2323     383.5883
   1421.06812     681.4331     382.6845   1421.06812     681.4331     382.6845
   1421.05286     682.1620     381.3904   1421.05286     682.1620     381.3904
   1421.03760     682.5474     380.6558   1421.03760     682.5474     380.6558
   1421.02234     682.9392     380.3766   1421.02234     682.9392     380.3766
   1421.00708     682.6965     379.2759   1421.00708     682.6965     379.2759
   1420.99182     682.4626     378.9589   1420.99182     682.4626     378.9589
   1420.97656     683.2008     378.2657   1420.97656     683.2008     378.2657
   1420.96130     681.8820     376.8579   1420.96130     681.8820     376.8579
   1420.94604     682.1731     376.7752   1420.94604     682.1731     376.7752
   1420.93079     681.7925     375.6901   1420.93079     681.7925     375.6901
   1420.91553     680.7719     375.5998   1420.91553     680.7719     375.5998
   1420.90027     681.3307     373.6786   1420.90027     681.3307     373.6786
   1420.88501     681.8975     373.3515   1420.88501     681.8975     373.3515
   1420.86975     680.8591     372.5950   1420.86975     680.8591     372.5950
   1420.85449     681.0338     371.7171   1420.85449     681.0338     371.7171
   1420.83923     682.4812     371.0329   1420.83923     682.4812     371.0329
   1420.82397     680.2828     370.4681   1420.82397     680.2828     370.4681
   1420.80872     682.9167     370.0985   1420.80872     682.9167     370.0985
   1420.79346     681.4377     369.5471   1420.79346     681.4377     369.5471
   1420.77820     681.4178     369.1344   1420.77820     681.4178     369.1344
   1420.76294     681.0975     367.4531   1420.76294     681.0975     367.4531
   1420.74768     682.1433     367.2406   1420.74768     682.1433     367.2406
   1420.73242     681.3696     366.6529   1420.73242     681.3696     366.6529
   1420.71716     682.3262     367.0262   1420.71716     682.3262     367.0262
   1420.70190     682.3466     365.4406   1420.70190     682.3466     365.4406
   1420.68665     682.2589     365.3952   1420.68665     682.2589     365.3952
   1420.67139     682.8114     363.7294   1420.67139     682.8114     363.7294
   1420.65613     683.6405     364.2913   1420.65613     683.6405     364.2913
   1420.64087     684.4175     363.9070   1420.64087     684.4175     363.9070
   1420.62561     684.2571     363.2762   1420.62561     684.2571     363.2762
   1420.61035     685.4218     363.1541   1420.61035     685.4218     363.1541
   1420.59509     685.5300     363.4019   1420.59509     685.5300     363.4019
   1420.57983     686.8215     363.5092   1420.57983     686.8215     363.5092
   1420.56458     689.7142     362.9771   1420.56458     689.7142     362.9771
   1420.54932     690.9431     363.9904   1420.54932     690.9431     363.9904
   1420.53406     692.8655     363.8742   1420.53406     692.8655     363.8742
   1420.51880     693.6342     363.7278   1420.51880     693.6342     363.7278
   1420.50354     694.1074     363.6637   1420.50354     694.1074     363.6637
   1420.48828     695.6983     364.0618   1420.48828     695.6983     364.0618
   1420.47302     696.5863     363.9520   1420.47302     696.5863     363.9520
   1420.45776     699.7150     364.5162   1420.45776     699.7150     364.5162
   1420.44250     702.9905     365.9550   1420.44250     702.9905     365.9550
   1420.42725     707.9390     367.8423   1420.42725     707.9390     367.8423
   1420.41199     714.3276     370.7478   1420.41199     714.3276     370.7478
   1420.39673     720.9901     373.5133   1420.39673     720.9901     373.5133
   1420.38147     728.6831     377.2286   1420.38147     728.6831     377.2286
   1420.36621     738.4183     380.9283   1420.36621     738.4183     380.9283
   1420.35095     751.7953     385.9344   1420.35095     751.7953     385.9344
   1420.33569     771.5218     396.1931   1420.33569     771.5218     396.1931
   1420.32043     819.9335     418.6627   1420.32043     819.9335     418.6627
   1420.30518     896.1457     457.0744   1420.30518     896.1457     457.0744
   1420.28992    1035.1619     523.9118   1420.28992    1035.1619     523.9118
   1420.27466    1359.1472     684.7028   1420.27466    1359.1472     684.7028
   1420.25940    1771.7889     888.3275   1420.25940    1771.7889     888.3275
   1420.24414    1968.3607     986.0057   1420.24414    1968.3607     986.0057
   1420.22888    2052.0171    1026.2169   1420.22888    2052.0171    1026.2169
   1420.21362    2096.8013    1045.0992   1420.21362    2096.8013    1045.0992
   1420.19836    2062.8816    1026.8060   1420.19836    2062.8816    1026.8060
   1420.18311    1990.0624     989.7822   1420.18311    1990.0624     989.7822
   1420.16785    2101.4851    1040.8203   1420.16785    2101.4851    1040.8203
   1420.15259    2061.0498    1021.2917   1420.15259    2061.0498    1021.2917
   1420.13733    1837.3011     914.2606   1420.13733    1837.3011     914.2606
   1420.12207    1529.2614     758.4877   1420.12207    1529.2614     758.4877
   1420.10681    1270.6208     632.2905   1420.10681    1270.6208     632.2905
   1420.09155    1039.8602     518.8750   1420.09155    1039.8602     518.8750
   1420.07629     881.4035     440.5655   1420.07629     881.4035     440.5655
   1420.06104     788.9031     395.7642   1420.06104     788.9031     395.7642
   1420.04578     739.2975     370.0459   1420.04578     739.2975     370.0459
   1420.03052     711.2502     357.1228   1420.03052     711.2502     357.1228
   1420.01526     696.9799     350.6217   1420.01526     696.9799     350.6217
   1420.00000     690.8365     347.2565   1420.00000     690.8365     347.2565
   1419.98474     684.6934     343.8914   1419.98474     684.6934     343.8914
   1419.96948     682.2120     341.1033   1419.96948     682.2120     341.1033
   1419.95422     679.5411     339.1546   1419.95422     679.5411     339.1546
   1419.93896     679.0804     338.3959   1419.93896     679.0804     338.3959
   1419.92371     677.8148     338.1895   1419.92371     677.8148     338.1895
   1419.90845     677.3366     337.8360   1419.90845     677.3366     337.8360
   1419.89319     675.4312     337.1179   1419.89319     675.4312     337.1179
   1419.87793     677.0447     336.5312   1419.87793     677.0447     336.5312
   1419.86267     676.6750     336.0044   1419.86267     676.6750     336.0044
   1419.84741     677.0788     335.7783   1419.84741     677.0788     335.7783
   1419.83215     674.9274     334.8789   1419.83215     674.9274     334.8789
   1419.81689     676.4316     335.2834   1419.81689     676.4316     335.2834
   1419.80164     676.6447     335.3712   1419.80164     676.6447     335.3712
   1419.78638     676.7926     334.3206   1419.78638     676.7926     334.3206
   1419.77112     676.6313     334.3916   1419.77112     676.6313     334.3916
   1419.75586     676.4551     333.7823   1419.75586     676.4551     333.7823
   1419.74060     675.6440     334.3187   1419.74060     675.6440     334.3187
   1419.72534     676.6497     333.5149   1419.72534     676.6497     333.5149
   1419.71008     676.1120     333.1681   1419.71008     676.1120     333.1681
   1419.69482     676.2846     332.6760   1419.69482     676.2846     332.6760
   1419.67957     676.1685     332.6195   1419.67957     676.1685     332.6195
   1419.66431     677.1562     332.8771   1419.66431     677.1562     332.8771
   1419.64905     676.3756     332.2764   1419.64905     676.3756     332.2764
   1419.63379     676.8450     332.7629   1419.63379     676.8450     332.7629
   1419.61853     676.9367     332.7655   1419.61853     676.9367     332.7655
   1419.60327     676.7609     332.3166   1419.60327     676.7609     332.3166
   1419.58801     677.8707     332.2778   1419.58801     677.8707     332.2778
   1419.57275     677.8430     332.0548   1419.57275     677.8430     332.0548
   1419.55750     678.7052     331.9114   1419.55750     678.7052     331.9114
   1419.54224     679.0031     331.9496   1419.54224     679.0031     331.9496
   1419.52698     678.9865     331.7056   1419.52698     678.9865     331.7056
   1419.51172     678.9998     331.6032   1419.51172     678.9998     331.6032
   1419.49646     678.2017     331.8838   1419.49646     678.2017     331.8838
   1419.48120     679.5025     332.0681   1419.48120     679.5025     332.0681
   1419.46594     680.3743     332.1539   1419.46594     680.3743     332.1539
   1419.45068     679.4744     331.5722   1419.45068     679.4744     331.5722
   1419.43542     679.7168     332.1157   1419.43542     679.7168     332.1157
   1419.42017     680.9360     332.0553   1419.42017     680.9360     332.0553
   1419.40491     681.9451     331.7982   1419.40491     681.9451     331.7982
   1419.38965     680.4914     331.8239   1419.38965     680.4914     331.8239
   1419.37439     681.4225     331.5912   1419.37439     681.4225     331.5912
   1419.35913     681.4675     331.7356   1419.35913     681.4675     331.7356
   1419.34387     682.3331     331.7648   1419.34387     682.3331     331.7648
   1419.32861     682.4821     331.9268   1419.32861     682.4821     331.9268
   1419.31335     681.7311     332.1350   1419.31335     681.7311     332.1350
   1419.29810     683.4242     332.4829   1419.29810     683.4242     332.4829
   1419.28284     682.1664     332.7853   1419.28284     682.1664     332.7853
   1419.26758     684.5870     332.7918   1419.26758     684.5870     332.7918
   1419.25232     683.5018     332.8442   1419.25232     683.5018     332.8442
   1419.23706     683.4637     333.2956   1419.23706     683.4637     333.2956
   1419.22180     685.8491     333.0333   1419.22180     685.8491     333.0333
   1419.20654     684.6000     333.1733   1419.20654     684.6000     333.1733
   1419.19128     684.3539     332.8784   1419.19128     684.3539     332.8784
   1419.17603     685.7413     333.3540   1419.17603     685.7413     333.3540
   1419.16077     686.1282     333.6485   1419.16077     686.1282     333.6485
   1419.14551     687.8672     333.8789   1419.14551     687.8672     333.8789
   1419.13025     688.0689     334.6577   1419.13025     688.0689     334.6577
   1419.11499     687.4737     334.6931   1419.11499     687.4737     334.6931
   1419.09973     688.5975     334.2769   1419.09973     688.5975     334.2769
   1419.08447     687.5669     334.8805   1419.08447     687.5669     334.8805
   1419.06921     688.3398     335.1033   1419.06921     688.3398     335.1033
   1419.05396     689.4240     335.1891   1419.05396     689.4240     335.1891
   1419.03870     690.0273     335.7398   1419.03870     690.0273     335.7398
   1419.02344     690.4302     336.0770   1419.02344     690.4302     336.0770
   1419.00818     690.7502     336.4523   1419.00818     690.7502     336.4523
   1418.99292     690.4515     335.8960   1418.99292     690.4515     335.8960
   1418.97766     691.9815     337.7036   1418.97766     691.9815     337.7036
   1418.96240     693.6425     337.6663   1418.96240     693.6425     337.6663
   1418.94714     692.4708     337.2861   1418.94714     692.4708     337.2861
   1418.93188     692.3469     338.0804   1418.93188     692.3469     338.0804
   1418.91663     692.6578     337.7030   1418.91663     692.6578     337.7030
   1418.90137     693.9120     338.6217   1418.90137     693.9120     338.6217
   1418.88611     694.2818     338.5028   1418.88611     694.2818     338.5028
   1418.87085     694.0800     339.5316   1418.87085     694.0800     339.5316
   1418.85559     694.4874     339.1490   1418.85559     694.4874     339.1490
   1418.84033     694.8565     340.1157   1418.84033     694.8565     340.1157
   1418.82507     696.9539     340.2942   1418.82507     696.9539     340.2942
   1418.80981     696.6187     341.1605   1418.80981     696.6187     341.1605
   1418.79456     697.0199     341.1171   1418.79456     697.0199     341.1171
   1418.77930     697.6823     342.4866   1418.77930     697.6823     342.4866
   1418.76404     699.3452     342.3564   1418.76404     699.3452     342.3564
   1418.74878     699.6705     342.3652   1418.74878     699.6705     342.3652
   1418.73352     698.7084     342.9583   1418.73352     698.7084     342.9583
   1418.71826     699.2070     343.5930   1418.71826     699.2070     343.5930
   1418.70300     701.0109     344.2734   1418.70300     701.0109     344.2734
   1418.68774     700.8150     344.9170   1418.68774     700.8150     344.9170
   1418.67249     701.6404     345.3258   1418.67249     701.6404     345.3258
   1418.65723     703.0412     345.2779   1418.65723     703.0412     345.2779
   1418.64197     701.8275     345.9591   1418.64197     701.8275     345.9591
   1418.62671     702.9654     346.7718   1418.62671     702.9654     346.7718
   1418.61145     704.4999     347.1284   1418.61145     704.4999     347.1284
   1418.59619     705.4529     348.1452   1418.59619     705.4529     348.1452
   1418.58093     705.3726     348.5876   1418.58093     705.3726     348.5876
   1418.56567     705.6513     349.0359   1418.56567     705.6513     349.0359
   1418.55042     707.4265     349.6129   1418.55042     707.4265     349.6129
   1418.53516     707.0020     349.8024   1418.53516     707.0020     349.8024
   1418.51990     706.8744     351.0993   1418.51990     706.8744     351.0993
   1418.50464     707.6657     351.7733   1418.50464     707.6657     351.7733
   1418.48938     709.3718     352.3262   1418.48938     709.3718     352.3262
   1418.47412     710.0400     352.9863   1418.47412     710.0400     352.9863
   1418.45886     710.0986     353.4920   1418.45886     710.0986     353.4920
   1418.44360     710.9474     353.4507   1418.44360     710.9474     353.4507
   1418.42834     711.2908     354.6872   1418.42834     711.2908     354.6872
   1418.41309     712.1832     355.7463   1418.41309     712.1832     355.7463
   1418.39783     712.1541     355.5238   1418.39783     712.1541     355.5238
   1418.38257     713.3785     357.0170   1418.38257     713.3785     357.0170
   1418.36731     714.3837     357.7599   1418.36731     714.3837     357.7599
   1418.35205     713.2636     358.3117   1418.35205     713.2636     358.3117
   1418.33679     715.8055     359.0777   1418.33679     715.8055     359.0777
   1418.32153     715.7617     359.3648   1418.32153     715.7617     359.3648
   1418.30627     717.2965     360.4858   1418.30627     717.2965     360.4858
   1418.29102     717.3946     362.0534   1418.29102     717.3946     362.0534
   1418.27576     718.0599     361.9495   1418.27576     718.0599     361.9495
   1418.26050     718.3600     362.8703   1418.26050     718.3600     362.8703
   1418.24524     719.9513     363.0988   1418.24524     719.9513     363.0988
   1418.22998     720.6561     364.5872   1418.22998     720.6561     364.5872
   1418.21472     721.3930     365.0407   1418.21472     721.3930     365.0407
   1418.19946     721.8859     365.8820   1418.19946     721.8859     365.8820
   1418.18420     722.6655     367.0708   1418.18420     722.6655     367.0708
   1418.16895     722.9449     367.4269   1418.16895     722.9449     367.4269
   1418.15369     725.3011     368.3161   1418.15369     725.3011     368.3161
   1418.13843     723.5703     369.0524   1418.13843     723.5703     369.0524
   1418.12317     726.6636     369.9946   1418.12317     726.6636     369.9946
   1418.10791     726.6831     370.8434   1418.10791     726.6831     370.8434
   1418.09265     727.3556     372.2789   1418.09265     727.3556     372.2789
   1418.07739     728.0965     372.3167   1418.07739     728.0965     372.3167
   1418.06213     728.0129     374.1504   1418.06213     728.0129     374.1504
   1418.04688     729.0156     374.8083   1418.04688     729.0156     374.8083
   1418.03162     730.2842     376.1278   1418.03162     730.2842     376.1278
   1418.01636     730.0405     376.6833   1418.01636     730.0405     376.6833
   1418.00110     732.0198     377.5858   1418.00110     732.0198     377.5858
   1417.98584     731.3340     378.3260   1417.98584     731.3340     378.3260
   1417.97058     732.1664     379.2024   1417.97058     732.1664     379.2024
   1417.95532     734.2914     379.9293   1417.95532     734.2914     379.9293
   1417.94006     733.7390     381.2490   1417.94006     733.7390     381.2490
   1417.92480     734.8066     382.1533   1417.92480     734.8066     382.1533
   1417.90955     736.9161     382.9801   1417.90955     736.9161     382.9801
   1417.89429     736.1171     384.1361   1417.89429     736.1171     384.1361
   1417.87903     737.9698     385.2652   1417.87903     737.9698     385.2652
   1417.86377     738.8839     386.4514   1417.86377     738.8839     386.4514
   1417.84851     739.2726     387.8853   1417.84851     739.2726     387.8853
   1417.83325     739.8499     387.6117   1417.83325     739.8499     387.6117
   1417.81799     740.8563     389.1074   1417.81799     740.8563     389.1074
   1417.80273     741.1425     390.1525   1417.80273     741.1425     390.1525
   1417.78748     742.6163     390.7416   1417.78748     742.6163     390.7416
   1417.77222     743.2180     391.8651   1417.77222     743.2180     391.8651
   1417.75696     743.2791     393.2846   1417.75696     743.2791     393.2846
   1417.74170     745.0845     394.1430   1417.74170     745.0845     394.1430
   1417.72644     745.7620     395.6088   1417.72644     745.7620     395.6088
   1417.71118     746.4216     396.0783   1417.71118     746.4216     396.0783
   1417.69592     746.3446     397.8414   1417.69592     746.3446     397.8414
   1417.68066     747.7419     398.1657   1417.68066     747.7419     398.1657
   1417.66541     748.0805     399.3968   1417.66541     748.0805     399.3968
   1417.65015     749.1493     401.0784   1417.65015     749.1493     401.0784
   1417.63489     751.1233     401.8710   1417.63489     751.1233     401.8710
   1417.61963     750.6180     403.6611   1417.61963     750.6180     403.6611
   1417.60437     751.5138     404.2998   1417.60437     751.5138     404.2998
   1417.58911     752.1456     404.7932   1417.58911     752.1456     404.7932
   1417.57385     752.6535     406.2210   1417.57385     752.6535     406.2210
   1417.55859     753.3676     407.6657   1417.55859     753.3676     407.6657
   1417.54333     754.2357     408.7916   1417.54333     754.2357     408.7916
   1417.52808     755.5538     409.9996   1417.52808     755.5538     409.9996
   1417.51282     755.3478     411.1229   1417.51282     755.3478     411.1229
   1417.49756     757.4689     411.8775   1417.49756     757.4689     411.8775
   1417.48230     758.1431     413.0567   1417.48230     758.1431     413.0567
   1417.46704     759.7689     413.9105   1417.46704     759.7689     413.9105
   1417.45178     759.4583     415.9037   1417.45178     759.4583     415.9037
   1417.43652     760.8406     416.3969   1417.43652     760.8406     416.3969
   1417.42126     761.4780     417.4673   1417.42126     761.4780     417.4673
   1417.40601     762.3309     418.4920   1417.40601     762.3309     418.4920
   1417.39075     762.3928     419.5026   1417.39075     762.3928     419.5026
   1417.37549     761.5947     420.8273   1417.37549     761.5947     420.8273
   1417.36023     762.9941     423.4406   1417.36023     762.9941     423.4406
   1417.34497     765.6717     424.1113   1417.34497     765.6717     424.1113
   1417.32971     766.7620     424.0779   1417.32971     766.7620     424.0779
   1417.31445     766.1748     425.7636   1417.31445     766.1748     425.7636
   1417.29919     766.8215     427.2532   1417.29919     766.8215     427.2532
   1417.28394     767.3266     428.1456   1417.28394     767.3266     428.1456
   1417.26868     768.6054     429.5427   1417.26868     768.6054     429.5427
   1417.25342     768.3063     430.6839   1417.25342     768.3063     430.6839
   1417.23816     769.7639     432.2696   1417.23816     769.7639     432.2696
   1417.22290     769.9216     433.3471   1417.22290     769.9216     433.3471
   1417.20764     770.7967     433.2861   1417.20764     770.7967     433.2861
   1417.19238     771.2544     435.0195   1417.19238     771.2544     435.0195
   1417.17712     772.3652     435.6286   1417.17712     772.3652     435.6286
   1417.16187     773.5406     437.2502   1417.16187     773.5406     437.2502
   1417.14661     773.8275     438.5242   1417.14661     773.8275     438.5242
   1417.13135     773.0380     439.2918   1417.13135     773.0380     439.2918
   1417.11609     775.0209     440.2120   1417.11609     775.0209     440.2120
   1417.10083     774.8234     441.4969   1417.10083     774.8234     441.4969
   1417.08557     776.6256     442.5591   1417.08557     776.6256     442.5591
   1417.07031     776.3549     443.7924   1417.07031     776.3549     443.7924
   1417.05505     777.3999     445.1265   1417.05505     777.3999     445.1265
   1417.03979     776.8746     445.4164   1417.03979     776.8746     445.4164
   1417.02454     778.5202     446.5769   1417.02454     778.5202     446.5769
   1417.00928     778.9820     447.9212   1417.00928     778.9820     447.9212
   1416.99402     779.1799     449.1915   1416.99402     779.1799     449.1915
   1416.97876     779.3752     449.8986   1416.97876     779.3752     449.8986
   1416.96350     780.4730     450.9803   1416.96350     780.4730     450.9803
   1416.94824     781.3613     451.8186   1416.94824     781.3613     451.8186
   1416.93298     782.3175     452.8172   1416.93298     782.3175     452.8172
   1416.91772     783.4512     453.3916   1416.91772     783.4512     453.3916
   1416.90247     782.1384     454.5854   1416.90247     782.1384     454.5854
   1416.88721     784.4546     454.9266   1416.88721     784.4546     454.9266
   1416.87195     784.5278     456.5928   1416.87195     784.5278     456.5928
   1416.85669     784.0565     456.8579   1416.85669     784.0565     456.8579
   1416.84143     782.5341     458.0338   1416.84143     782.5341     458.0338
   1416.82617     784.9878     459.0752   1416.82617     784.9878     459.0752
   1416.81091     784.7869     459.4121   1416.81091     784.7869     459.4121
   1416.79565     786.6721     460.6308   1416.79565     786.6721     460.6308
   1416.78040     786.1157     461.1960   1416.78040     786.1157     461.1960
   1416.76514     786.1622     461.8416   1416.76514     786.1622     461.8416
   1416.74988     786.2483     463.2826   1416.74988     786.2483     463.2826
   1416.73462     787.2229     464.2256   1416.73462     787.2229     464.2256
   1416.71936     787.8681     463.5172   1416.71936     787.8681     463.5172
   1416.70410     788.2903     464.4398   1416.70410     788.2903     464.4398
   1416.68884     787.6929     465.8010   1416.68884     787.6929     465.8010
   1416.67358     787.5568     465.4036   1416.67358     787.5568     465.4036
   1416.65833     789.1193     466.9251   1416.65833     789.1193     466.9251
   1416.64307     789.3079     467.1447   1416.64307     789.3079     467.1447
   1416.62781     788.9968     467.8162   1416.62781     788.9968     467.8162
   1416.61255     789.6696     468.8569   1416.61255     789.6696     468.8569
   1416.59729     790.7050     469.0378   1416.59729     790.7050     469.0378
   1416.58203     790.2036     469.4072   1416.58203     790.2036     469.4072
   1416.56677     788.6201     470.3710   1416.56677     788.6201     470.3710
   1416.55151     789.5965     469.6868   1416.55151     789.5965     469.6868
   1416.53625     790.1995     470.5254   1416.53625     790.1995     470.5254
   1416.52100     790.1382     471.4432   1416.52100     790.1382     471.4432
   1416.50574     790.7527     471.3022   1416.50574     790.7527     471.3022
   1416.49048     790.5086     471.5013   1416.49048     790.5086     471.5013
   1416.47522     790.2342     472.8854   1416.47522     790.2342     472.8854
   1416.45996     791.0803     472.1190   1416.45996     791.0803     472.1190
   1416.44470     790.0695     472.7404   1416.44470     790.0695     472.7404
   1416.42944     790.6301     473.1381   1416.42944     790.6301     473.1381
   1416.41418     790.5588     472.6040   1416.41418     790.5588     472.6040
   1416.39893     789.6472     473.2603   1416.39893     789.6472     473.2603
   1416.38367     788.4227     473.1132   1416.38367     788.4227     473.1132
   1416.36841     790.8531     473.2574   1416.36841     790.8531     473.2574
   1416.35315     790.0181     472.8212   1416.35315     790.0181     472.8212
   1416.33789     791.5682     473.2357   1416.33789     791.5682     473.2357
   1416.32263     789.7950     473.4599   1416.32263     789.7950     473.4599
   1416.30737     789.1389     474.4508   1416.30737     789.1389     474.4508
   1416.29211     789.7473     473.7624   1416.29211     789.7473     473.7624
   1416.27686     789.2872     473.9273   1416.27686     789.2872     473.9273
   1416.26160     789.3870     474.1869   1416.26160     789.3870     474.1869
   1416.24634     788.5556     473.9245   1416.24634     788.5556     473.9245
   1416.23108     789.2498     474.2198   1416.23108     789.2498     474.2198
   1416.21582     787.5099     474.5351   1416.21582     787.5099     474.5351
   1416.20056     787.4591     473.8117   1416.20056     787.4591     473.8117
   1416.18530     787.1807     472.3899   1416.18530     787.1807     472.3899
   1416.17004     786.1320     473.7020   1416.17004     786.1320     473.7020
   1416.15479     786.7313     473.0327   1416.15479     786.7313     473.0327
   1416.13953     786.4940     472.3094   1416.13953     786.4940     472.3094
   1416.12427     787.0162     472.4017   1416.12427     787.0162     472.4017
   1416.10901     785.8566     472.5670   1416.10901     785.8566     472.5670
   1416.09375     785.5723     472.6921   1416.09375     785.5723     472.6921
   1416.07849     783.9142     472.0219   1416.07849     783.9142     472.0219
   1416.06323     783.9139     472.3960   1416.06323     783.9139     472.3960
   1416.04797     783.4559     472.1767   1416.04797     783.4559     472.1767
   1416.03271     783.7166     471.9384   1416.03271     783.7166     471.9384
   1416.01746     783.3630     471.5857   1416.01746     783.3630     471.5857
   1416.00220     782.2884     471.1981   1416.00220     782.2884     471.1981
   1415.98694     782.0558     470.6573   1415.98694     782.0558     470.6573
   1415.97168     780.4899     470.9317   1415.97168     780.4899     470.9317
   1415.95642     780.8499     470.5207   1415.95642     780.8499     470.5207
   1415.94116     780.8093     470.0609   1415.94116     780.8093     470.0609
   1415.92590     779.4354     469.5631   1415.92590     779.4354     469.5631
   1415.91064     779.1915     469.9215   1415.91064     779.1915     469.9215
   1415.89539     777.0631     468.2948   1415.89539     777.0631     468.2948
   1415.88013     777.1919     468.8102   1415.88013     777.1919     468.8102
   1415.86487     777.3991     468.1184   1415.86487     777.3991     468.1184
   1415.84961     776.7608     467.3828   1415.84961     776.7608     467.3828
   1415.83435     777.2479     468.2764   1415.83435     777.2479     468.2764
   1415.81909     773.8566     467.7151   1415.81909     773.8566     467.7151
   1415.80383     774.8139     466.9013   1415.80383     774.8139     466.9013
   1415.78857     773.0446     465.4546   1415.78857     773.0446     465.4546
   1415.77332     772.4641     465.6259   1415.77332     772.4641     465.6259
   1415.75806     772.2036     466.0527   1415.75806     772.2036     466.0527
   1415.74280     772.1812     464.9309   1415.74280     772.1812     464.9309
   1415.72754     771.3318     464.5410   1415.72754     771.3318     464.5410
   1415.71228     771.0850     464.3787   1415.71228     771.0850     464.3787
   1415.69702     771.0405     462.8350   1415.69702     771.0405     462.8350
   1415.68176     768.9472     463.3245   1415.68176     768.9472     463.3245
   1415.66650     766.6877     463.3879   1415.66650     766.6877     463.3879
   1415.65125     768.6996     462.5060   1415.65125     768.6996     462.5060
   1415.63599     766.6979     461.2993   1415.63599     766.6979     461.2993
   1415.62073     765.8292     460.8050   1415.62073     765.8292     460.8050
   1415.60547     764.6807     460.7195   1415.60547     764.6807     460.7195
   1415.59021     764.4075     460.1676   1415.59021     764.4075     460.1676
   1415.57495     762.5554     459.8932   1415.57495     762.5554     459.8932
   1415.55969     763.2713     459.1704   1415.55969     763.2713     459.1704
   1415.54443     761.4070     458.6987   1415.54443     761.4070     458.6987
   1415.52917     760.6024     457.7168   1415.52917     760.6024     457.7168
   1415.51392     759.9555     457.7311   1415.51392     759.9555     457.7311
   1415.49866     758.8393     456.6526   1415.49866     758.8393     456.6526
   1415.48340     758.4799     456.0485   1415.48340     758.4799     456.0485
   1415.46814     758.8152     455.6262   1415.46814     758.8152     455.6262
   1415.45288     756.2156     456.5883   1415.45288     756.2156     456.5883
   1415.43762     754.7559     455.0251   1415.43762     754.7559     455.0251
   1415.42236     754.7854     454.2053   1415.42236     754.7854     454.2053
   1415.40710     754.3422     452.7006   1415.40710     754.3422     452.7006
   1415.39185     752.3306     452.7070   1415.39185     752.3306     452.7070
   1415.37659     751.4628     451.1894   1415.37659     751.4628     451.1894
   1415.36133     749.4994     451.3386   1415.36133     749.4994     451.3386
   1415.34607     749.2576     450.9702   1415.34607     749.2576     450.9702
   1415.33081     748.0278     450.3292   1415.33081     748.0278     450.3292
   1415.31555     746.3304     450.1791   1415.31555     746.3304     450.1791
   1415.30029     746.2911     448.2488   1415.30029     746.2911     448.2488
   1415.28503     744.6809     448.1683   1415.28503     744.6809     448.1683
   1415.26978     744.4188     447.4054   1415.26978     744.4188     447.4054
   1415.25452     742.8723     446.9090   1415.25452     742.8723     446.9090
   1415.23926     741.7184     445.2383   1415.23926     741.7184     445.2383
   1415.22400     740.4641     445.4220   1415.22400     740.4641     445.4220
   1415.20874     740.0674     443.9886   1415.20874     740.0674     443.9886
   1415.19348     738.0965     443.8659   1415.19348     738.0965     443.8659
   1415.17822     736.5643     442.7628   1415.17822     736.5643     442.7628
   1415.16296     735.5273     442.8913   1415.16296     735.5273     442.8913
   1415.14771     733.8317     441.4002   1415.14771     733.8317     441.4002
   1415.13245     732.2774     441.0564   1415.13245     732.2774     441.0564
   1415.11719     731.5300     440.0891   1415.11719     731.5300     440.0891
   1415.10193     730.3699     439.1244   1415.10193     730.3699     439.1244
   1415.08667     729.0872     438.1027   1415.08667     729.0872     438.1027
   1415.07141     728.4503     437.7436   1415.07141     728.4503     437.7436
   1415.05615     724.8110     436.6392   1415.05615     724.8110     436.6392
   1415.04089     724.8190     435.5785   1415.04089     724.8190     435.5785
   1415.02563     722.9943     434.3532   1415.02563     722.9943     434.3532
   1415.01038     721.3613     433.8897   1415.01038     721.3613     433.8897
   1414.99512     721.1359     432.8641   1414.99512     721.1359     432.8641
   1414.97986     718.5657     431.5594   1414.97986     718.5657     431.5594
   1414.96460     717.1825     430.8375   1414.96460     717.1825     430.8375
   1414.94934     715.4193     429.7926   1414.94934     715.4193     429.7926
   1414.93408     714.4982     428.9763   1414.93408     714.4982     428.9763
   1414.91882     712.5416     428.0067   1414.91882     712.5416     428.0067
   1414.90356     711.7269     427.3856   1414.90356     711.7269     427.3856
   1414.88831     709.1962     426.5488   1414.88831     709.1962     426.5488
   1414.87305     707.6652     425.3361   1414.87305     707.6652     425.3361
   1414.85779     705.4163     423.9290   1414.85779     705.4163     423.9290
   1414.84253     704.4024     423.6729   1414.84253     704.4024     423.6729
   1414.82727     702.3071     422.4639   1414.82727     702.3071     422.4639
   1414.81201     701.1364     421.4292   1414.81201     701.1364     421.4292
   1414.79675     699.8885     420.1106   1414.79675     699.8885     420.1106
   1414.78149     697.5632     419.2352   1414.78149     697.5632     419.2352
   1414.76624     696.3858     417.9010   1414.76624     696.3858     417.9010
   1414.75098     694.1061     416.2631   1414.75098     694.1061     416.2631
   1414.73572     691.8281     415.5926   1414.73572     691.8281     415.5926
   1414.72046     690.6964     414.6531   1414.72046     690.6964     414.6531
   1414.70520     688.4821     414.3849   1414.70520     688.4821     414.3849
   1414.68994     685.2772     412.8182   1414.68994     685.2772     412.8182
   1414.67468     683.3491     411.9800   1414.67468     683.3491     411.9800
   1414.65942     683.8702     409.9971   1414.65942     683.8702     409.9971
   1414.64417     681.8729     408.3437   1414.64417     681.8729     408.3437
   1414.62891     678.8978     407.7224   1414.62891     678.8978     407.7224
   1414.61365     677.3357     407.0475   1414.61365     677.3357     407.0475
   1414.59839     674.6157     405.5816   1414.59839     674.6157     405.5816
   1414.58313     672.5087     404.0101   1414.58313     672.5087     404.0101
   1414.56787     670.8766     402.8340   1414.56787     670.8766     402.8340
   1414.55261     668.6877     401.3633   1414.55261     668.6877     401.3633
   1414.53735     667.4410     400.0016   1414.53735     667.4410     400.0016
   1414.52209     663.8513     399.5555   1414.52209     663.8513     399.5555
   1414.50684     662.4641     397.8383   1414.50684     662.4641     397.8383
   1414.49158     660.1815     396.5365   1414.49158     660.1815     396.5365
   1414.47632     658.5290     395.2920   1414.47632     658.5290     395.2920
   1414.46106     655.2198     393.8820   1414.46106     655.2198     393.8820
   1414.44580     653.6977     392.5107   1414.44580     653.6977     392.5107
   1414.43054     651.3469     391.3748   1414.43054     651.3469     391.3748
   1414.41528     649.5098     390.0103   1414.41528     649.5098     390.0103
   1414.40002     645.8550     388.9662   1414.40002     645.8550     388.9662
   1414.38477     644.1097     387.2930   1414.38477     644.1097     387.2930
   1414.36951     641.4107     386.1071   1414.36951     641.4107     386.1071
   1414.35425     639.5707     384.5301   1414.35425     639.5707     384.5301
   1414.33899     638.6138     383.3609   1414.33899     638.6138     383.3609
   1414.32373     634.6436     381.9971   1414.32373     634.6436     381.9971
   1414.30847     633.0984     380.8384   1414.30847     633.0984     380.8384
   1414.29321     628.7604     378.9717   1414.29321     628.7604     378.9717
   1414.27795     627.7090     378.3151   1414.27795     627.7090     378.3151
   1414.26270     625.5280     376.4150   1414.26270     625.5280     376.4150
   1414.24744     622.4033     374.8632   1414.24744     622.4033     374.8632
   1414.23218     619.7943     373.4036   1414.23218     619.7943     373.4036
   1414.21692     617.6797     372.0831   1414.21692     617.6797     372.0831
   1414.20166     616.0614     370.5363   1414.20166     616.0614     370.5363
   1414.18640     612.3880     369.1393   1414.18640     612.3880     369.1393
   1414.17114     609.8396     367.9394   1414.17114     609.8396     367.9394
   1414.15588     607.3060     366.2960   1414.15588     607.3060     366.2960
   1414.14062     604.3586     364.1982   1414.14062     604.3586     364.1982
   1414.12537     603.2599     363.4321   1414.12537     603.2599     363.4321
   1414.11011     599.6326     362.1421   1414.11011     599.6326     362.1421
   1414.09485     596.7696     360.4428   1414.09485     596.7696     360.4428
   1414.07959     594.9122     358.6147   1414.07959     594.9122     358.6147
   1414.06433     591.9504     356.9349   1414.06433     591.9504     356.9349
   1414.04907     588.8908     355.1944   1414.04907     588.8908     355.1944
   1414.03381     586.1284     353.8413   1414.03381     586.1284     353.8413
   1414.01855     583.3618     352.6106   1414.01855     583.3618     352.6106
   1414.00330     580.9227     350.9542   1414.00330     580.9227     350.9542
   1413.98804     578.4444     349.0016   1413.98804     578.4444     349.0016
   1413.97278     575.3847     347.6063   1413.97278     575.3847     347.6063
   1413.95752     572.9425     346.6772   1413.95752     572.9425     346.6772
   1413.94226     569.4374     344.8614   1413.94226     569.4374     344.8614
   1413.92700     566.8888     343.5857   1413.92700     566.8888     343.5857
   1413.91174     563.6735     341.4276   1413.91174     563.6735     341.4276
   1413.89648     561.2710     340.0656   1413.89648     561.2710     340.0656
   1413.88123     558.9987     338.3277   1413.88123     558.9987     338.3277
   1413.86597     556.2828     336.9485   1413.86597     556.2828     336.9485
   1413.85071     552.5718     335.5102   1413.85071     552.5718     335.5102
   1413.83545     550.4586     333.7223   1413.83545     550.4586     333.7223
   1413.82019     547.0919     332.0172   1413.82019     547.0919     332.0172
   1413.80493     543.7993     331.0969   1413.80493     543.7993     331.0969
   1413.78967     542.0153     329.5996   1413.78967     542.0153     329.5996
   1413.77441     538.6432     327.6639   1413.77441     538.6432     327.6639
   1413.75916     535.4031     325.8930   1413.75916     535.4031     325.8930
   1413.74390     533.6256     325.0276   1413.74390     533.6256     325.0276
   1413.72864     530.6523     322.8653   1413.72864     530.6523     322.8653
   1413.71338     527.5164     321.4776   1413.71338     527.5164     321.4776
   1413.69812     524.4316     319.8183   1413.69812     524.4316     319.8183
   1413.68286     521.5330     318.1952   1413.68286     521.5330     318.1952
   1413.66760     519.3010     316.3439   1413.66760     519.3010     316.3439
   1413.65234     515.8038     315.4253   1413.65234     515.8038     315.4253
   1413.63708     512.9729     313.6680   1413.63708     512.9729     313.6680
   1413.62183     510.8902     312.3613   1413.62183     510.8902     312.3613
   1413.60657     506.7924     311.1492   1413.60657     506.7924     311.1492
   1413.59131     504.8233     308.6068   1413.59131     504.8233     308.6068
   1413.57605     502.2928     307.8061   1413.57605     502.2928     307.8061
   1413.56079     499.1626     305.9150   1413.56079     499.1626     305.9150
   1413.54553     496.5340     305.2630   1413.54553     496.5340     305.2630
   1413.53027     493.9349     303.6813   1413.53027     493.9349     303.6813
   1413.51501     490.3238     301.9853   1413.51501     490.3238     301.9853
   1413.49976     488.3907     300.0414   1413.49976     488.3907     300.0414
   1413.48450     485.1572     298.8993   1413.48450     485.1572     298.8993
   1413.46924     481.9571     297.4474   1413.46924     481.9571     297.4474
   1413.45398     480.1861     295.8347   1413.45398     480.1861     295.8347
   1413.43872     477.5127     294.3928   1413.43872     477.5127     294.3928
   1413.42346     474.2239     292.9095   1413.42346     474.2239     292.9095
   1413.40820     471.4910     291.7260   1413.40820     471.4910     291.7260
   1413.39294     468.9936     290.1596   1413.39294     468.9936     290.1596
   1413.37769     465.7415     288.8126   1413.37769     465.7415     288.8126
   1413.36243     463.4904     287.2415   1413.36243     463.4904     287.2415
   1413.34717     460.1976     285.9170   1413.34717     460.1976     285.9170
   1413.33191     458.0010     284.3268   1413.33191     458.0010     284.3268
   1413.31665     455.7466     283.5737   1413.31665     455.7466     283.5737
   1413.30139     452.4676     281.7051   1413.30139     452.4676     281.7051
   1413.28613     450.5623     280.9056   1413.28613     450.5623     280.9056
   1413.27087     448.4576     279.6378   1413.27087     448.4576     279.6378
   1413.25562     445.3117     278.2696   1413.25562     445.3117     278.2696
   1413.24036     442.7762     276.5824   1413.24036     442.7762     276.5824
   1413.22510     439.2143     275.3526   1413.22510     439.2143     275.3526
   1413.20984     437.3027     274.2357   1413.20984     437.3027     274.2357
   1413.19458     435.0124     273.5537   1413.19458     435.0124     273.5537
   1413.17932     432.7622     272.3721   1413.17932     432.7622     272.3721
   1413.16406     430.1940     270.7875   1413.16406     430.1940     270.7875
   1413.14880     428.2440     269.8741   1413.14880     428.2440     269.8741
   1413.13354     426.3626     269.3606   1413.13354     426.3626     269.3606
   1413.11829     423.6608     267.7620   1413.11829     423.6608     267.7620
   1413.10303     420.8856     267.1111   1413.10303     420.8856     267.1111
   1413.08777     418.5855     265.2223   1413.08777     418.5855     265.2223
   1413.07251     416.2546     264.4208   1413.07251     416.2546     264.4208
   1413.05725     414.3916     263.2512   1413.05725     414.3916     263.2512
   1413.04199     412.7603     262.5465   1413.04199     412.7603     262.5465
   1413.02673     409.6023     261.2503   1413.02673     409.6023     261.2503
   1413.01147     407.8954     260.2140   1413.01147     407.8954     260.2140
   1412.99622     406.0856     259.4622   1412.99622     406.0856     259.4622
   1412.98096     403.5699     258.7163   1412.98096     403.5699     258.7163
   1412.96570     402.2284     258.0797   1412.96570     402.2284     258.0797
   1412.95044     400.2422     257.1186   1412.95044     400.2422     257.1186
   1412.93518     397.9373     256.4288   1412.93518     397.9373     256.4288
   1412.91992     396.6353     255.5551   1412.91992     396.6353     255.5551
   1412.90466     394.5844     255.0660   1412.90466     394.5844     255.0660
   1412.88940     392.5582     253.9229   1412.88940     392.5582     253.9229
   1412.87415     390.7947     253.1137   1412.87415     390.7947     253.1137
   1412.85889     389.6132     252.2700   1412.85889     389.6132     252.2700
   1412.84363     387.9079     252.0222   1412.84363     387.9079     252.0222
   1412.82837     386.2706     251.2884   1412.82837     386.2706     251.2884
   1412.81311     384.2009     250.6206   1412.81311     384.2009     250.6206
   1412.79785     382.5068     250.5748   1412.79785     382.5068     250.5748
   1412.78259     381.6287     249.8538   1412.78259     381.6287     249.8538
   1412.76733     380.0686     249.3307   1412.76733     380.0686     249.3307
   1412.75208     378.9370     248.5579   1412.75208     378.9370     248.5579
   1412.73682     376.7838     248.0842   1412.73682     376.7838     248.0842
   1412.72156     376.2542     247.7139   1412.72156     376.2542     247.7139
   1412.70630     374.4323     247.0329   1412.70630     374.4323     247.0329
   1412.69104     373.1644     246.7373   1412.69104     373.1644     246.7373
   1412.67578     372.0658     246.7377   1412.67578     372.0658     246.7377
   1412.66052     371.1832     246.6286   1412.66052     371.1832     246.6286
   1412.64526     369.7960     246.4962   1412.64526     369.7960     246.4962
   1412.63000     368.4857     245.9455   1412.63000     368.4857     245.9455
   1412.61475     367.7882     245.6190   1412.61475     367.7882     245.6190
   1412.59949     366.7391     245.2971   1412.59949     366.7391     245.2971
   1412.58423     365.6386     245.7227   1412.58423     365.6386     245.7227
   1412.56897     365.3409     245.5198   1412.56897     365.3409     245.5198
   1412.55371     365.3586     245.7383   1412.55371     365.3586     245.7383
   1412.53845     364.3250     245.6140   1412.53845     364.3250     245.6140
   1412.52319     363.8881     245.6204   1412.52319     363.8881     245.6204
   1412.50793     362.1287     245.6038   1412.50793     362.1287     245.6038
   1412.49268     361.9802     246.1665   1412.49268     361.9802     246.1665
   1412.47742     361.7963     246.2546   1412.47742     361.7963     246.2546
   1412.46216     361.4267     246.5034   1412.46216     361.4267     246.5034
   1412.44690     360.0157     246.2910   1412.44690     360.0157     246.2910
   1412.43164     360.4482     246.4001   1412.43164     360.4482     246.4001
   1412.41638     360.1703     246.8877   1412.41638     360.1703     246.8877
   1412.40112     360.0789     247.2584   1412.40112     360.0789     247.2584
   1412.38586     359.8545     247.3066   1412.38586     359.8545     247.3066
   1412.37061     359.9652     247.9671   1412.37061     359.9652     247.9671
   1412.35535     359.1225     248.5794   1412.35535     359.1225     248.5794
   1412.34009     359.9398     249.3949   1412.34009     359.9398     249.3949
   1412.32483     359.5161     249.6793   1412.32483     359.5161     249.6793
   1412.30957     359.6584     250.0836   1412.30957     359.6584     250.0836
   1412.29431     360.1569     250.6896   1412.29431     360.1569     250.6896
   1412.27905     360.1762     251.4791   1412.27905     360.1762     251.4791
   1412.26379     360.3929     252.0977   1412.26379     360.3929     252.0977
   1412.24854     360.4533     252.6837   1412.24854     360.4533     252.6837
   1412.23328     361.6468     253.2998   1412.23328     361.6468     253.2998
   1412.21802     361.9861     254.3815   1412.21802     361.9861     254.3815
   1412.20276     362.2335     255.3834   1412.20276     362.2335     255.3834