#     FILENAME=!Skynet_57528_lach-cc-203_20608_21056.cyb.fits
#     BASENAME=Skynet_57528_lach-cc-203_20608_21056
#     SRC_NAME=lach-cc-203
#     OBSERVER=ccmadison16_9505
#     DATE_OBS=2016-05-20T20:28:51.930
#        OBSID=20608
#      SCANNUM=21056
#          MJD=57528.8544
#          UTC=73821
#     SCANTYPE=track
#     DATAMODE=HIRES
#     TUNEFREQ=1420.0000
# Actual_FREQ1=1420.0000
# Actual_FREQ2=1420.0000
#    LO1Tuning=6870.000
#     RFFILTER=1355_1435
#        OBSBW=-15.6250
#        NCHAN=1024 
#        FOCUS=37.0709
#           RA=06:33:08.68
#          DEC=08:49:47.37
#      RA(hrs)=6.552400
#     DEC(deg)=8.829800
#    AZIM(deg)=194.811
#    ELEV(deg)=59.434
#     IFattens=10.00, 9.00
#      WARNING=None
#    TCAL_XL1=7.9635
#    TCAL_YR1=9.1340
#    TCAL_XL2=7.9635
#    TCAL_YR2=9.1340
#     TRX_XL1=11.7060
#     TRX_YR1=11.7060
#     TRX_XL2=11.7060
#     TRX_YR2=11.7060
#        TAVE=1.0000
#Freq1(MHz)          XL1          YR1  Freq2(MHz)          XL2          YR2 

   1427.81250     362.6744     269.2495   1427.81250     362.6744     269.2495
   1427.79724     362.3936     270.3019   1427.79724     362.3936     270.3019
   1427.78198     363.6761     270.4855   1427.78198     363.6761     270.4855
   1427.76672     364.2049     271.7486   1427.76672     364.2049     271.7486
   1427.75146     364.9699     272.2483   1427.75146     364.9699     272.2483
   1427.73621     365.7154     273.0022   1427.73621     365.7154     273.0022
   1427.72095     366.5518     274.0385   1427.72095     366.5518     274.0385
   1427.70569     367.5939     275.4676   1427.70569     367.5939     275.4676
   1427.69043     368.2489     276.3675   1427.69043     368.2489     276.3675
   1427.67517     370.1282     277.4147   1427.67517     370.1282     277.4147
   1427.65991     370.5000     278.1024   1427.65991     370.5000     278.1024
   1427.64465     371.0550     279.8541   1427.64465     371.0550     279.8541
   1427.62939     372.9265     280.6788   1427.62939     372.9265     280.6788
   1427.61414     373.7287     282.0201   1427.61414     373.7287     282.0201
   1427.59888     375.0498     282.5546   1427.59888     375.0498     282.5546
   1427.58362     376.4343     284.7479   1427.58362     376.4343     284.7479
   1427.56836     378.1152     285.3651   1427.56836     378.1152     285.3651
   1427.55310     379.6014     287.0097   1427.55310     379.6014     287.0097
   1427.53784     381.2075     288.7489   1427.53784     381.2075     288.7489
   1427.52258     381.5443     290.4516   1427.52258     381.5443     290.4516
   1427.50732     384.2433     291.2343   1427.50732     384.2433     291.2343
   1427.49207     385.5659     293.0008   1427.49207     385.5659     293.0008
   1427.47681     387.1594     294.6009   1427.47681     387.1594     294.6009
   1427.46155     389.8918     296.4678   1427.46155     389.8918     296.4678
   1427.44629     390.7852     297.8981   1427.44629     390.7852     297.8981
   1427.43103     392.4740     299.1391   1427.43103     392.4740     299.1391
   1427.41577     393.9884     301.0304   1427.41577     393.9884     301.0304
   1427.40051     395.8019     302.7246   1427.40051     395.8019     302.7246
   1427.38525     398.0009     304.2416   1427.38525     398.0009     304.2416
   1427.37000     399.9102     306.6547   1427.37000     399.9102     306.6547
   1427.35474     401.7755     307.7361   1427.35474     401.7755     307.7361
   1427.33948     404.0552     310.0628   1427.33948     404.0552     310.0628
   1427.32422     406.5076     311.9836   1427.32422     406.5076     311.9836
   1427.30896     408.3024     314.0197   1427.30896     408.3024     314.0197
   1427.29370     410.4841     316.0534   1427.29370     410.4841     316.0534
   1427.27844     413.2269     317.7759   1427.27844     413.2269     317.7759
   1427.26318     414.7202     320.0565   1427.26318     414.7202     320.0565
   1427.24792     417.4798     322.3447   1427.24792     417.4798     322.3447
   1427.23267     419.3679     324.2956   1427.23267     419.3679     324.2956
   1427.21741     421.0472     326.2709   1427.21741     421.0472     326.2709
   1427.20215     424.4961     328.0928   1427.20215     424.4961     328.0928
   1427.18689     426.2328     330.6528   1427.18689     426.2328     330.6528
   1427.17163     428.7048     332.6934   1427.17163     428.7048     332.6934
   1427.15637     431.1973     335.4439   1427.15637     431.1973     335.4439
   1427.14111     433.5243     337.1882   1427.14111     433.5243     337.1882
   1427.12585     436.4855     339.4696   1427.12585     436.4855     339.4696
   1427.11060     439.1781     341.8182   1427.11060     439.1781     341.8182
   1427.09534     441.6356     344.3674   1427.09534     441.6356     344.3674
   1427.08008     444.3849     346.6568   1427.08008     444.3849     346.6568
   1427.06482     446.3308     348.7785   1427.06482     446.3308     348.7785
   1427.04956     448.7369     350.8087   1427.04956     448.7369     350.8087
   1427.03430     451.4038     353.4443   1427.03430     451.4038     353.4443
   1427.01904     454.5680     356.1598   1427.01904     454.5680     356.1598
   1427.00378     457.3544     357.7824   1427.00378     457.3544     357.7824
   1426.98853     460.2053     360.9567   1426.98853     460.2053     360.9567
   1426.97327     462.7345     363.5735   1426.97327     462.7345     363.5735
   1426.95801     465.4606     365.4959   1426.95801     465.4606     365.4959
   1426.94275     468.3751     368.1804   1426.94275     468.3751     368.1804
   1426.92749     471.4867     370.5280   1426.92749     471.4867     370.5280
   1426.91223     474.1158     372.7272   1426.91223     474.1158     372.7272
   1426.89697     476.4880     375.4447   1426.89697     476.4880     375.4447
   1426.88171     479.4956     378.5071   1426.88171     479.4956     378.5071
   1426.86646     482.7927     380.9127   1426.86646     482.7927     380.9127
   1426.85120     485.7255     383.1339   1426.85120     485.7255     383.1339
   1426.83594     488.8709     386.3959   1426.83594     488.8709     386.3959
   1426.82068     491.2373     388.7270   1426.82068     491.2373     388.7270
   1426.80542     494.8724     391.7546   1426.80542     494.8724     391.7546
   1426.79016     497.7890     393.6024   1426.79016     497.7890     393.6024
   1426.77490     500.1957     396.6743   1426.77490     500.1957     396.6743
   1426.75964     503.5662     399.4952   1426.75964     503.5662     399.4952
   1426.74438     505.8145     402.4333   1426.74438     505.8145     402.4333
   1426.72913     509.1173     404.8420   1426.72913     509.1173     404.8420
   1426.71387     511.2613     407.4060   1426.71387     511.2613     407.4060
   1426.69861     514.2104     410.1341   1426.69861     514.2104     410.1341
   1426.68335     517.2495     412.1285   1426.68335     517.2495     412.1285
   1426.66809     521.0494     414.8937   1426.66809     521.0494     414.8937
   1426.65283     523.8629     417.8737   1426.65283     523.8629     417.8737
   1426.63757     527.0724     419.9640   1426.63757     527.0724     419.9640
   1426.62231     531.0436     427.8880   1426.62231     531.0436     427.8880
   1426.60706     533.2987     425.4350   1426.60706     533.2987     425.4350
   1426.59180     535.6650     428.6707   1426.59180     535.6650     428.6707
   1426.57654     539.1599     431.8312   1426.57654     539.1599     431.8312
   1426.56128     541.7065     433.7586   1426.56128     541.7065     433.7586
   1426.54602     544.5524     436.5536   1426.54602     544.5524     436.5536
   1426.53076     548.0826     439.3519   1426.53076     548.0826     439.3519
   1426.51550     550.4534     441.3040   1426.51550     550.4534     441.3040
   1426.50024     553.1368     444.6706   1426.50024     553.1368     444.6706
   1426.48499     556.6445     447.5749   1426.48499     556.6445     447.5749
   1426.46973     558.4392     450.0402   1426.46973     558.4392     450.0402
   1426.45447     562.3547     452.4766   1426.45447     562.3547     452.4766
   1426.43921     565.6733     455.0765   1426.43921     565.6733     455.0765
   1426.42395     568.3741     457.3958   1426.42395     568.3741     457.3958
   1426.40869     570.6559     460.1100   1426.40869     570.6559     460.1100
   1426.39343     572.8596     463.4814   1426.39343     572.8596     463.4814
   1426.37817     576.3254     464.8614   1426.37817     576.3254     464.8614
   1426.36292     579.7402     467.9059   1426.36292     579.7402     467.9059
   1426.34766     581.7468     470.9974   1426.34766     581.7468     470.9974
   1426.33240     584.4668     473.4395   1426.33240     584.4668     473.4395
   1426.31714     587.7900     475.8619   1426.31714     587.7900     475.8619
   1426.30188     589.6782     478.5066   1426.30188     589.6782     478.5066
   1426.28662     593.4831     480.8727   1426.28662     593.4831     480.8727
   1426.27136     595.8547     483.6700   1426.27136     595.8547     483.6700
   1426.25610     598.6447     486.0910   1426.25610     598.6447     486.0910
   1426.24084     600.7394     489.0280   1426.24084     600.7394     489.0280
   1426.22559     603.2263     491.6376   1426.22559     603.2263     491.6376
   1426.21033     607.0666     493.7681   1426.21033     607.0666     493.7681
   1426.19507     609.6903     495.8271   1426.19507     609.6903     495.8271
   1426.17981     612.8016     498.0119   1426.17981     612.8016     498.0119
   1426.16455     614.3422     500.2186   1426.16455     614.3422     500.2186
   1426.14929     617.0743     502.7859   1426.14929     617.0743     502.7859
   1426.13403     618.9218     505.6918   1426.13403     618.9218     505.6918
   1426.11877     622.5505     507.5421   1426.11877     622.5505     507.5421
   1426.10352     625.1780     510.0384   1426.10352     625.1780     510.0384
   1426.08826     627.2520     512.8842   1426.08826     627.2520     512.8842
   1426.07300     629.6096     514.2812   1426.07300     629.6096     514.2812
   1426.05774     632.1604     516.9191   1426.05774     632.1604     516.9191
   1426.04248     633.3828     519.3705   1426.04248     633.3828     519.3705
   1426.02722     636.8266     522.6259   1426.02722     636.8266     522.6259
   1426.01196     639.2344     523.7050   1426.01196     639.2344     523.7050
   1425.99670     641.7185     526.6685   1425.99670     641.7185     526.6685
   1425.98145     643.2139     528.7598   1425.98145     643.2139     528.7598
   1425.96619     645.4791     530.2789   1425.96619     645.4791     530.2789
   1425.95093     646.9714     532.7812   1425.95093     646.9714     532.7812
   1425.93567     650.7493     533.9165   1425.93567     650.7493     533.9165
   1425.92041     651.7695     537.3453   1425.92041     651.7695     537.3453
   1425.90515     654.3602     539.1761   1425.90515     654.3602     539.1761
   1425.88989     657.2501     541.3704   1425.88989     657.2501     541.3704
   1425.87463     658.5028     543.5684   1425.87463     658.5028     543.5684
   1425.85938     661.0104     545.3553   1425.85938     661.0104     545.3553
   1425.84412     662.7687     547.1719   1425.84412     662.7687     547.1719
   1425.82886     665.4160     548.9542   1425.82886     665.4160     548.9542
   1425.81360     667.0465     551.2738   1425.81360     667.0465     551.2738
   1425.79834     668.5639     553.2874   1425.79834     668.5639     553.2874
   1425.78308     670.7611     556.0276   1425.78308     670.7611     556.0276
   1425.76782     672.1786     556.8007   1425.76782     672.1786     556.8007
   1425.75256     673.9922     558.3389   1425.75256     673.9922     558.3389
   1425.73730     676.4940     560.3467   1425.73730     676.4940     560.3467
   1425.72205     677.8462     562.9076   1425.72205     677.8462     562.9076
   1425.70679     679.1586     565.2477   1425.70679     679.1586     565.2477
   1425.69153     681.7650     567.2293   1425.69153     681.7650     567.2293
   1425.67627     683.1192     568.3665   1425.67627     683.1192     568.3665
   1425.66101     684.4938     570.1439   1425.66101     684.4938     570.1439
   1425.64575     686.4969     572.0383   1425.64575     686.4969     572.0383
   1425.63049     687.3078     572.9003   1425.63049     687.3078     572.9003
   1425.61523     689.5587     575.1255   1425.61523     689.5587     575.1255
   1425.59998     690.5482     576.2550   1425.59998     690.5482     576.2550
   1425.58472     692.7670     578.9583   1425.58472     692.7670     578.9583
   1425.56946     693.4439     580.2162   1425.56946     693.4439     580.2162
   1425.55420     695.4152     582.2020   1425.55420     695.4152     582.2020
   1425.53894     696.2641     582.5049   1425.53894     696.2641     582.5049
   1425.52368     698.1910     585.1364   1425.52368     698.1910     585.1364
   1425.50842     699.3533     586.4788   1425.50842     699.3533     586.4788
   1425.49316     699.8078     587.6687   1425.49316     699.8078     587.6687
   1425.47791     701.0634     588.9207   1425.47791     701.0634     588.9207
   1425.46265     701.4070     590.6915   1425.46265     701.4070     590.6915
   1425.44739     703.9579     591.6550   1425.44739     703.9579     591.6550
   1425.43213     705.1643     592.7906   1425.43213     705.1643     592.7906
   1425.41687     706.3243     596.7032   1425.41687     706.3243     596.7032
   1425.40161     708.1462     596.2741   1425.40161     708.1462     596.2741
   1425.38635     708.5991     598.0891   1425.38635     708.5991     598.0891
   1425.37109     708.5710     598.9961   1425.37109     708.5710     598.9961
   1425.35583     711.4188     600.1884   1425.35583     711.4188     600.1884
   1425.34058     711.6873     601.3511   1425.34058     711.6873     601.3511
   1425.32532     712.2603     602.2401   1425.32532     712.2603     602.2401
   1425.31006     714.7696     604.8848   1425.31006     714.7696     604.8848
   1425.29480     715.1946     603.6375   1425.29480     715.1946     603.6375
   1425.27954     715.0682     606.4348   1425.27954     715.0682     606.4348
   1425.26428     715.3477     606.8217   1425.26428     715.3477     606.8217
   1425.24902     716.2054     608.5397   1425.24902     716.2054     608.5397
   1425.23376     717.1426     608.2062   1425.23376     717.1426     608.2062
   1425.21851     719.0656     610.0488   1425.21851     719.0656     610.0488
   1425.20325     719.2555     612.1639   1425.20325     719.2555     612.1639
   1425.18799     720.3196     611.5543   1425.18799     720.3196     611.5543
   1425.17273     720.5189     613.6254   1425.17273     720.5189     613.6254
   1425.15747     721.8539     614.2969   1425.15747     721.8539     614.2969
   1425.14221     722.5682     614.9891   1425.14221     722.5682     614.9891
   1425.12695     723.5839     617.2269   1425.12695     723.5839     617.2269
   1425.11169     724.3809     616.8563   1425.11169     724.3809     616.8563
   1425.09644     725.3178     617.5472   1425.09644     725.3178     617.5472
   1425.08118     724.3617     618.6093   1425.08118     724.3617     618.6093
   1425.06592     726.0055     620.1047   1425.06592     726.0055     620.1047
   1425.05066     724.4409     620.2215   1425.05066     724.4409     620.2215
   1425.03540     726.1821     621.1035   1425.03540     726.1821     621.1035
   1425.02014     725.7563     622.4922   1425.02014     725.7563     622.4922
   1425.00488     728.0447     623.7415   1425.00488     728.0447     623.7415
   1424.98962     726.6766     622.6479   1424.98962     726.6766     622.6479
   1424.97437     727.9830     624.1931   1424.97437     727.9830     624.1931
   1424.95911     727.7234     624.2174   1424.95911     727.7234     624.2174
   1424.94385     729.8822     624.8087   1424.94385     729.8822     624.8087
   1424.92859     729.4360     625.9730   1424.92859     729.4360     625.9730
   1424.91333     729.6094     626.7019   1424.91333     729.6094     626.7019
   1424.89807     730.2398     626.5393   1424.89807     730.2398     626.5393
   1424.88281     730.1913     628.3774   1424.88281     730.1913     628.3774
   1424.86755     730.1368     627.9224   1424.86755     730.1368     627.9224
   1424.85229     731.5735     629.5909   1424.85229     731.5735     629.5909
   1424.83704     730.6411     629.4604   1424.83704     730.6411     629.4604
   1424.82178     730.7444     628.8954   1424.82178     730.7444     628.8954
   1424.80652     730.4883     629.8495   1424.80652     730.4883     629.8495
   1424.79126     730.8995     630.7570   1424.79126     730.8995     630.7570
   1424.77600     731.4058     631.5057   1424.77600     731.4058     631.5057
   1424.76074     731.5397     631.7177   1424.76074     731.5397     631.7177
   1424.74548     732.1626     630.1871   1424.74548     732.1626     630.1871
   1424.73022     731.5220     631.6088   1424.73022     731.5220     631.6088
   1424.71497     730.9774     632.2026   1424.71497     730.9774     632.2026
   1424.69971     731.5659     633.0405   1424.69971     731.5659     633.0405
   1424.68445     732.4684     633.3115   1424.68445     732.4684     633.3115
   1424.66919     731.2706     633.2720   1424.66919     731.2706     633.2720
   1424.65393     731.7997     633.5667   1424.65393     731.7997     633.5667
   1424.63867     731.7863     633.1066   1424.63867     731.7863     633.1066
   1424.62341     731.4581     633.7991   1424.62341     731.4581     633.7991
   1424.60815     731.0320     633.7271   1424.60815     731.0320     633.7271
   1424.59290     732.2665     634.6898   1424.59290     732.2665     634.6898
   1424.57764     731.2838     635.0244   1424.57764     731.2838     635.0244
   1424.56238     731.4136     634.2017   1424.56238     731.4136     634.2017
   1424.54712     731.2116     634.5157   1424.54712     731.2116     634.5157
   1424.53186     730.8929     634.2230   1424.53186     730.8929     634.2230
   1424.51660     731.2059     635.8956   1424.51660     731.2059     635.8956
   1424.50134     730.8417     635.3499   1424.50134     730.8417     635.3499
   1424.48608     732.3195     635.2820   1424.48608     732.3195     635.2820
   1424.47083     730.9065     634.8343   1424.47083     730.9065     634.8343
   1424.45557     732.2013     635.7396   1424.45557     732.2013     635.7396
   1424.44031     730.8340     634.7925   1424.44031     730.8340     634.7925
   1424.42505     729.5129     635.6149   1424.42505     729.5129     635.6149
   1424.40979     731.8511     635.8069   1424.40979     731.8511     635.8069
   1424.39453     730.3110     635.4712   1424.39453     730.3110     635.4712
   1424.37927     729.2531     634.4916   1424.37927     729.2531     634.4916
   1424.36401     728.7882     635.1235   1424.36401     728.7882     635.1235
   1424.34875     730.4542     633.7610   1424.34875     730.4542     633.7610
   1424.33350     729.6482     635.0066   1424.33350     729.6482     635.0066
   1424.31824     728.7605     634.3257   1424.31824     728.7605     634.3257
   1424.30298     728.3759     634.7285   1424.30298     728.3759     634.7285
   1424.28772     729.3460     635.0497   1424.28772     729.3460     635.0497
   1424.27246     728.7718     634.7101   1424.27246     728.7718     634.7101
   1424.25720     727.9679     634.8220   1424.25720     727.9679     634.8220
   1424.24194     727.1440     633.9822   1424.24194     727.1440     633.9822
   1424.22668     727.5661     633.5646   1424.22668     727.5661     633.5646
   1424.21143     727.2713     633.2888   1424.21143     727.2713     633.2888
   1424.19617     725.8740     634.2936   1424.19617     725.8740     634.2936
   1424.18091     727.3852     633.5532   1424.18091     727.3852     633.5532
   1424.16565     725.8484     633.3590   1424.16565     725.8484     633.3590
   1424.15039     725.1782     633.2753   1424.15039     725.1782     633.2753
   1424.13513     725.8104     633.5313   1424.13513     725.8104     633.5313
   1424.11987     725.7090     632.5071   1424.11987     725.7090     632.5071
   1424.10461     724.6260     631.1142   1424.10461     724.6260     631.1142
   1424.08936     724.4740     631.9355   1424.08936     724.4740     631.9355
   1424.07410     724.9656     630.9532   1424.07410     724.9656     630.9532
   1424.05884     724.3269     631.4767   1424.05884     724.3269     631.4767
   1424.04358     723.4177     631.3021   1424.04358     723.4177     631.3021
   1424.02832     722.7230     629.8062   1424.02832     722.7230     629.8062
   1424.01306     723.3593     629.0513   1424.01306     723.3593     629.0513
   1423.99780     722.2135     628.7647   1423.99780     722.2135     628.7647
   1423.98254     722.7454     628.6848   1423.98254     722.7454     628.6848
   1423.96729     722.3281     628.5742   1423.96729     722.3281     628.5742
   1423.95203     721.5153     628.9246   1423.95203     721.5153     628.9246
   1423.93677     721.4514     627.9221   1423.93677     721.4514     627.9221
   1423.92151     719.8415     627.5119   1423.92151     719.8415     627.5119
   1423.90625     721.1727     626.5605   1423.90625     721.1727     626.5605
   1423.89099     719.3920     626.9341   1423.89099     719.3920     626.9341
   1423.87573     719.3003     626.8267   1423.87573     719.3003     626.8267
   1423.86047     720.1934     624.9310   1423.86047     720.1934     624.9310
   1423.84521     718.9496     625.1586   1423.84521     718.9496     625.1586
   1423.82996     719.0977     624.8944   1423.82996     719.0977     624.8944
   1423.81470     717.7547     623.3878   1423.81470     717.7547     623.3878
   1423.79944     717.2227     624.2382   1423.79944     717.2227     624.2382
   1423.78418     717.0491     623.2235   1423.78418     717.0491     623.2235
   1423.76892     716.4262     621.7643   1423.76892     716.4262     621.7643
   1423.75366     716.2131     622.0184   1423.75366     716.2131     622.0184
   1423.73840     715.6625     621.5620   1423.73840     715.6625     621.5620
   1423.72314     715.9989     620.8690   1423.72314     715.9989     620.8690
   1423.70789     715.2431     619.8820   1423.70789     715.2431     619.8820
   1423.69263     714.9438     619.4921   1423.69263     714.9438     619.4921
   1423.67737     714.7377     619.9740   1423.67737     714.7377     619.9740
   1423.66211     714.9048     618.8728   1423.66211     714.9048     618.8728
   1423.64685     714.1633     618.6413   1423.64685     714.1633     618.6413
   1423.63159     713.5947     616.7941   1423.63159     713.5947     616.7941
   1423.61633     711.5460     616.9484   1423.61633     711.5460     616.9484
   1423.60107     711.8007     615.6786   1423.60107     711.8007     615.6786
   1423.58582     712.0007     615.3512   1423.58582     712.0007     615.3512
   1423.57056     712.2510     615.9442   1423.57056     712.2510     615.9442
   1423.55530     711.5878     614.0302   1423.55530     711.5878     614.0302
   1423.54004     711.7094     614.0851   1423.54004     711.7094     614.0851
   1423.52478     710.1372     613.0250   1423.52478     710.1372     613.0250
   1423.50952     710.1356     612.9293   1423.50952     710.1356     612.9293
   1423.49426     710.4628     611.7981   1423.49426     710.4628     611.7981
   1423.47900     709.6664     610.9730   1423.47900     709.6664     610.9730
   1423.46375     709.5840     610.2059   1423.46375     709.5840     610.2059
   1423.44849     709.2368     609.8576   1423.44849     709.2368     609.8576
   1423.43323     707.9667     608.3075   1423.43323     707.9667     608.3075
   1423.41797     708.1481     607.4474   1423.41797     708.1481     607.4474
   1423.40271     707.6482     607.2193   1423.40271     707.6482     607.2193
   1423.38745     707.6080     607.6749   1423.38745     707.6080     607.6749
   1423.37219     707.8882     606.4188   1423.37219     707.8882     606.4188
   1423.35693     706.9532     605.3917   1423.35693     706.9532     605.3917
   1423.34167     707.5464     604.9608   1423.34167     707.5464     604.9608
   1423.32642     706.0318     603.6489   1423.32642     706.0318     603.6489
   1423.31116     706.3725     604.2470   1423.31116     706.3725     604.2470
   1423.29590     705.0371     601.8287   1423.29590     705.0371     601.8287
   1423.28064     704.9382     601.0401   1423.28064     704.9382     601.0401
   1423.26538     705.7368     600.7848   1423.26538     705.7368     600.7848
   1423.25012     703.5643     599.5698   1423.25012     703.5643     599.5698
   1423.23486     704.0798     599.3500   1423.23486     704.0798     599.3500
   1423.21960     704.5906     598.6326   1423.21960     704.5906     598.6326
   1423.20435     703.3154     598.3104   1423.20435     703.3154     598.3104
   1423.18909     703.7478     597.5375   1423.18909     703.7478     597.5375
   1423.17383     703.1933     596.0495   1423.17383     703.1933     596.0495
   1423.15857     701.2894     595.6170   1423.15857     701.2894     595.6170
   1423.14331     701.8929     594.6986   1423.14331     701.8929     594.6986
   1423.12805     700.5538     593.3712   1423.12805     700.5538     593.3712
   1423.11279     702.2667     593.9376   1423.11279     702.2667     593.9376
   1423.09753     700.9099     591.7021   1423.09753     700.9099     591.7021
   1423.08228     700.0286     590.6966   1423.08228     700.0286     590.6966
   1423.06702     700.5293     590.0066   1423.06702     700.5293     590.0066
   1423.05176     699.4125     589.8275   1423.05176     699.4125     589.8275
   1423.03650     699.9464     589.5555   1423.03650     699.9464     589.5555
   1423.02124     698.1909     588.0424   1423.02124     698.1909     588.0424
   1423.00598     697.0259     587.2255   1423.00598     697.0259     587.2255
   1422.99072     697.6974     585.6733   1422.99072     697.6974     585.6733
   1422.97546     697.9527     585.1437   1422.97546     697.9527     585.1437
   1422.96021     697.8162     585.1060   1422.96021     697.8162     585.1060
   1422.94495     697.1073     584.7369   1422.94495     697.1073     584.7369
   1422.92969     697.8230     583.7800   1422.92969     697.8230     583.7800
   1422.91443     697.0073     582.0885   1422.91443     697.0073     582.0885
   1422.89917     695.9956     580.7576   1422.89917     695.9956     580.7576
   1422.88391     695.9921     580.4958   1422.88391     695.9921     580.4958
   1422.86865     695.5578     579.8384   1422.86865     695.5578     579.8384
   1422.85339     696.0284     580.0416   1422.85339     696.0284     580.0416
   1422.83813     695.4963     578.2718   1422.83813     695.4963     578.2718
   1422.82288     694.0804     577.4888   1422.82288     694.0804     577.4888
   1422.80762     694.9859     576.4367   1422.80762     694.9859     576.4367
   1422.79236     693.9317     576.2014   1422.79236     693.9317     576.2014
   1422.77710     695.1790     574.6227   1422.77710     695.1790     574.6227
   1422.76184     693.4781     573.2164   1422.76184     693.4781     573.2164
   1422.74658     693.6483     573.0825   1422.74658     693.6483     573.0825
   1422.73132     693.6494     572.8612   1422.73132     693.6494     572.8612
   1422.71606     693.3497     571.6924   1422.71606     693.3497     571.6924
   1422.70081     693.1870     570.4227   1422.70081     693.1870     570.4227
   1422.68555     692.1500     570.2140   1422.68555     692.1500     570.2140
   1422.67029     692.7422     567.8995   1422.67029     692.7422     567.8995
   1422.65503     692.8848     567.9679   1422.65503     692.8848     567.9679
   1422.63977     692.6705     566.8730   1422.63977     692.6705     566.8730
   1422.62451     692.3916     565.8452   1422.62451     692.3916     565.8452
   1422.60925     691.5708     564.5012   1422.60925     691.5708     564.5012
   1422.59399     691.0480     563.0112   1422.59399     691.0480     563.0112
   1422.57874     690.7274     562.6025   1422.57874     690.7274     562.6025
   1422.56348     689.0167     560.9936   1422.56348     689.0167     560.9936
   1422.54822     691.3078     560.0723   1422.54822     691.3078     560.0723
   1422.53296     689.4571     560.6629   1422.53296     689.4571     560.6629
   1422.51770     689.6825     559.3162   1422.51770     689.6825     559.3162
   1422.50244     689.8618     557.5468   1422.50244     689.8618     557.5468
   1422.48718     688.9192     557.6797   1422.48718     688.9192     557.6797
   1422.47192     689.1564     556.6415   1422.47192     689.1564     556.6415
   1422.45667     690.0808     555.6146   1422.45667     690.0808     555.6146
   1422.44141     688.7177     555.0001   1422.44141     688.7177     555.0001
   1422.42615     689.2492     554.1272   1422.42615     689.2492     554.1272
   1422.41089     688.3753     553.0302   1422.41089     688.3753     553.0302
   1422.39563     688.6766     550.9683   1422.39563     688.6766     550.9683
   1422.38037     687.8978     550.7623   1422.38037     687.8978     550.7623
   1422.36511     687.2761     549.8083   1422.36511     687.2761     549.8083
   1422.34985     688.3770     549.9405   1422.34985     688.3770     549.9405
   1422.33459     687.4412     548.4234   1422.33459     687.4412     548.4234
   1422.31934     686.8705     547.5153   1422.31934     686.8705     547.5153
   1422.30408     687.0906     546.8804   1422.30408     687.0906     546.8804
   1422.28882     686.6853     545.0612   1422.28882     686.6853     545.0612
   1422.27356     686.8891     544.2260   1422.27356     686.8891     544.2260
   1422.25830     686.4542     542.3250   1422.25830     686.4542     542.3250
   1422.24304     686.4482     543.5054   1422.24304     686.4482     543.5054
   1422.22778     685.5380     541.9905   1422.22778     685.5380     541.9905
   1422.21252     684.7796     540.6823   1422.21252     684.7796     540.6823
   1422.19727     684.9452     540.0857   1422.19727     684.9452     540.0857
   1422.18201     684.5202     538.5305   1422.18201     684.5202     538.5305
   1422.16675     684.7332     537.0214   1422.16675     684.7332     537.0214
   1422.15149     685.7560     536.9466   1422.15149     685.7560     536.9466
   1422.13623     684.6457     535.8707   1422.13623     684.6457     535.8707
   1422.12097     684.9885     535.0151   1422.12097     684.9885     535.0151
   1422.10571     683.8268     534.2433   1422.10571     683.8268     534.2433
   1422.09045     683.9056     532.6462   1422.09045     683.9056     532.6462
   1422.07520     682.2453     530.9883   1422.07520     682.2453     530.9883
   1422.05994     684.0201     530.5571   1422.05994     684.0201     530.5571
   1422.04468     684.2170     530.3284   1422.04468     684.2170     530.3284
   1422.02942     683.3826     528.6701   1422.02942     683.3826     528.6701
   1422.01416     682.8896     527.7609   1422.01416     682.8896     527.7609
   1421.99890     683.2180     527.3031   1421.99890     683.2180     527.3031
   1421.98364     683.2690     526.5687   1421.98364     683.2690     526.5687
   1421.96838     682.8239     525.1602   1421.96838     682.8239     525.1602
   1421.95312     682.9276     524.4149   1421.95312     682.9276     524.4149
   1421.93787     682.1280     522.9841   1421.93787     682.1280     522.9841
   1421.92261     681.3671     522.2196   1421.92261     681.3671     522.2196
   1421.90735     681.1110     521.4766   1421.90735     681.1110     521.4766
   1421.89209     681.3503     520.4730   1421.89209     681.3503     520.4730
   1421.87683     681.8447     519.4104   1421.87683     681.8447     519.4104
   1421.86157     681.2036     518.2784   1421.86157     681.2036     518.2784
   1421.84631     681.3300     517.0043   1421.84631     681.3300     517.0043
   1421.83105     681.1071     516.5848   1421.83105     681.1071     516.5848
   1421.81580     679.3738     515.0639   1421.81580     679.3738     515.0639
   1421.80054     680.6855     515.0040   1421.80054     680.6855     515.0040
   1421.78528     679.7466     513.1867   1421.78528     679.7466     513.1867
   1421.77002     680.3585     512.9371   1421.77002     680.3585     512.9371
   1421.75476     678.5090     511.4205   1421.75476     678.5090     511.4205
   1421.73950     678.7208     510.2176   1421.73950     678.7208     510.2176
   1421.72424     679.4840     509.7734   1421.72424     679.4840     509.7734
   1421.70898     679.6688     508.5266   1421.70898     679.6688     508.5266
   1421.69373     678.2046     507.4221   1421.69373     678.2046     507.4221
   1421.67847     678.9647     505.8312   1421.67847     678.9647     505.8312
   1421.66321     677.7361     505.7048   1421.66321     677.7361     505.7048
   1421.64795     678.7215     504.4083   1421.64795     678.7215     504.4083
   1421.63269     678.3735     503.8026   1421.63269     678.3735     503.8026
   1421.61743     677.5257     501.8180   1421.61743     677.5257     501.8180
   1421.60217     677.1277     501.7330   1421.60217     677.1277     501.7330
   1421.58691     677.1877     501.0919   1421.58691     677.1877     501.0919
   1421.57166     676.4386     498.8973   1421.57166     676.4386     498.8973
   1421.55640     676.6445     498.1601   1421.55640     676.6445     498.1601
   1421.54114     676.6949     497.8952   1421.54114     676.6949     497.8952
   1421.52588     675.7097     497.4682   1421.52588     675.7097     497.4682
   1421.51062     677.1500     495.9293   1421.51062     677.1500     495.9293
   1421.49536     676.8671     494.7766   1421.49536     676.8671     494.7766
   1421.48010     674.8801     492.9604   1421.48010     674.8801     492.9604
   1421.46484     675.4781     493.3400   1421.46484     675.4781     493.3400
   1421.44958     676.0033     491.4416   1421.44958     676.0033     491.4416
   1421.43433     675.1869     490.7327   1421.43433     675.1869     490.7327
   1421.41907     673.8045     490.6265   1421.41907     673.8045     490.6265
   1421.40381     674.7433     489.5529   1421.40381     674.7433     489.5529
   1421.38855     674.3981     488.4615   1421.38855     674.3981     488.4615
   1421.37329     674.1245     487.9348   1421.37329     674.1245     487.9348
   1421.35803     674.3227     486.0667   1421.35803     674.3227     486.0667
   1421.34277     674.3511     485.6866   1421.34277     674.3511     485.6866
   1421.32751     673.5039     484.1654   1421.32751     673.5039     484.1654
   1421.31226     673.4159     483.3249   1421.31226     673.4159     483.3249
   1421.29700     672.8760     482.6280   1421.29700     672.8760     482.6280
   1421.28174     672.2474     481.8453   1421.28174     672.2474     481.8453
   1421.26648     672.6275     480.3754   1421.26648     672.6275     480.3754
   1421.25122     672.7913     479.6280   1421.25122     672.7913     479.6280
   1421.23596     671.3787     477.5664   1421.23596     671.3787     477.5664
   1421.22070     671.9269     477.0824   1421.22070     671.9269     477.0824
   1421.20544     671.1832     476.8528   1421.20544     671.1832     476.8528
   1421.19019     671.8897     475.3446   1421.19019     671.8897     475.3446
   1421.17493     670.8026     474.5613   1421.17493     670.8026     474.5613
   1421.15967     671.3846     473.0008   1421.15967     671.3846     473.0008
   1421.14441     670.8065     472.2567   1421.14441     670.8065     472.2567
   1421.12915     669.9546     471.9381   1421.12915     669.9546     471.9381
   1421.11389     670.6875     471.0093   1421.11389     670.6875     471.0093
   1421.09863     668.6156     469.9786   1421.09863     668.6156     469.9786
   1421.08337     670.3732     468.2253   1421.08337     670.3732     468.2253
   1421.06812     668.8214     467.1849   1421.06812     668.8214     467.1849
   1421.05286     668.8141     466.8016   1421.05286     668.8141     466.8016
   1421.03760     669.3835     465.6535   1421.03760     669.3835     465.6535
   1421.02234     668.9669     465.0918   1421.02234     668.9669     465.0918
   1421.00708     668.5351     463.8619   1421.00708     668.5351     463.8619
   1420.99182     667.6505     463.5808   1420.99182     667.6505     463.5808
   1420.97656     667.9722     462.4437   1420.97656     667.9722     462.4437
   1420.96130     666.9984     461.5013   1420.96130     666.9984     461.5013
   1420.94604     668.7495     459.9981   1420.94604     668.7495     459.9981
   1420.93079     668.1481     459.8818   1420.93079     668.1481     459.8818
   1420.91553     667.3627     459.3413   1420.91553     667.3627     459.3413
   1420.90027     667.1413     457.5151   1420.90027     667.1413     457.5151
   1420.88501     667.0458     456.3193   1420.88501     667.0458     456.3193
   1420.86975     667.3327     456.7447   1420.86975     667.3327     456.7447
   1420.85449     666.0475     454.7929   1420.85449     666.0475     454.7929
   1420.83923     668.1964     454.4893   1420.83923     668.1964     454.4893
   1420.82397     667.0370     453.6266   1420.82397     667.0370     453.6266
   1420.80872     665.8826     452.7299   1420.80872     665.8826     452.7299
   1420.79346     665.0527     452.2016   1420.79346     665.0527     452.2016
   1420.77820     666.3049     450.9999   1420.77820     666.3049     450.9999
   1420.76294     666.2170     450.6520   1420.76294     666.2170     450.6520
   1420.74768     665.8176     449.4261   1420.74768     665.8176     449.4261
   1420.73242     666.2634     449.1073   1420.73242     666.2634     449.1073
   1420.71716     666.2068     447.9456   1420.71716     666.2068     447.9456
   1420.70190     665.3206     447.3508   1420.70190     665.3206     447.3508
   1420.68665     666.3885     446.1992   1420.68665     666.3885     446.1992
   1420.67139     665.7970     445.7123   1420.67139     665.7970     445.7123
   1420.65613     665.5864     445.7530   1420.65613     665.5864     445.7530
   1420.64087     665.3940     443.8580   1420.64087     665.3940     443.8580
   1420.62561     666.0141     443.9597   1420.62561     666.0141     443.9597
   1420.61035     665.7432     443.9775   1420.61035     665.7432     443.9775
   1420.59509     665.5554     442.5008   1420.59509     665.5554     442.5008
   1420.57983     666.1861     442.2107   1420.57983     666.1861     442.2107
   1420.56458     667.1104     441.8784   1420.56458     667.1104     441.8784
   1420.54932     667.7927     441.8609   1420.54932     667.7927     441.8609
   1420.53406     667.9736     441.4340   1420.53406     667.9736     441.4340
   1420.51880     668.6304     442.0186   1420.51880     668.6304     442.0186
   1420.50354     668.5746     441.3838   1420.50354     668.5746     441.3838
   1420.48828     669.5429     440.1774   1420.48828     669.5429     440.1774
   1420.47302     668.7939     439.3621   1420.47302     668.7939     439.3621
   1420.45776     669.3241     439.2094   1420.45776     669.3241     439.2094
   1420.44250     668.8417     437.7357   1420.44250     668.8417     437.7357
   1420.42725     668.5886     438.4511   1420.42725     668.5886     438.4511
   1420.41199     670.0259     438.3811   1420.41199     670.0259     438.3811
   1420.39673     670.4747     437.4500   1420.39673     670.4747     437.4500
   1420.38147     672.2718     438.4399   1420.38147     672.2718     438.4399
   1420.36621     674.2732     439.4213   1420.36621     674.2732     439.4213
   1420.35095     678.9973     440.4219   1420.35095     678.9973     440.4219
   1420.33569     686.0020     445.7621   1420.33569     686.0020     445.7621
   1420.32043     701.6018     454.4075   1420.32043     701.6018     454.4075
   1420.30518     731.0864     470.8118   1420.30518     731.0864     470.8118
   1420.28992     776.9382     498.8000   1420.28992     776.9382     498.8000
   1420.27466     865.0656     551.8635   1420.27466     865.0656     551.8635
   1420.25940    1010.0074     642.6743   1420.25940    1010.0074     642.6743
   1420.24414    1217.1888     770.4237   1420.24414    1217.1888     770.4237
   1420.22888    1494.0989     940.1212   1420.22888    1494.0989     940.1212
   1420.21362    1666.4203    1046.4083   1420.21362    1666.4203    1046.4083
   1420.19836    1845.1523    1155.2604   1420.19836    1845.1523    1155.2604
   1420.18311    1791.1885    1122.1029   1420.18311    1791.1885    1122.1029
   1420.16785    1845.5508    1152.1150   1420.16785    1845.5508    1152.1150
   1420.15259    2072.3076    1288.4268   1420.15259    2072.3076    1288.4268
   1420.13733    2038.8577    1264.9235   1420.13733    2038.8577    1264.9235
   1420.12207    2072.7356    1288.1650   1420.12207    2072.7356    1288.1650
   1420.10681    2108.7949    1309.7983   1420.10681    2108.7949    1309.7983
   1420.09155    1753.8138    1090.8899   1420.09155    1753.8138    1090.8899
   1420.07629    1411.1866     879.9330   1420.07629    1411.1866     879.9330
   1420.06104    1213.8262     757.2838   1420.06104    1213.8262     757.2838
   1420.04578    1063.9885     665.3388   1420.04578    1063.9885     665.3388
   1420.03052     928.6063     582.8755   1420.03052     928.6063     582.8755
   1420.01526     819.4865     517.3481   1420.01526     819.4865     517.3481
   1420.00000     764.3907     483.7195   1420.00000     764.3907     483.7195
   1419.98474     709.2951     450.0909   1419.98474     709.2951     450.0909
   1419.96948     686.4741     434.6492   1419.96948     686.4741     434.6492
   1419.95422     675.1743     425.9856   1419.95422     675.1743     425.9856
   1419.93896     669.5252     421.5233   1419.93896     669.5252     421.5233
   1419.92371     664.6011     419.5860   1419.92371     664.6011     419.5860
   1419.90845     662.9935     417.4924   1419.90845     662.9935     417.4924
   1419.89319     660.9578     416.2409   1419.89319     660.9578     416.2409
   1419.87793     660.3851     414.3878   1419.87793     660.3851     414.3878
   1419.86267     659.1791     413.8089   1419.86267     659.1791     413.8089
   1419.84741     659.2221     413.4148   1419.84741     659.2221     413.4148
   1419.83215     658.2811     412.0295   1419.83215     658.2811     412.0295
   1419.81689     657.0101     412.5234   1419.81689     657.0101     412.5234
   1419.80164     657.7097     411.2519   1419.80164     657.7097     411.2519
   1419.78638     657.8447     411.4834   1419.78638     657.8447     411.4834
   1419.77112     657.8005     410.5735   1419.77112     657.8005     410.5735
   1419.75586     657.7744     409.5908   1419.75586     657.7744     409.5908
   1419.74060     656.8609     409.5626   1419.74060     656.8609     409.5626
   1419.72534     657.1045     409.0950   1419.72534     657.1045     409.0950
   1419.71008     657.1576     409.0712   1419.71008     657.1576     409.0712
   1419.69482     658.0301     409.4860   1419.69482     658.0301     409.4860
   1419.67957     657.4182     408.0858   1419.67957     657.4182     408.0858
   1419.66431     657.0754     408.3987   1419.66431     657.0754     408.3987
   1419.64905     657.1566     407.7320   1419.64905     657.1566     407.7320
   1419.63379     658.8821     407.6310   1419.63379     658.8821     407.6310
   1419.61853     658.1185     408.1520   1419.61853     658.1185     408.1520
   1419.60327     658.8886     407.4091   1419.60327     658.8886     407.4091
   1419.58801     657.4565     407.6360   1419.58801     657.4565     407.6360
   1419.57275     657.8063     407.4418   1419.57275     657.8063     407.4418
   1419.55750     658.9943     407.2170   1419.55750     658.9943     407.2170
   1419.54224     658.1592     407.0956   1419.54224     658.1592     407.0956
   1419.52698     659.4717     406.1954   1419.52698     659.4717     406.1954
   1419.51172     658.6272     407.3484   1419.51172     658.6272     407.3484
   1419.49646     660.3634     406.7758   1419.49646     660.3634     406.7758
   1419.48120     660.4496     406.7019   1419.48120     660.4496     406.7019
   1419.46594     660.4813     406.6250   1419.46594     660.4813     406.6250
   1419.45068     660.7831     407.3113   1419.45068     660.7831     407.3113
   1419.43542     660.9335     406.4580   1419.43542     660.9335     406.4580
   1419.42017     660.7126     406.2826   1419.42017     660.7126     406.2826
   1419.40491     660.9304     406.5081   1419.40491     660.9304     406.5081
   1419.38965     661.1536     406.6304   1419.38965     661.1536     406.6304
   1419.37439     661.7241     406.1662   1419.37439     661.7241     406.1662
   1419.35913     662.2076     406.6297   1419.35913     662.2076     406.6297
   1419.34387     662.2275     407.0823   1419.34387     662.2275     407.0823
   1419.32861     663.1960     406.7541   1419.32861     663.1960     406.7541
   1419.31335     663.4876     406.6621   1419.31335     663.4876     406.6621
   1419.29810     662.2557     407.4818   1419.29810     662.2557     407.4818
   1419.28284     664.0925     406.7237   1419.28284     664.0925     406.7237
   1419.26758     664.5574     407.0927   1419.26758     664.5574     407.0927
   1419.25232     664.9579     406.7131   1419.25232     664.9579     406.7131
   1419.23706     664.4453     407.5393   1419.23706     664.4453     407.5393
   1419.22180     665.6522     407.3260   1419.22180     665.6522     407.3260
   1419.20654     665.9264     407.7842   1419.20654     665.9264     407.7842
   1419.19128     666.0190     407.7190   1419.19128     666.0190     407.7190
   1419.17603     665.8799     407.6119   1419.17603     665.8799     407.6119
   1419.16077     666.4890     407.5328   1419.16077     666.4890     407.5328
   1419.14551     666.5449     408.1227   1419.14551     666.5449     408.1227
   1419.13025     667.1280     407.3045   1419.13025     667.1280     407.3045
   1419.11499     667.8168     408.6234   1419.11499     667.8168     408.6234
   1419.09973     668.9582     409.0427   1419.09973     668.9582     409.0427
   1419.08447     668.7048     409.8059   1419.08447     668.7048     409.8059
   1419.06921     669.9224     409.2019   1419.06921     669.9224     409.2019
   1419.05396     669.5139     408.7962   1419.05396     669.5139     408.7962
   1419.03870     671.4607     410.5994   1419.03870     671.4607     410.5994
   1419.02344     671.9931     410.5232   1419.02344     671.9931     410.5232
   1419.00818     670.6846     410.3244   1419.00818     670.6846     410.3244
   1418.99292     671.6888     410.4312   1418.99292     671.6888     410.4312
   1418.97766     673.7534     411.2970   1418.97766     673.7534     411.2970
   1418.96240     672.4033     410.8336   1418.96240     672.4033     410.8336
   1418.94714     674.0204     411.2891   1418.94714     674.0204     411.2891
   1418.93188     674.4483     412.3131   1418.93188     674.4483     412.3131
   1418.91663     675.4678     413.2897   1418.91663     675.4678     413.2897
   1418.90137     675.5535     412.6781   1418.90137     675.5535     412.6781
   1418.88611     675.0866     413.0184   1418.88611     675.0866     413.0184
   1418.87085     676.7527     413.4505   1418.87085     676.7527     413.4505
   1418.85559     677.4885     414.0263   1418.85559     677.4885     414.0263
   1418.84033     677.1481     414.5314   1418.84033     677.1481     414.5314
   1418.82507     677.3700     415.0152   1418.82507     677.3700     415.0152
   1418.80981     678.8276     415.0085   1418.80981     678.8276     415.0085
   1418.79456     678.8434     416.0201   1418.79456     678.8434     416.0201
   1418.77930     679.5250     416.3975   1418.77930     679.5250     416.3975
   1418.76404     680.0987     417.3006   1418.76404     680.0987     417.3006
   1418.74878     679.5994     417.2200   1418.74878     679.5994     417.2200
   1418.73352     681.7410     417.8578   1418.73352     681.7410     417.8578
   1418.71826     682.7913     418.5134   1418.71826     682.7913     418.5134
   1418.70300     682.9225     419.0321   1418.70300     682.9225     419.0321
   1418.68774     682.8106     419.2906   1418.68774     682.8106     419.2906
   1418.67249     684.5790     419.8668   1418.67249     684.5790     419.8668
   1418.65723     685.4620     420.3770   1418.65723     685.4620     420.3770
   1418.64197     685.6891     421.3938   1418.64197     685.6891     421.3938
   1418.62671     686.3780     421.7350   1418.62671     686.3780     421.7350
   1418.61145     687.1521     422.2225   1418.61145     687.1521     422.2225
   1418.59619     688.3963     423.4483   1418.59619     688.3963     423.4483
   1418.58093     687.9912     423.8383   1418.58093     687.9912     423.8383
   1418.56567     688.5443     424.1584   1418.56567     688.5443     424.1584
   1418.55042     689.2612     424.5858   1418.55042     689.2612     424.5858
   1418.53516     689.8724     424.8731   1418.53516     689.8724     424.8731
   1418.51990     691.7948     426.0746   1418.51990     691.7948     426.0746
   1418.50464     691.1537     426.8535   1418.50464     691.1537     426.8535
   1418.48938     691.9976     427.2695   1418.48938     691.9976     427.2695
   1418.47412     692.0027     427.8512   1418.47412     692.0027     427.8512
   1418.45886     693.1613     429.7718   1418.45886     693.1613     429.7718
   1418.44360     694.0915     430.0565   1418.44360     694.0915     430.0565
   1418.42834     694.7360     429.9317   1418.42834     694.7360     429.9317
   1418.41309     696.3403     431.1414   1418.41309     696.3403     431.1414
   1418.39783     696.4251     431.4417   1418.39783     696.4251     431.4417
   1418.38257     696.7294     433.1324   1418.38257     696.7294     433.1324
   1418.36731     698.1349     433.3667   1418.36731     698.1349     433.3667
   1418.35205     698.6917     433.8244   1418.35205     698.6917     433.8244
   1418.33679     699.9988     435.5921   1418.33679     699.9988     435.5921
   1418.32153     700.9039     436.2400   1418.32153     700.9039     436.2400
   1418.30627     700.3693     437.0044   1418.30627     700.3693     437.0044
   1418.29102     701.7892     438.3966   1418.29102     701.7892     438.3966
   1418.27576     702.7534     438.7357   1418.27576     702.7534     438.7357
   1418.26050     703.4984     438.7745   1418.26050     703.4984     438.7745
   1418.24524     704.1394     440.6609   1418.24524     704.1394     440.6609
   1418.22998     704.6268     441.1949   1418.22998     704.6268     441.1949
   1418.21472     706.1524     442.4079   1418.21472     706.1524     442.4079
   1418.19946     707.0891     442.8918   1418.19946     707.0891     442.8918
   1418.18420     708.1840     443.7309   1418.18420     708.1840     443.7309
   1418.16895     708.9053     444.6235   1418.16895     708.9053     444.6235
   1418.15369     709.0691     445.2194   1418.15369     709.0691     445.2194
   1418.13843     709.9863     446.8299   1418.13843     709.9863     446.8299
   1418.12317     711.6885     448.5193   1418.12317     711.6885     448.5193
   1418.10791     711.9207     448.8148   1418.10791     711.9207     448.8148
   1418.09265     713.2551     449.6025   1418.09265     713.2551     449.6025
   1418.07739     713.2773     451.0232   1418.07739     713.2773     451.0232
   1418.06213     714.6945     451.5143   1418.06213     714.6945     451.5143
   1418.04688     714.0181     452.6172   1418.04688     714.0181     452.6172
   1418.03162     716.5326     453.2956   1418.03162     716.5326     453.2956
   1418.01636     717.7573     455.3003   1418.01636     717.7573     455.3003
   1418.00110     717.6589     455.3162   1418.00110     717.6589     455.3162
   1417.98584     719.8192     456.7182   1417.98584     719.8192     456.7182
   1417.97058     720.0404     458.1799   1417.97058     720.0404     458.1799
   1417.95532     719.8997     458.6627   1417.95532     719.8997     458.6627
   1417.94006     721.3530     460.0929   1417.94006     721.3530     460.0929
   1417.92480     722.8414     460.1825   1417.92480     722.8414     460.1825
   1417.90955     722.8942     461.5588   1417.90955     722.8942     461.5588
   1417.89429     724.6521     462.6030   1417.89429     724.6521     462.6030
   1417.87903     724.2599     464.0715   1417.87903     724.2599     464.0715
   1417.86377     725.9852     465.1403   1417.86377     725.9852     465.1403
   1417.84851     728.0074     466.2578   1417.84851     728.0074     466.2578
   1417.83325     727.1336     467.2913   1417.83325     727.1336     467.2913
   1417.81799     728.3571     468.6320   1417.81799     728.3571     468.6320
   1417.80273     730.0532     469.4471   1417.80273     730.0532     469.4471
   1417.78748     731.3090     470.7984   1417.78748     731.3090     470.7984
   1417.77222     732.4686     471.5728   1417.77222     732.4686     471.5728
   1417.75696     731.9807     473.3593   1417.75696     731.9807     473.3593
   1417.74170     733.5543     473.9984   1417.74170     733.5543     473.9984
   1417.72644     734.4008     475.4870   1417.72644     734.4008     475.4870
   1417.71118     735.4856     476.2683   1417.71118     735.4856     476.2683
   1417.69592     737.2933     477.2873   1417.69592     737.2933     477.2873
   1417.68066     736.6277     478.6826   1417.68066     736.6277     478.6826
   1417.66541     737.7280     479.7708   1417.66541     737.7280     479.7708
   1417.65015     738.2128     481.0097   1417.65015     738.2128     481.0097
   1417.63489     740.0809     482.0057   1417.63489     740.0809     482.0057
   1417.61963     738.9020     482.6007   1417.61963     738.9020     482.6007
   1417.60437     741.1292     484.5253   1417.60437     741.1292     484.5253
   1417.58911     742.5523     484.8228   1417.58911     742.5523     484.8228
   1417.57385     743.3353     487.3654   1417.57385     743.3353     487.3654
   1417.55859     744.0538     488.4939   1417.55859     744.0538     488.4939
   1417.54333     745.2231     489.0500   1417.54333     745.2231     489.0500
   1417.52808     746.0137     490.6832   1417.52808     746.0137     490.6832
   1417.51282     748.3203     491.7860   1417.51282     748.3203     491.7860
   1417.49756     747.8126     493.3027   1417.49756     747.8126     493.3027
   1417.48230     748.2990     494.2621   1417.48230     748.2990     494.2621
   1417.46704     749.6514     495.3597   1417.46704     749.6514     495.3597
   1417.45178     750.9880     495.6989   1417.45178     750.9880     495.6989
   1417.43652     751.3226     497.9019   1417.43652     751.3226     497.9019
   1417.42126     751.1964     499.0224   1417.42126     751.1964     499.0224
   1417.40601     753.0983     500.0704   1417.40601     753.0983     500.0704
   1417.39075     753.5161     501.0583   1417.39075     753.5161     501.0583
   1417.37549     754.4869     501.5260   1417.37549     754.4869     501.5260
   1417.36023     755.7272     504.0267   1417.36023     755.7272     504.0267
   1417.34497     755.8113     505.2767   1417.34497     755.8113     505.2767
   1417.32971     756.6982     506.5097   1417.32971     756.6982     506.5097
   1417.31445     757.2838     507.1835   1417.31445     757.2838     507.1835
   1417.29919     759.1016     507.9025   1417.29919     759.1016     507.9025
   1417.28394     759.1222     509.0382   1417.28394     759.1222     509.0382
   1417.26868     761.0720     510.6294   1417.26868     761.0720     510.6294
   1417.25342     760.1852     512.3939   1417.25342     760.1852     512.3939
   1417.23816     761.1092     513.1375   1417.23816     761.1092     513.1375
   1417.22290     762.8630     513.9856   1417.22290     762.8630     513.9856
   1417.20764     763.0568     515.8002   1417.20764     763.0568     515.8002
   1417.19238     763.6770     516.1489   1417.19238     763.6770     516.1489
   1417.17712     763.4825     516.8591   1417.17712     763.4825     516.8591
   1417.16187     765.4873     518.1913   1417.16187     765.4873     518.1913
   1417.14661     765.6797     519.2905   1417.14661     765.6797     519.2905
   1417.13135     766.9219     520.6619   1417.13135     766.9219     520.6619
   1417.11609     767.4386     521.8668   1417.11609     767.4386     521.8668
   1417.10083     768.1377     522.9198   1417.10083     768.1377     522.9198
   1417.08557     767.9982     523.3748   1417.08557     767.9982     523.3748
   1417.07031     769.6073     524.2381   1417.07031     769.6073     524.2381
   1417.05505     771.1981     526.0037   1417.05505     771.1981     526.0037
   1417.03979     769.7269     526.3774   1417.03979     769.7269     526.3774
   1417.02454     771.1349     528.2882   1417.02454     771.1349     528.2882
   1417.00928     772.2635     529.1710   1417.00928     772.2635     529.1710
   1416.99402     772.7861     529.2585   1416.99402     772.7861     529.2585
   1416.97876     773.7297     530.3837   1416.97876     773.7297     530.3837
   1416.96350     773.4807     531.2571   1416.96350     773.4807     531.2571
   1416.94824     774.2988     531.6929   1416.94824     774.2988     531.6929
   1416.93298     773.7306     532.2972   1416.93298     773.7306     532.2972
   1416.91772     773.7985     533.3632   1416.91772     773.7985     533.3632
   1416.90247     776.0057     535.3357   1416.90247     776.0057     535.3357
   1416.88721     774.6241     536.0281   1416.88721     774.6241     536.0281
   1416.87195     775.6421     536.3472   1416.87195     775.6421     536.3472
   1416.85669     776.2162     537.3941   1416.85669     776.2162     537.3941
   1416.84143     776.3494     537.4730   1416.84143     776.3494     537.4730
   1416.82617     777.2986     539.1978   1416.82617     777.2986     539.1978
   1416.81091     777.4141     539.8904   1416.81091     777.4141     539.8904
   1416.79565     777.2923     540.4149   1416.79565     777.2923     540.4149
   1416.78040     778.1079     540.8621   1416.78040     778.1079     540.8621
   1416.76514     779.4400     541.5269   1416.76514     779.4400     541.5269
   1416.74988     778.4620     541.7238   1416.74988     778.4620     541.7238
   1416.73462     779.1180     541.9405   1416.73462     779.1180     541.9405
   1416.71936     780.2581     542.7317   1416.71936     780.2581     542.7317
   1416.70410     779.4466     542.7019   1416.70410     779.4466     542.7019
   1416.68884     780.5097     544.3481   1416.68884     780.5097     544.3481
   1416.67358     780.2587     544.6048   1416.67358     780.2587     544.6048
   1416.65833     780.9793     544.8860   1416.65833     780.9793     544.8860
   1416.64307     780.4694     544.4933   1416.64307     780.4694     544.4933
   1416.62781     780.5124     545.2817   1416.62781     780.5124     545.2817
   1416.61255     780.8577     545.6251   1416.61255     780.8577     545.6251
   1416.59729     781.0112     546.5758   1416.59729     781.0112     546.5758
   1416.58203     781.1094     546.0157   1416.58203     781.1094     546.0157
   1416.56677     781.6491     546.9691   1416.56677     781.6491     546.9691
   1416.55151     781.5623     546.6680   1416.55151     781.5623     546.6680
   1416.53625     782.2651     546.6882   1416.53625     782.2651     546.6882
   1416.52100     781.8598     546.7874   1416.52100     781.8598     546.7874
   1416.50574     780.7800     547.1944   1416.50574     780.7800     547.1944
   1416.49048     780.3910     548.1074   1416.49048     780.3910     548.1074
   1416.47522     781.2990     548.2663   1416.47522     781.2990     548.2663
   1416.45996     781.4703     547.9474   1416.45996     781.4703     547.9474
   1416.44470     781.5565     548.1046   1416.44470     781.5565     548.1046
   1416.42944     780.5881     547.8026   1416.42944     780.5881     547.8026
   1416.41418     781.0859     548.1050   1416.41418     781.0859     548.1050
   1416.39893     780.9933     548.0162   1416.39893     780.9933     548.0162
   1416.38367     780.6425     547.5849   1416.38367     780.6425     547.5849
   1416.36841     780.8245     548.2641   1416.36841     780.8245     548.2641
   1416.35315     780.3204     546.5414   1416.35315     780.3204     546.5414
   1416.33789     780.8098     547.7198   1416.33789     780.8098     547.7198
   1416.32263     779.7990     547.2261   1416.32263     779.7990     547.2261
   1416.30737     778.7458     547.1396   1416.30737     778.7458     547.1396
   1416.29211     778.6261     546.0742   1416.29211     778.6261     546.0742
   1416.27686     780.2016     547.0626   1416.27686     780.2016     547.0626
   1416.26160     778.7350     546.0313   1416.26160     778.7350     546.0313
   1416.24634     778.9101     545.9342   1416.24634     778.9101     545.9342
   1416.23108     779.0392     546.0847   1416.23108     779.0392     546.0847
   1416.21582     778.1833     545.6836   1416.21582     778.1833     545.6836
   1416.20056     776.9877     545.0834   1416.20056     776.9877     545.0834
   1416.18530     778.4402     545.0027   1416.18530     778.4402     545.0027
   1416.17004     778.1659     544.1452   1416.17004     778.1659     544.1452
   1416.15479     777.5234     544.4129   1416.15479     777.5234     544.4129
   1416.13953     776.8402     544.2593   1416.13953     776.8402     544.2593
   1416.12427     774.9417     543.7479   1416.12427     774.9417     543.7479
   1416.10901     776.1729     542.6769   1416.10901     776.1729     542.6769
   1416.09375     775.6922     542.8546   1416.09375     775.6922     542.8546
   1416.07849     774.6895     542.1939   1416.07849     774.6895     542.1939
   1416.06323     772.9723     541.3442   1416.06323     772.9723     541.3442
   1416.04797     772.8879     541.1294   1416.04797     772.8879     541.1294
   1416.03271     773.5690     540.9902   1416.03271     773.5690     540.9902
   1416.01746     772.6609     540.2867   1416.01746     772.6609     540.2867
   1416.00220     772.7141     539.0076   1416.00220     772.7141     539.0076
   1415.98694     771.7048     538.5068   1415.98694     771.7048     538.5068
   1415.97168     771.1212     538.3746   1415.97168     771.1212     538.3746
   1415.95642     769.4958     536.9797   1415.95642     769.4958     536.9797
   1415.94116     769.4545     536.6777   1415.94116     769.4545     536.6777
   1415.92590     769.9461     535.7338   1415.92590     769.9461     535.7338
   1415.91064     768.1394     536.0436   1415.91064     768.1394     536.0436
   1415.89539     769.0397     534.6135   1415.89539     769.0397     534.6135
   1415.88013     767.8820     533.8316   1415.88013     767.8820     533.8316
   1415.86487     767.1552     533.7708   1415.86487     767.1552     533.7708
   1415.84961     766.1974     533.6716   1415.84961     766.1974     533.6716
   1415.83435     764.9703     532.1101   1415.83435     764.9703     532.1101
   1415.81909     764.8379     531.5867   1415.81909     764.8379     531.5867
   1415.80383     764.5992     530.8954   1415.80383     764.5992     530.8954
   1415.78857     763.1573     530.2927   1415.78857     763.1573     530.2927
   1415.77332     763.6533     530.4204   1415.77332     763.6533     530.4204
   1415.75806     761.8290     529.2849   1415.75806     761.8290     529.2849
   1415.74280     762.1843     527.7906   1415.74280     762.1843     527.7906
   1415.72754     761.9478     527.9053   1415.72754     761.9478     527.9053
   1415.71228     760.0241     526.9253   1415.71228     760.0241     526.9253
   1415.69702     760.5266     526.2052   1415.69702     760.5266     526.2052
   1415.68176     759.6395     525.0864   1415.68176     759.6395     525.0864
   1415.66650     757.8745     524.8768   1415.66650     757.8745     524.8768
   1415.65125     757.1259     522.9901   1415.65125     757.1259     522.9901
   1415.63599     756.7486     522.9592   1415.63599     756.7486     522.9592
   1415.62073     755.7006     521.2801   1415.62073     755.7006     521.2801
   1415.60547     755.2434     521.7415   1415.60547     755.2434     521.7415
   1415.59021     755.0856     519.8325   1415.59021     755.0856     519.8325
   1415.57495     753.4345     520.2086   1415.57495     753.4345     520.2086
   1415.55969     752.3593     518.7427   1415.55969     752.3593     518.7427
   1415.54443     750.5332     517.7613   1415.54443     750.5332     517.7613
   1415.52917     749.6672     516.8509   1415.52917     749.6672     516.8509
   1415.51392     749.1170     515.0381   1415.51392     749.1170     515.0381
   1415.49866     749.2247     514.9908   1415.49866     749.2247     514.9908
   1415.48340     747.5089     513.8878   1415.48340     747.5089     513.8878
   1415.46814     747.0147     513.7319   1415.46814     747.0147     513.7319
   1415.45288     745.8558     512.0073   1415.45288     745.8558     512.0073
   1415.43762     744.9911     511.9009   1415.43762     744.9911     511.9009
   1415.42236     743.8083     510.4432   1415.42236     743.8083     510.4432
   1415.40710     742.2322     510.2940   1415.40710     742.2322     510.2940
   1415.39185     741.8843     508.9290   1415.39185     741.8843     508.9290
   1415.37659     739.9266     507.2799   1415.37659     739.9266     507.2799
   1415.36133     740.4031     506.7908   1415.36133     740.4031     506.7908
   1415.34607     738.1596     506.2894   1415.34607     738.1596     506.2894
   1415.33081     738.1987     504.6733   1415.33081     738.1987     504.6733
   1415.31555     737.0403     504.3135   1415.31555     737.0403     504.3135
   1415.30029     735.4279     503.1631   1415.30029     735.4279     503.1631
   1415.28503     733.6349     501.1157   1415.28503     733.6349     501.1157
   1415.26978     733.4799     500.2968   1415.26978     733.4799     500.2968
   1415.25452     731.8707     500.0194   1415.25452     731.8707     500.0194
   1415.23926     731.1621     498.8045   1415.23926     731.1621     498.8045
   1415.22400     729.4100     497.7961   1415.22400     729.4100     497.7961
   1415.20874     727.8493     496.8250   1415.20874     727.8493     496.8250
   1415.19348     726.6564     495.4006   1415.19348     726.6564     495.4006
   1415.17822     725.8947     496.0457   1415.17822     725.8947     496.0457
   1415.16296     724.5192     493.4329   1415.16296     724.5192     493.4329
   1415.14771     724.4704     493.2580   1415.14771     724.4704     493.2580
   1415.13245     720.7642     492.0257   1415.13245     720.7642     492.0257
   1415.11719     721.1333     490.1724   1415.11719     721.1333     490.1724
   1415.10193     719.3759     489.4533   1415.10193     719.3759     489.4533
   1415.08667     718.1840     487.5573   1415.08667     718.1840     487.5573
   1415.07141     717.8395     487.7026   1415.07141     717.8395     487.7026
   1415.05615     715.3690     485.8475   1415.05615     715.3690     485.8475
   1415.04089     714.9355     485.5231   1415.04089     714.9355     485.5231
   1415.02563     712.5995     483.9632   1415.02563     712.5995     483.9632
   1415.01038     710.4788     483.0227   1415.01038     710.4788     483.0227
   1414.99512     709.8117     480.8477   1414.99512     709.8117     480.8477
   1414.97986     708.1913     479.8622   1414.97986     708.1913     479.8622
   1414.96460     706.4930     479.0492   1414.96460     706.4930     479.0492
   1414.94934     704.7463     477.4733   1414.94934     704.7463     477.4733
   1414.93408     703.4951     476.7000   1414.93408     703.4951     476.7000
   1414.91882     702.1566     475.2115   1414.91882     702.1566     475.2115
   1414.90356     698.9014     473.7769   1414.90356     698.9014     473.7769
   1414.88831     698.0722     472.3103   1414.88831     698.0722     472.3103
   1414.87305     696.6035     470.7687   1414.87305     696.6035     470.7687
   1414.85779     694.9230     470.3294   1414.85779     694.9230     470.3294
   1414.84253     692.3525     468.7051   1414.84253     692.3525     468.7051
   1414.82727     691.4726     467.6135   1414.82727     691.4726     467.6135
   1414.81201     689.9434     465.7551   1414.81201     689.9434     465.7551
   1414.79675     688.8549     465.4922   1414.79675     688.8549     465.4922
   1414.78149     686.6805     462.9884   1414.78149     686.6805     462.9884
   1414.76624     684.8810     462.3266   1414.76624     684.8810     462.3266
   1414.75098     682.4756     460.8515   1414.75098     682.4756     460.8515
   1414.73572     681.0010     459.7855   1414.73572     681.0010     459.7855
   1414.72046     678.4337     458.1093   1414.72046     678.4337     458.1093
   1414.70520     677.4018     457.4743   1414.70520     677.4018     457.4743
   1414.68994     675.4306     454.9899   1414.68994     675.4306     454.9899
   1414.67468     674.1246     453.5236   1414.67468     674.1246     453.5236
   1414.65942     672.1423     452.6560   1414.65942     672.1423     452.6560
   1414.64417     670.0704     451.3636   1414.64417     670.0704     451.3636
   1414.62891     668.4337     450.4975   1414.62891     668.4337     450.4975
   1414.61365     665.1699     448.4445   1414.61365     665.1699     448.4445
   1414.59839     664.8344     447.3908   1414.59839     664.8344     447.3908
   1414.58313     662.4587     446.4629   1414.58313     662.4587     446.4629
   1414.56787     660.5181     444.2205   1414.56787     660.5181     444.2205
   1414.55261     657.0831     443.1709   1414.55261     657.0831     443.1709
   1414.53735     655.9218     441.6226   1414.53735     655.9218     441.6226
   1414.52209     653.1663     439.4185   1414.52209     653.1663     439.4185
   1414.50684     651.2450     438.4279   1414.50684     651.2450     438.4279
   1414.49158     649.7511     436.4104   1414.49158     649.7511     436.4104
   1414.47632     647.5145     435.4975   1414.47632     647.5145     435.4975
   1414.46106     645.6386     434.8938   1414.46106     645.6386     434.8938
   1414.44580     643.9136     432.2868   1414.44580     643.9136     432.2868
   1414.43054     640.9311     430.9193   1414.43054     640.9311     430.9193
   1414.41528     638.5997     428.8689   1414.41528     638.5997     428.8689
   1414.40002     636.0551     428.4148   1414.40002     636.0551     428.4148
   1414.38477     632.5845     426.2669   1414.38477     632.5845     426.2669
   1414.36951     631.3218     424.9060   1414.36951     631.3218     424.9060
   1414.35425     628.9948     423.2823   1414.35425     628.9948     423.2823
   1414.33899     626.0674     421.5898   1414.33899     626.0674     421.5898
   1414.32373     625.4755     420.4388   1414.32373     625.4755     420.4388
   1414.30847     622.1106     418.6633   1414.30847     622.1106     418.6633
   1414.29321     619.8058     417.4356   1414.29321     619.8058     417.4356
   1414.27795     617.9570     415.3945   1414.27795     617.9570     415.3945
   1414.26270     615.6149     413.7174   1414.26270     615.6149     413.7174
   1414.24744     611.7546     412.3305   1414.24744     611.7546     412.3305
   1414.23218     610.5687     410.3252   1414.23218     610.5687     410.3252
   1414.21692     607.7232     408.9539   1414.21692     607.7232     408.9539
   1414.20166     605.2178     407.4951   1414.20166     605.2178     407.4951
   1414.18640     603.7626     406.0770   1414.18640     603.7626     406.0770
   1414.17114     600.9765     404.1888   1414.17114     600.9765     404.1888
   1414.15588     597.1548     401.9636   1414.15588     597.1548     401.9636
   1414.14062     595.5255     401.3184   1414.14062     595.5255     401.3184
   1414.12537     592.3484     398.9577   1414.12537     592.3484     398.9577
   1414.11011     589.9108     396.7394   1414.11011     589.9108     396.7394
   1414.09485     587.9683     395.4938   1414.09485     587.9683     395.4938
   1414.07959     584.9236     393.8784   1414.07959     584.9236     393.8784
   1414.06433     582.6276     391.9048   1414.06433     582.6276     391.9048
   1414.04907     580.6414     390.3980   1414.04907     580.6414     390.3980
   1414.03381     577.5939     389.1786   1414.03381     577.5939     389.1786
   1414.01855     574.5023     387.5652   1414.01855     574.5023     387.5652
   1414.00330     592.1806     389.5858   1414.00330     592.1806     389.5858
   1413.98804     571.1931     384.3513   1413.98804     571.1931     384.3513
   1413.97278     566.9200     382.3824   1413.97278     566.9200     382.3824
   1413.95752     564.2917     380.7039   1413.95752     564.2917     380.7039
   1413.94226     560.9968     378.4109   1413.94226     560.9968     378.4109
   1413.92700     559.0226     377.1506   1413.92700     559.0226     377.1506
   1413.91174     556.2115     375.0290   1413.91174     556.2115     375.0290
   1413.89648     552.4331     373.5001   1413.89648     552.4331     373.5001
   1413.88123     550.4691     371.9024   1413.88123     550.4691     371.9024
   1413.86597     548.4086     370.2478   1413.86597     548.4086     370.2478
   1413.85071     545.0140     368.6310   1413.85071     545.0140     368.6310
   1413.83545     541.5225     366.4428   1413.83545     541.5225     366.4428
   1413.82019     539.4238     365.0596   1413.82019     539.4238     365.0596
   1413.80493     537.7990     363.6312   1413.80493     537.7990     363.6312
   1413.78967     535.1565     361.8998   1413.78967     535.1565     361.8998
   1413.77441     531.2320     359.7946   1413.77441     531.2320     359.7946
   1413.75916     529.4156     358.6270   1413.75916     529.4156     358.6270
   1413.74390     526.2133     356.9843   1413.74390     526.2133     356.9843
   1413.72864     522.9041     354.8666   1413.72864     522.9041     354.8666
   1413.71338     519.5666     353.0911   1413.71338     519.5666     353.0911
   1413.69812     517.9443     350.5700   1413.69812     517.9443     350.5700
   1413.68286     515.5339     349.8092   1413.68286     515.5339     349.8092
   1413.66760     511.9337     348.2715   1413.66760     511.9337     348.2715
   1413.65234     509.6950     346.4696   1413.65234     509.6950     346.4696
   1413.63708     506.2558     344.7270   1413.63708     506.2558     344.7270
   1413.62183     503.0513     343.0272   1413.62183     503.0513     343.0272
   1413.60657     501.5023     341.0681   1413.60657     501.5023     341.0681
   1413.59131     498.5116     339.6365   1413.59131     498.5116     339.6365
   1413.57605     495.9607     338.1651   1413.57605     495.9607     338.1651
   1413.56079     492.7918     336.2784   1413.56079     492.7918     336.2784
   1413.54553     490.8705     334.5859   1413.54553     490.8705     334.5859
   1413.53027     487.6734     332.8604   1413.53027     487.6734     332.8604
   1413.51501     485.4628     331.4657   1413.51501     485.4628     331.4657
   1413.49976     482.6684     329.6123   1413.49976     482.6684     329.6123
   1413.48450     479.7242     328.0446   1413.48450     479.7242     328.0446
   1413.46924     476.7233     326.2593   1413.46924     476.7233     326.2593
   1413.45398     473.9473     324.4076   1413.45398     473.9473     324.4076
   1413.43872     471.7901     323.3437   1413.43872     471.7901     323.3437
   1413.42346     468.7965     320.8732   1413.42346     468.7965     320.8732
   1413.40820     466.2521     319.7568   1413.40820     466.2521     319.7568
   1413.39294     465.0650     317.8050   1413.39294     465.0650     317.8050
   1413.37769     461.2209     316.7098   1413.37769     461.2209     316.7098
   1413.36243     458.1109     315.4826   1413.36243     458.1109     315.4826
   1413.34717     456.5551     313.7939   1413.34717     456.5551     313.7939
   1413.33191     453.4230     312.6613   1413.33191     453.4230     312.6613
   1413.31665     450.5242     310.8572   1413.31665     450.5242     310.8572
   1413.30139     448.6696     309.5088   1413.30139     448.6696     309.5088
   1413.28613     445.3578     307.8276   1413.28613     445.3578     307.8276
   1413.27087     442.5742     306.0507   1413.27087     442.5742     306.0507
   1413.25562     441.3147     305.1498   1413.25562     441.3147     305.1498
   1413.24036     438.9349     303.5735   1413.24036     438.9349     303.5735
   1413.22510     436.3464     301.7911   1413.22510     436.3464     301.7911
   1413.20984     433.3512     300.7753   1413.20984     433.3512     300.7753
   1413.19458     431.0987     299.5661   1413.19458     431.0987     299.5661
   1413.17932     429.0112     298.1593   1413.17932     429.0112     298.1593
   1413.16406     427.1736     296.4166   1413.16406     427.1736     296.4166
   1413.14880     424.3102     295.0531   1413.14880     424.3102     295.0531
   1413.13354     422.6735     294.0506   1413.13354     422.6735     294.0506
   1413.11829     420.1397     292.8443   1413.11829     420.1397     292.8443
   1413.10303     418.6132     291.2295   1413.10303     418.6132     291.2295
   1413.08777     415.5210     290.4370   1413.08777     415.5210     290.4370
   1413.07251     414.2469     289.1592   1413.07251     414.2469     289.1592
   1413.05725     411.8689     288.0150   1413.05725     411.8689     288.0150
   1413.04199     409.2094     286.3413   1413.04199     409.2094     286.3413
   1413.02673     407.4640     285.3865   1413.02673     407.4640     285.3865
   1413.01147     405.8410     284.0504   1413.01147     405.8410     284.0504
   1412.99622     403.6968     283.0724   1412.99622     403.6968     283.0724
   1412.98096     401.8829     282.0782   1412.98096     401.8829     282.0782
   1412.96570     400.0100     280.6752   1412.96570     400.0100     280.6752
   1412.95044     397.7381     279.7948   1412.95044     397.7381     279.7948
   1412.93518     395.8881     278.8462   1412.93518     395.8881     278.8462
   1412.91992     393.7026     278.0937   1412.91992     393.7026     278.0937
   1412.90466     391.8816     276.7387   1412.90466     391.8816     276.7387
   1412.88940     390.3662     276.0403   1412.88940     390.3662     276.0403
   1412.87415     389.1483     275.1443   1412.87415     389.1483     275.1443
   1412.85889     387.7875     274.2605   1412.85889     387.7875     274.2605
   1412.84363     385.8674     273.1469   1412.84363     385.8674     273.1469
   1412.82837     384.7684     272.6320   1412.82837     384.7684     272.6320
   1412.81311     382.4826     272.2255   1412.81311     382.4826     272.2255
   1412.79785     381.2182     270.8106   1412.79785     381.2182     270.8106
   1412.78259     379.6214     270.4858   1412.78259     379.6214     270.4858
   1412.76733     378.5643     269.4678   1412.76733     378.5643     269.4678
   1412.75208     376.9897     268.7581   1412.75208     376.9897     268.7581
   1412.73682     375.7045     268.0776   1412.73682     375.7045     268.0776
   1412.72156     374.6054     267.6708   1412.72156     374.6054     267.6708
   1412.70630     373.1875     266.8529   1412.70630     373.1875     266.8529
   1412.69104     372.3170     266.3970   1412.69104     372.3170     266.3970
   1412.67578     371.2275     266.1219   1412.67578     371.2275     266.1219
   1412.66052     370.1316     265.0133   1412.66052     370.1316     265.0133
   1412.64526     369.4097     264.8565   1412.64526     369.4097     264.8565
   1412.63000     368.3743     264.1757   1412.63000     368.3743     264.1757
   1412.61475     366.7204     264.3459   1412.61475     366.7204     264.3459
   1412.59949     366.4730     264.3377   1412.59949     366.4730     264.3377
   1412.58423     365.5652     263.8773   1412.58423     365.5652     263.8773
   1412.56897     364.6501     263.0674   1412.56897     364.6501     263.0674
   1412.55371     363.6559     262.9116   1412.55371     363.6559     262.9116
   1412.53845     362.9813     262.5487   1412.53845     362.9813     262.5487
   1412.52319     362.5184     262.8514   1412.52319     362.5184     262.8514
   1412.50793     361.8020     262.2338   1412.50793     361.8020     262.2338
   1412.49268     361.8854     262.6542   1412.49268     361.8854     262.6542
   1412.47742     361.0711     262.2154   1412.47742     361.0711     262.2154
   1412.46216     360.5939     262.3237   1412.46216     360.5939     262.3237
   1412.44690     360.0189     262.6170   1412.44690     360.0189     262.6170
   1412.43164     360.5128     262.6581   1412.43164     360.5128     262.6581
   1412.41638     359.7249     262.5886   1412.41638     359.7249     262.5886
   1412.40112     359.8866     262.7842   1412.40112     359.8866     262.7842
   1412.38586     359.5224     262.7635   1412.38586     359.5224     262.7635
   1412.37061     359.4305     262.8539   1412.37061     359.4305     262.8539
   1412.35535     359.8987     263.4605   1412.35535     359.8987     263.4605
   1412.34009     358.8394     263.8840   1412.34009     358.8394     263.8840
   1412.32483     359.1282     264.1978   1412.32483     359.1282     264.1978
   1412.30957     359.8977     264.4021   1412.30957     359.8977     264.4021
   1412.29431     359.8330     264.6125   1412.29431     359.8330     264.6125
   1412.27905     359.3401     265.6131   1412.27905     359.3401     265.6131
   1412.26379     360.2304     266.0341   1412.26379     360.2304     266.0341
   1412.24854     360.5710     265.7259   1412.24854     360.5710     265.7259
   1412.23328     360.3375     267.0188   1412.23328     360.3375     267.0188
   1412.21802     360.9808     267.8640   1412.21802     360.9808     267.8640
   1412.20276     361.4614     268.2328   1412.20276     361.4614     268.2328