#     FILENAME=!Skynet_57528_lach-cc-232_20648_21024.cyb.fits
#     BASENAME=Skynet_57528_lach-cc-232_20648_21024
#     SRC_NAME=lach-cc-232
#     OBSERVER=ccmadison16_9505
#     DATE_OBS=2016-05-20T19:23:55.560
#        OBSID=20648
#      SCANNUM=21024
#          MJD=57528.8093
#          UTC=69925
#     SCANTYPE=track
#     DATAMODE=HIRES
#     TUNEFREQ=1420.0000
# Actual_FREQ1=1420.0000
# Actual_FREQ2=1420.0000
#    LO1Tuning=6870.000
#     RFFILTER=1355_1435
#        OBSBW=-15.6250
#        NCHAN=1024 
#        FOCUS=37.0489
#           RA=07:27:13.35
#          DEC=-16:54:11.33
#      RA(hrs)=7.453700
#     DEC(deg)=-16.903100
#    AZIM(deg)=154.833
#    ELEV(deg)=30.759
#     IFattens=10.00, 9.00
#      WARNING=None
#    TCAL_XL1=7.9635
#    TCAL_YR1=9.1340
#    TCAL_XL2=7.9635
#    TCAL_YR2=9.1340
#     TRX_XL1=11.7060
#     TRX_YR1=11.7060
#     TRX_XL2=11.7060
#     TRX_YR2=11.7060
#        TAVE=1.0000
#Freq1(MHz)          XL1          YR1  Freq2(MHz)          XL2          YR2 

   1427.81250     364.7973     285.7252   1427.81250     364.7973     285.7252
   1427.79724     365.6859     285.7238   1427.79724     365.6859     285.7238
   1427.78198     366.4521     286.7515   1427.78198     366.4521     286.7515
   1427.76672     367.2151     286.7733   1427.76672     367.2151     286.7733
   1427.75146     368.8054     287.4521   1427.75146     368.8054     287.4521
   1427.73621     369.6536     288.0120   1427.73621     369.6536     288.0120
   1427.72095     369.9440     288.4312   1427.72095     369.9440     288.4312
   1427.70569     371.6062     290.1508   1427.70569     371.6062     290.1508
   1427.69043     371.4492     290.3231   1427.69043     371.4492     290.3231
   1427.67517     373.1741     291.3137   1427.67517     373.1741     291.3137
   1427.65991     374.1025     292.0264   1427.65991     374.1025     292.0264
   1427.64465     375.7858     292.9601   1427.64465     375.7858     292.9601
   1427.62939     376.7421     293.6367   1427.62939     376.7421     293.6367
   1427.61414     377.7364     295.0264   1427.61414     377.7364     295.0264
   1427.59888     379.1365     295.7221   1427.59888     379.1365     295.7221
   1427.58362     381.4426     296.2540   1427.58362     381.4426     296.2540
   1427.56836     382.1740     297.7106   1427.56836     382.1740     297.7106
   1427.55310     383.8404     299.3020   1427.55310     383.8404     299.3020
   1427.53784     385.3393     299.8719   1427.53784     385.3393     299.8719
   1427.52258     386.3058     301.4870   1427.52258     386.3058     301.4870
   1427.50732     388.9053     302.8090   1427.50732     388.9053     302.8090
   1427.49207     390.4301     303.3684   1427.49207     390.4301     303.3684
   1427.47681     392.2015     305.2257   1427.47681     392.2015     305.2257
   1427.46155     393.8160     307.1692   1427.46155     393.8160     307.1692
   1427.44629     396.1408     308.0693   1427.44629     396.1408     308.0693
   1427.43103     397.7249     309.0656   1427.43103     397.7249     309.0656
   1427.41577     399.0459     310.8719   1427.41577     399.0459     310.8719
   1427.40051     401.7213     312.1606   1427.40051     401.7213     312.1606
   1427.38525     402.8690     313.9094   1427.38525     402.8690     313.9094
   1427.37000     404.9594     315.3503   1427.37000     404.9594     315.3503
   1427.35474     407.9218     316.6277   1427.35474     407.9218     316.6277
   1427.33948     409.4506     318.5341   1427.33948     409.4506     318.5341
   1427.32422     411.3296     320.0469   1427.32422     411.3296     320.0469
   1427.30896     413.7223     322.4081   1427.30896     413.7223     322.4081
   1427.29370     415.2609     323.3918   1427.29370     415.2609     323.3918
   1427.27844     418.0098     325.3809   1427.27844     418.0098     325.3809
   1427.26318     420.3949     326.9900   1427.26318     420.3949     326.9900
   1427.24792     422.2818     328.3669   1427.24792     422.2818     328.3669
   1427.23267     424.7716     330.2876   1427.23267     424.7716     330.2876
   1427.21741     426.6555     332.4673   1427.21741     426.6555     332.4673
   1427.20215     429.4832     334.5556   1427.20215     429.4832     334.5556
   1427.18689     431.8987     336.4217   1427.18689     431.8987     336.4217
   1427.17163     434.4482     337.8482   1427.17163     434.4482     337.8482
   1427.15637     437.6227     339.7327   1427.15637     437.6227     339.7327
   1427.14111     439.0886     341.8898   1427.14111     439.0886     341.8898
   1427.12585     441.9370     343.7722   1427.12585     441.9370     343.7722
   1427.11060     444.8629     345.7533   1427.11060     444.8629     345.7533
   1427.09534     447.4714     347.4541   1427.09534     447.4714     347.4541
   1427.08008     449.9499     349.9656   1427.08008     449.9499     349.9656
   1427.06482     451.7385     351.5736   1427.06482     451.7385     351.5736
   1427.04956     455.7967     354.1634   1427.04956     455.7967     354.1634
   1427.03430     457.7318     355.9354   1427.03430     457.7318     355.9354
   1427.01904     461.0803     358.3672   1427.01904     461.0803     358.3672
   1427.00378     463.9402     360.9084   1427.00378     463.9402     360.9084
   1426.98853     466.5209     362.4865   1426.98853     466.5209     362.4865
   1426.97327     469.0882     365.1969   1426.97327     469.0882     365.1969
   1426.95801     471.4946     367.3938   1426.95801     471.4946     367.3938
   1426.94275     474.4863     369.0937   1426.94275     474.4863     369.0937
   1426.92749     476.6946     371.5793   1426.92749     476.6946     371.5793
   1426.91223     480.3748     373.3379   1426.91223     480.3748     373.3379
   1426.89697     482.5067     376.0687   1426.89697     482.5067     376.0687
   1426.88171     486.1458     378.3381   1426.88171     486.1458     378.3381
   1426.86646     489.3279     380.3695   1426.86646     489.3279     380.3695
   1426.85120     491.3362     383.0582   1426.85120     491.3362     383.0582
   1426.83594     494.2885     385.5527   1426.83594     494.2885     385.5527
   1426.82068     497.0056     387.5912   1426.82068     497.0056     387.5912
   1426.80542     500.1815     389.9205   1426.80542     500.1815     389.9205
   1426.79016     502.4840     393.0750   1426.79016     502.4840     393.0750
   1426.77490     506.0041     394.5169   1426.77490     506.0041     394.5169
   1426.75964     509.3350     397.3839   1426.75964     509.3350     397.3839
   1426.74438     511.4575     399.7827   1426.74438     511.4575     399.7827
   1426.72913     515.7590     402.2147   1426.72913     515.7590     402.2147
   1426.71387     516.9608     404.3109   1426.71387     516.9608     404.3109
   1426.69861     520.5589     407.2144   1426.69861     520.5589     407.2144
   1426.68335     523.1314     409.4481   1426.68335     523.1314     409.4481
   1426.66809     526.1630     412.3215   1426.66809     526.1630     412.3215
   1426.65283     530.0644     413.6324   1426.65283     530.0644     413.6324
   1426.63757     532.8521     416.2489   1426.63757     532.8521     416.2489
   1426.62231     545.3716     420.9205   1426.62231     545.3716     420.9205
   1426.60706     538.8210     421.4071   1426.60706     538.8210     421.4071
   1426.59180     541.0046     423.8373   1426.59180     541.0046     423.8373
   1426.57654     544.6949     426.3734   1426.57654     544.6949     426.3734
   1426.56128     546.5283     429.1028   1426.56128     546.5283     429.1028
   1426.54602     549.4774     431.2874   1426.54602     549.4774     431.2874
   1426.53076     553.5612     433.8756   1426.53076     553.5612     433.8756
   1426.51550     555.7911     436.8905   1426.51550     555.7911     436.8905
   1426.50024     558.6146     439.2617   1426.50024     558.6146     439.2617
   1426.48499     561.0704     441.7306   1426.48499     561.0704     441.7306
   1426.46973     564.1074     444.1223   1426.46973     564.1074     444.1223
   1426.45447     567.3543     445.8967   1426.45447     567.3543     445.8967
   1426.43921     570.1141     448.4298   1426.43921     570.1141     448.4298
   1426.42395     573.0595     451.0162   1426.42395     573.0595     451.0162
   1426.40869     576.0046     454.1842   1426.40869     576.0046     454.1842
   1426.39343     578.4474     456.1064   1426.39343     578.4474     456.1064
   1426.37817     581.3555     458.8735   1426.37817     581.3555     458.8735
   1426.36292     585.1585     461.5652   1426.36292     585.1585     461.5652
   1426.34766     586.0467     464.1034   1426.34766     586.0467     464.1034
   1426.33240     589.1768     465.8647   1426.33240     589.1768     465.8647
   1426.31714     592.6125     468.5278   1426.31714     592.6125     468.5278
   1426.30188     595.2700     471.2207   1426.30188     595.2700     471.2207
   1426.28662     597.5952     473.0251   1426.28662     597.5952     473.0251
   1426.27136     600.8988     475.4432   1426.27136     600.8988     475.4432
   1426.25610     602.9962     478.2982   1426.25610     602.9962     478.2982
   1426.24084     605.6216     480.4098   1426.24084     605.6216     480.4098
   1426.22559     607.8335     482.8897   1426.22559     607.8335     482.8897
   1426.21033     610.4391     485.7092   1426.21033     610.4391     485.7092
   1426.19507     612.7027     488.1102   1426.19507     612.7027     488.1102
   1426.17981     616.2222     490.9731   1426.17981     616.2222     490.9731
   1426.16455     618.7649     492.7748   1426.16455     618.7649     492.7748
   1426.14929     620.8935     495.1579   1426.14929     620.8935     495.1579
   1426.13403     624.5052     498.0448   1426.13403     624.5052     498.0448
   1426.11877     625.5745     499.9975   1426.11877     625.5745     499.9975
   1426.10352     627.5108     502.1416   1426.10352     627.5108     502.1416
   1426.08826     630.2280     505.0948   1426.08826     630.2280     505.0948
   1426.07300     633.1921     507.1512   1426.07300     633.1921     507.1512
   1426.05774     634.4571     509.7238   1426.05774     634.4571     509.7238
   1426.04248     637.4991     511.1208   1426.04248     637.4991     511.1208
   1426.02722     640.4247     513.9194   1426.02722     640.4247     513.9194
   1426.01196     641.9951     516.6083   1426.01196     641.9951     516.6083
   1425.99670     644.4840     518.9304   1425.99670     644.4840     518.9304
   1425.98145     646.8158     521.3912   1425.98145     646.8158     521.3912
   1425.96619     648.1053     523.3049   1425.96619     648.1053     523.3049
   1425.95093     651.1443     525.8263   1425.95093     651.1443     525.8263
   1425.93567     652.4227     528.0468   1425.93567     652.4227     528.0468
   1425.92041     656.1218     529.8766   1425.92041     656.1218     529.8766
   1425.90515     657.7871     531.2454   1425.90515     657.7871     531.2454
   1425.88989     659.6589     534.6968   1425.88989     659.6589     534.6968
   1425.87463     661.9616     535.4283   1425.87463     661.9616     535.4283
   1425.85938     663.7408     538.2460   1425.85938     663.7408     538.2460
   1425.84412     666.0477     540.5435   1425.84412     666.0477     540.5435
   1425.82886     668.0256     542.8922   1425.82886     668.0256     542.8922
   1425.81360     668.8312     545.5442   1425.81360     668.8312     545.5442
   1425.79834     671.8564     548.1056   1425.79834     671.8564     548.1056
   1425.78308     672.9294     549.0734   1425.78308     672.9294     549.0734
   1425.76782     675.8734     551.4274   1425.76782     675.8734     551.4274
   1425.75256     676.6464     552.3685   1425.75256     676.6464     552.3685
   1425.73730     678.0017     555.3136   1425.73730     678.0017     555.3136
   1425.72205     680.3246     558.0854   1425.72205     680.3246     558.0854
   1425.70679     681.4911     559.1074   1425.70679     681.4911     559.1074
   1425.69153     683.6347     561.9609   1425.69153     683.6347     561.9609
   1425.67627     686.2863     563.7318   1425.67627     686.2863     563.7318
   1425.66101     687.4013     566.3121   1425.66101     687.4013     566.3121
   1425.64575     690.1797     568.2552   1425.64575     690.1797     568.2552
   1425.63049     690.6307     570.6678   1425.63049     690.6307     570.6678
   1425.61523     692.3098     571.1844   1425.61523     692.3098     571.1844
   1425.59998     692.5718     573.9269   1425.59998     692.5718     573.9269
   1425.58472     694.7539     575.7540   1425.58472     694.7539     575.7540
   1425.56946     696.5264     577.6497   1425.56946     696.5264     577.6497
   1425.55420     697.5285     579.1683   1425.55420     697.5285     579.1683
   1425.53894     699.1358     581.1919   1425.53894     699.1358     581.1919
   1425.52368     700.0834     583.2410   1425.52368     700.0834     583.2410
   1425.50842     702.4489     584.4808   1425.50842     702.4489     584.4808
   1425.49316     702.5232     586.5449   1425.49316     702.5232     586.5449
   1425.47791     703.7062     588.3759   1425.47791     703.7062     588.3759
   1425.46265     705.2327     590.8129   1425.46265     705.2327     590.8129
   1425.44739     706.9756     592.3992   1425.44739     706.9756     592.3992
   1425.43213     708.9465     594.1983   1425.43213     708.9465     594.1983
   1425.41687     708.6581     596.6060   1425.41687     708.6581     596.6060
   1425.40161     710.9216     598.3583   1425.40161     710.9216     598.3583
   1425.38635     711.4619     599.9995   1425.38635     711.4619     599.9995
   1425.37109     712.4084     600.6884   1425.37109     712.4084     600.6884
   1425.35583     713.8760     602.9191   1425.35583     713.8760     602.9191
   1425.34058     714.7645     605.6165   1425.34058     714.7645     605.6165
   1425.32532     715.2600     605.7211   1425.32532     715.2600     605.7211
   1425.31006     715.9786     608.1397   1425.31006     715.9786     608.1397
   1425.29480     717.3835     609.9943   1425.29480     717.3835     609.9943
   1425.27954     719.2116     610.8706   1425.27954     719.2116     610.8706
   1425.26428     719.6824     613.2114   1425.26428     719.6824     613.2114
   1425.24902     720.7194     614.7592   1425.24902     720.7194     614.7592
   1425.23376     721.2149     616.2398   1425.23376     721.2149     616.2398
   1425.21851     722.3842     617.8527   1425.21851     722.3842     617.8527
   1425.20325     722.3309     619.2004   1425.20325     722.3309     619.2004
   1425.18799     723.7914     620.7043   1425.18799     723.7914     620.7043
   1425.17273     724.2496     622.6148   1425.17273     724.2496     622.6148
   1425.15747     726.4166     623.6286   1425.15747     726.4166     623.6286
   1425.14221     725.9499     625.3104   1425.14221     725.9499     625.3104
   1425.12695     727.1811     626.8318   1425.12695     727.1811     626.8318
   1425.11169     726.6646     628.3367   1425.11169     726.6646     628.3367
   1425.09644     728.1996     629.8922   1425.09644     728.1996     629.8922
   1425.08118     728.4297     630.9888   1425.08118     728.4297     630.9888
   1425.06592     728.0123     633.2100   1425.06592     728.0123     633.2100
   1425.05066     728.2702     633.3854   1425.05066     728.2702     633.3854
   1425.03540     730.0695     635.3076   1425.03540     730.0695     635.3076
   1425.02014     730.5011     636.3289   1425.02014     730.5011     636.3289
   1425.00488     729.6484     637.3824   1425.00488     729.6484     637.3824
   1424.98962     731.1168     638.1475   1424.98962     731.1168     638.1475
   1424.97437     732.5044     640.3568   1424.97437     732.5044     640.3568
   1424.95911     731.9550     641.7977   1424.95911     731.9550     641.7977
   1424.94385     732.5220     642.8550   1424.94385     732.5220     642.8550
   1424.92859     733.3911     643.9162   1424.92859     733.3911     643.9162
   1424.91333     733.0571     644.9299   1424.91333     733.0571     644.9299
   1424.89807     733.5829     646.9956   1424.89807     733.5829     646.9956
   1424.88281     733.2810     647.1019   1424.88281     733.2810     647.1019
   1424.86755     734.5059     649.1039   1424.86755     734.5059     649.1039
   1424.85229     736.0031     651.0735   1424.85229     736.0031     651.0735
   1424.83704     735.1823     649.8729   1424.83704     735.1823     649.8729
   1424.82178     734.8032     651.7253   1424.82178     734.8032     651.7253
   1424.80652     735.5300     653.8755   1424.80652     735.5300     653.8755
   1424.79126     735.8062     654.6956   1424.79126     735.8062     654.6956
   1424.77600     736.4979     655.7427   1424.77600     736.4979     655.7427
   1424.76074     736.2260     655.2637   1424.76074     736.2260     655.2637
   1424.74548     735.6921     657.0961   1424.74548     735.6921     657.0961
   1424.73022     736.7028     658.6891   1424.73022     736.7028     658.6891
   1424.71497     737.5733     659.3126   1424.71497     737.5733     659.3126
   1424.69971     736.4580     660.2466   1424.69971     736.4580     660.2466
   1424.68445     737.9388     661.5447   1424.68445     737.9388     661.5447
   1424.66919     736.3856     662.9050   1424.66919     736.3856     662.9050
   1424.65393     737.6563     663.8716   1424.65393     737.6563     663.8716
   1424.63867     736.0754     663.4333   1424.63867     736.0754     663.4333
   1424.62341     737.6647     665.3430   1424.62341     737.6647     665.3430
   1424.60815     735.3151     665.6313   1424.60815     735.3151     665.6313
   1424.59290     737.3668     666.9286   1424.59290     737.3668     666.9286
   1424.57764     737.6094     668.0238   1424.57764     737.6094     668.0238
   1424.56238     738.1490     667.7283   1424.56238     738.1490     667.7283
   1424.54712     737.2029     668.8233   1424.54712     737.2029     668.8233
   1424.53186     736.9376     670.3671   1424.53186     736.9376     670.3671
   1424.51660     737.1789     670.8368   1424.51660     737.1789     670.8368
   1424.50134     739.1866     671.4765   1424.50134     739.1866     671.4765
   1424.48608     737.0016     672.7615   1424.48608     737.0016     672.7615
   1424.47083     737.5582     672.9692   1424.47083     737.5582     672.9692
   1424.45557     737.5121     673.8767   1424.45557     737.5121     673.8767
   1424.44031     738.0825     675.2194   1424.44031     738.0825     675.2194
   1424.42505     736.5229     674.3909   1424.42505     736.5229     674.3909
   1424.40979     737.0004     676.0915   1424.40979     737.0004     676.0915
   1424.39453     737.5906     675.2571   1424.39453     737.5906     675.2571
   1424.37927     736.6696     675.7437   1424.37927     736.6696     675.7437
   1424.36401     737.1306     677.7200   1424.36401     737.1306     677.7200
   1424.34875     736.4742     677.8889   1424.34875     736.4742     677.8889
   1424.33350     736.8440     678.0083   1424.33350     736.8440     678.0083
   1424.31824     736.4536     679.4503   1424.31824     736.4536     679.4503
   1424.30298     736.6235     678.7796   1424.30298     736.6235     678.7796
   1424.28772     737.1440     680.3577   1424.28772     737.1440     680.3577
   1424.27246     736.1436     680.0840   1424.27246     736.1436     680.0840
   1424.25720     735.9157     681.4510   1424.25720     735.9157     681.4510
   1424.24194     734.8107     680.9213   1424.24194     734.8107     680.9213
   1424.22668     735.2076     680.7976   1424.22668     735.2076     680.7976
   1424.21143     735.9177     682.8403   1424.21143     735.9177     682.8403
   1424.19617     735.4343     682.2810   1424.19617     735.4343     682.2810
   1424.18091     735.8910     683.4904   1424.18091     735.8910     683.4904
   1424.16565     734.3516     682.4308   1424.16565     734.3516     682.4308
   1424.15039     734.7723     682.7372   1424.15039     734.7723     682.7372
   1424.13513     734.9580     683.7861   1424.13513     734.9580     683.7861
   1424.11987     733.9770     684.3513   1424.11987     733.9770     684.3513
   1424.10461     734.3644     684.4291   1424.10461     734.3644     684.4291
   1424.08936     734.0775     683.9606   1424.08936     734.0775     683.9606
   1424.07410     733.6771     683.9874   1424.07410     733.6771     683.9874
   1424.05884     732.2612     684.6426   1424.05884     732.2612     684.6426
   1424.04358     733.6598     684.5630   1424.04358     733.6598     684.5630
   1424.02832     732.4404     685.0029   1424.02832     732.4404     685.0029
   1424.01306     730.9379     684.9272   1424.01306     730.9379     684.9272
   1423.99780     731.2925     686.0839   1423.99780     731.2925     686.0839
   1423.98254     732.0917     685.4695   1423.98254     732.0917     685.4695
   1423.96729     732.3222     685.8096   1423.96729     732.3222     685.8096
   1423.95203     732.2988     685.5178   1423.95203     732.2988     685.5178
   1423.93677     732.0606     685.5049   1423.93677     732.0606     685.5049
   1423.92151     732.2484     686.2975   1423.92151     732.2484     686.2975
   1423.90625     730.4626     685.0879   1423.90625     730.4626     685.0879
   1423.89099     730.2183     686.5189   1423.89099     730.2183     686.5189
   1423.87573     730.8292     685.6301   1423.87573     730.8292     685.6301
   1423.86047     729.8525     685.5460   1423.86047     729.8525     685.5460
   1423.84521     730.2885     684.9885   1423.84521     730.2885     684.9885
   1423.82996     728.9527     685.1257   1423.82996     728.9527     685.1257
   1423.81470     728.1516     685.5420   1423.81470     728.1516     685.5420
   1423.79944     729.5639     685.5129   1423.79944     729.5639     685.5129
   1423.78418     727.9581     686.9538   1423.78418     727.9581     686.9538
   1423.76892     727.8207     685.6489   1423.76892     727.8207     685.6489
   1423.75366     728.0230     684.4991   1423.75366     728.0230     684.4991
   1423.73840     728.2101     683.7783   1423.73840     728.2101     683.7783
   1423.72314     727.0950     684.8115   1423.72314     727.0950     684.8115
   1423.70789     727.3444     684.4425   1423.70789     727.3444     684.4425
   1423.69263     727.0433     683.7521   1423.69263     727.0433     683.7521
   1423.67737     726.8425     683.2736   1423.67737     726.8425     683.2736
   1423.66211     725.6503     683.9979   1423.66211     725.6503     683.9979
   1423.64685     726.4605     682.6765   1423.64685     726.4605     682.6765
   1423.63159     725.5494     682.6164   1423.63159     725.5494     682.6164
   1423.61633     724.7150     681.2765   1423.61633     724.7150     681.2765
   1423.60107     724.2957     679.9634   1423.60107     724.2957     679.9634
   1423.58582     725.3461     680.8115   1423.58582     725.3461     680.8115
   1423.57056     724.6105     681.4727   1423.57056     724.6105     681.4727
   1423.55530     723.9958     680.0236   1423.55530     723.9958     680.0236
   1423.54004     724.3703     680.7988   1423.54004     724.3703     680.7988
   1423.52478     723.8001     678.8503   1423.52478     723.8001     678.8503
   1423.50952     723.0110     679.0815   1423.50952     723.0110     679.0815
   1423.49426     723.0205     677.6602   1423.49426     723.0205     677.6602
   1423.47900     722.0416     677.1611   1423.47900     722.0416     677.1611
   1423.46375     723.0248     676.4786   1423.46375     723.0248     676.4786
   1423.44849     722.4561     676.5581   1423.44849     722.4561     676.5581
   1423.43323     722.0784     676.2706   1423.43323     722.0784     676.2706
   1423.41797     721.3361     676.1913   1423.41797     721.3361     676.1913
   1423.40271     721.8246     675.2722   1423.40271     721.8246     675.2722
   1423.38745     721.0161     675.2520   1423.38745     721.0161     675.2520
   1423.37219     719.5862     676.1676   1423.37219     719.5862     676.1676
   1423.35693     719.4446     673.7173   1423.35693     719.4446     673.7173
   1423.34167     720.2762     672.4459   1423.34167     720.2762     672.4459
   1423.32642     720.0931     673.2470   1423.32642     720.0931     673.2470
   1423.31116     720.0916     671.7127   1423.31116     720.0916     671.7127
   1423.29590     720.5986     670.3094   1423.29590     720.5986     670.3094
   1423.28064     719.1676     671.6045   1423.28064     719.1676     671.6045
   1423.26538     720.0889     669.4929   1423.26538     720.0889     669.4929
   1423.25012     718.0250     667.6782   1423.25012     718.0250     667.6782
   1423.23486     718.7996     666.7727   1423.23486     718.7996     666.7727
   1423.21960     718.8639     665.8735   1423.21960     718.8639     665.8735
   1423.20435     717.5974     666.1057   1423.20435     717.5974     666.1057
   1423.18909     716.3937     665.5441   1423.18909     716.3937     665.5441
   1423.17383     717.9020     664.1503   1423.17383     717.9020     664.1503
   1423.15857     716.6913     663.6155   1423.15857     716.6913     663.6155
   1423.14331     716.1758     662.1572   1423.14331     716.1758     662.1572
   1423.12805     715.8911     662.3221   1423.12805     715.8911     662.3221
   1423.11279     715.9124     660.1533   1423.11279     715.9124     660.1533
   1423.09753     716.4844     659.8538   1423.09753     716.4844     659.8538
   1423.08228     715.9525     659.4279   1423.08228     715.9525     659.4279
   1423.06702     714.9282     657.1431   1423.06702     714.9282     657.1431
   1423.05176     715.2680     655.9523   1423.05176     715.2680     655.9523
   1423.03650     713.6336     655.9907   1423.03650     713.6336     655.9907
   1423.02124     714.4082     654.4447   1423.02124     714.4082     654.4447
   1423.00598     714.2981     653.5751   1423.00598     714.2981     653.5751
   1422.99072     714.1715     653.4425   1422.99072     714.1715     653.4425
   1422.97546     712.6091     652.0528   1422.97546     712.6091     652.0528
   1422.96021     714.2897     650.9788   1422.96021     714.2897     650.9788
   1422.94495     714.0931     649.5044   1422.94495     714.0931     649.5044
   1422.92969     714.3351     647.5974   1422.92969     714.3351     647.5974
   1422.91443     712.9298     647.3854   1422.91443     712.9298     647.3854
   1422.89917     713.1119     645.8831   1422.89917     713.1119     645.8831
   1422.88391     713.3098     645.3496   1422.88391     713.3098     645.3496
   1422.86865     712.1478     643.5883   1422.86865     712.1478     643.5883
   1422.85339     711.5163     643.2828   1422.85339     711.5163     643.2828
   1422.83813     711.5452     641.7071   1422.83813     711.5452     641.7071
   1422.82288     711.7276     639.9901   1422.82288     711.7276     639.9901
   1422.80762     710.8129     639.9699   1422.80762     710.8129     639.9699
   1422.79236     711.5938     639.1721   1422.79236     711.5938     639.1721
   1422.77710     710.8269     635.2230   1422.77710     710.8269     635.2230
   1422.76184     709.7933     636.3511   1422.76184     709.7933     636.3511
   1422.74658     709.5413     634.1155   1422.74658     709.5413     634.1155
   1422.73132     710.4871     633.8082   1422.73132     710.4871     633.8082
   1422.71606     709.4915     631.7431   1422.71606     709.4915     631.7431
   1422.70081     708.7906     631.3872   1422.70081     708.7906     631.3872
   1422.68555     709.7825     629.8038   1422.68555     709.7825     629.8038
   1422.67029     709.5015     627.9448   1422.67029     709.5015     627.9448
   1422.65503     709.6556     628.1066   1422.65503     709.6556     628.1066
   1422.63977     708.2590     625.8353   1422.63977     708.2590     625.8353
   1422.62451     708.2633     624.6120   1422.62451     708.2633     624.6120
   1422.60925     709.1747     623.4328   1422.60925     709.1747     623.4328
   1422.59399     707.2177     622.1268   1422.59399     707.2177     622.1268
   1422.57874     707.4623     620.5123   1422.57874     707.4623     620.5123
   1422.56348     708.0460     620.0404   1422.56348     708.0460     620.0404
   1422.54822     706.8760     618.3033   1422.54822     706.8760     618.3033
   1422.53296     707.2809     617.2617   1422.53296     707.2809     617.2617
   1422.51770     706.7255     615.9957   1422.51770     706.7255     615.9957
   1422.50244     706.5960     614.6069   1422.50244     706.5960     614.6069
   1422.48718     706.4356     612.5053   1422.48718     706.4356     612.5053
   1422.47192     706.3907     611.3860   1422.47192     706.3907     611.3860
   1422.45667     705.4673     609.6358   1422.45667     705.4673     609.6358
   1422.44141     705.4887     608.0449   1422.44141     705.4887     608.0449
   1422.42615     705.9118     608.2938   1422.42615     705.9118     608.2938
   1422.41089     705.1897     606.3340   1422.41089     705.1897     606.3340
   1422.39563     705.6273     605.0902   1422.39563     705.6273     605.0902
   1422.38037     704.6042     603.0542   1422.38037     704.6042     603.0542
   1422.36511     705.1813     602.0358   1422.36511     705.1813     602.0358
   1422.34985     704.0884     599.8435   1422.34985     704.0884     599.8435
   1422.33459     704.5703     598.9976   1422.33459     704.5703     598.9976
   1422.31934     704.4861     598.4122   1422.31934     704.4861     598.4122
   1422.30408     703.7709     596.1899   1422.30408     703.7709     596.1899
   1422.28882     703.2863     595.1499   1422.28882     703.2863     595.1499
   1422.27356     703.0172     593.0535   1422.27356     703.0172     593.0535
   1422.25830     702.4988     592.3195   1422.25830     702.4988     592.3195
   1422.24304     703.6429     591.4568   1422.24304     703.6429     591.4568
   1422.22778     702.5101     589.8406   1422.22778     702.5101     589.8406
   1422.21252     703.7068     588.5181   1422.21252     703.7068     588.5181
   1422.19727     702.0917     586.3989   1422.19727     702.0917     586.3989
   1422.18201     703.0839     584.5513   1422.18201     703.0839     584.5513
   1422.16675     701.9535     584.0995   1422.16675     701.9535     584.0995
   1422.15149     701.9561     582.1493   1422.15149     701.9561     582.1493
   1422.13623     701.2084     581.4432   1422.13623     701.2084     581.4432
   1422.12097     700.6222     579.8962   1422.12097     700.6222     579.8962
   1422.10571     701.5298     578.3740   1422.10571     701.5298     578.3740
   1422.09045     701.8290     576.6960   1422.09045     701.8290     576.6960
   1422.07520     700.3036     575.2148   1422.07520     700.3036     575.2148
   1422.05994     701.2169     573.9703   1422.05994     701.2169     573.9703
   1422.04468     699.3721     572.3260   1422.04468     699.3721     572.3260
   1422.02942     699.6559     570.4743   1422.02942     699.6559     570.4743
   1422.01416     700.8711     569.5156   1422.01416     700.8711     569.5156
   1421.99890     699.2514     568.1689   1421.99890     699.2514     568.1689
   1421.98364     698.9630     567.0659   1421.98364     698.9630     567.0659
   1421.96838     699.0684     565.4425   1421.96838     699.0684     565.4425
   1421.95312     699.3322     564.0926   1421.95312     699.3322     564.0926
   1421.93787     698.6503     563.3504   1421.93787     698.6503     563.3504
   1421.92261     698.5908     560.9846   1421.92261     698.5908     560.9846
   1421.90735     699.5530     559.1815   1421.90735     699.5530     559.1815
   1421.89209     697.8268     558.3830   1421.89209     697.8268     558.3830
   1421.87683     698.1441     556.3210   1421.87683     698.1441     556.3210
   1421.86157     698.4332     555.0942   1421.86157     698.4332     555.0942
   1421.84631     697.2560     554.3041   1421.84631     697.2560     554.3041
   1421.83105     697.3329     552.2955   1421.83105     697.3329     552.2955
   1421.81580     697.6328     552.6809   1421.81580     697.6328     552.6809
   1421.80054     697.3756     549.8642   1421.80054     697.3756     549.8642
   1421.78528     697.2612     548.0530   1421.78528     697.2612     548.0530
   1421.77002     695.7528     547.6130   1421.77002     695.7528     547.6130
   1421.75476     696.3417     546.3278   1421.75476     696.3417     546.3278
   1421.73950     696.3488     543.0909   1421.73950     696.3488     543.0909
   1421.72424     696.8824     543.5765   1421.72424     696.8824     543.5765
   1421.70898     696.2169     541.9662   1421.70898     696.2169     541.9662
   1421.69373     695.5381     540.4758   1421.69373     695.5381     540.4758
   1421.67847     696.4477     538.9918   1421.67847     696.4477     538.9918
   1421.66321     695.0684     536.7950   1421.66321     695.0684     536.7950
   1421.64795     693.7547     536.3033   1421.64795     693.7547     536.3033
   1421.63269     694.9789     533.7540   1421.63269     694.9789     533.7540
   1421.61743     694.1873     533.2695   1421.61743     694.1873     533.2695
   1421.60217     694.6108     531.6365   1421.60217     694.6108     531.6365
   1421.58691     694.1176     530.8217   1421.58691     694.1176     530.8217
   1421.57166     693.7383     529.7825   1421.57166     693.7383     529.7825
   1421.55640     693.3369     527.7479   1421.55640     693.3369     527.7479
   1421.54114     693.8492     526.2171   1421.54114     693.8492     526.2171
   1421.52588     693.6544     525.3674   1421.52588     693.6544     525.3674
   1421.51062     693.0544     523.4559   1421.51062     693.0544     523.4559
   1421.49536     693.1677     522.7349   1421.49536     693.1677     522.7349
   1421.48010     692.7737     521.0571   1421.48010     692.7737     521.0571
   1421.46484     692.1887     519.4204   1421.46484     692.1887     519.4204
   1421.44958     693.0262     518.9234   1421.44958     693.0262     518.9234
   1421.43433     692.0314     516.8633   1421.43433     692.0314     516.8633
   1421.41907     691.1244     515.7835   1421.41907     691.1244     515.7835
   1421.40381     691.4747     514.7795   1421.40381     691.4747     514.7795
   1421.38855     691.3721     513.7125   1421.38855     691.3721     513.7125
   1421.37329     690.5315     513.1695   1421.37329     690.5315     513.1695
   1421.35803     691.1656     510.5569   1421.35803     691.1656     510.5569
   1421.34277     690.5667     509.5864   1421.34277     690.5667     509.5864
   1421.32751     690.3857     508.7136   1421.32751     690.3857     508.7136
   1421.31226     689.9352     507.3234   1421.31226     689.9352     507.3234
   1421.29700     690.5082     506.6990   1421.29700     690.5082     506.6990
   1421.28174     688.4245     504.7489   1421.28174     688.4245     504.7489
   1421.26648     688.2985     503.6436   1421.26648     688.2985     503.6436
   1421.25122     689.0339     502.0193   1421.25122     689.0339     502.0193
   1421.23596     688.6617     500.3294   1421.23596     688.6617     500.3294
   1421.22070     688.4165     499.9412   1421.22070     688.4165     499.9412
   1421.20544     687.3231     499.6473   1421.20544     687.3231     499.6473
   1421.19019     687.0601     498.0227   1421.19019     687.0601     498.0227
   1421.17493     686.9288     496.1035   1421.17493     686.9288     496.1035
   1421.15967     688.4589     495.6248   1421.15967     688.4589     495.6248
   1421.14441     686.9046     493.2822   1421.14441     686.9046     493.2822
   1421.12915     685.9983     493.1647   1421.12915     685.9983     493.1647
   1421.11389     687.1517     491.0680   1421.11389     687.1517     491.0680
   1421.09863     686.2020     490.8051   1421.09863     686.2020     490.8051
   1421.08337     684.9453     489.3667   1421.08337     684.9453     489.3667
   1421.06812     686.9582     488.0839   1421.06812     686.9582     488.0839
   1421.05286     685.8959     486.9976   1421.05286     685.8959     486.9976
   1421.03760     685.5021     485.8615   1421.03760     685.5021     485.8615
   1421.02234     684.4761     484.7702   1421.02234     684.4761     484.7702
   1421.00708     684.8231     482.7574   1421.00708     684.8231     482.7574
   1420.99182     684.6138     482.4952   1420.99182     684.6138     482.4952
   1420.97656     685.0007     482.0753   1420.97656     685.0007     482.0753
   1420.96130     684.0043     480.5831   1420.96130     684.0043     480.5831
   1420.94604     685.4158     479.6363   1420.94604     685.4158     479.6363
   1420.93079     684.4708     478.3052   1420.93079     684.4708     478.3052
   1420.91553     683.7985     478.2550   1420.91553     683.7985     478.2550
   1420.90027     683.9130     475.5073   1420.90027     683.9130     475.5073
   1420.88501     682.7567     475.3378   1420.88501     682.7567     475.3378
   1420.86975     683.6841     474.5541   1420.86975     683.6841     474.5541
   1420.85449     682.2902     473.3069   1420.85449     682.2902     473.3069
   1420.83923     683.6776     471.7431   1420.83923     683.6776     471.7431
   1420.82397     682.9797     471.9549   1420.82397     682.9797     471.9549
   1420.80872     682.7255     470.1416   1420.80872     682.7255     470.1416
   1420.79346     683.2110     469.6235   1420.79346     683.2110     469.6235
   1420.77820     683.5050     468.6465   1420.77820     683.5050     468.6465
   1420.76294     683.4811     468.3818   1420.76294     683.4811     468.3818
   1420.74768     683.5710     466.6566   1420.74768     683.5710     466.6566
   1420.73242     682.9301     467.4727   1420.73242     682.9301     467.4727
   1420.71716     683.4001     465.3553   1420.71716     683.4001     465.3553
   1420.70190     683.9821     464.9539   1420.70190     683.9821     464.9539
   1420.68665     683.9160     463.4223   1420.68665     683.9160     463.4223
   1420.67139     683.5348     462.7344   1420.67139     683.5348     462.7344
   1420.65613     682.7275     461.7685   1420.65613     682.7275     461.7685
   1420.64087     681.5698     459.8456   1420.64087     681.5698     459.8456
   1420.62561     682.6829     459.0683   1420.62561     682.6829     459.0683
   1420.61035     682.0358     458.6036   1420.61035     682.0358     458.6036
   1420.59509     682.8305     458.3629   1420.59509     682.8305     458.3629
   1420.57983     682.6938     457.1230   1420.57983     682.6938     457.1230
   1420.56458     683.6351     457.5218   1420.56458     683.6351     457.5218
   1420.54932     684.8332     457.8801   1420.54932     684.8332     457.8801
   1420.53406     685.7830     457.7247   1420.53406     685.7830     457.7247
   1420.51880     686.5767     457.7743   1420.51880     686.5767     457.7743
   1420.50354     686.7971     457.5032   1420.50354     686.7971     457.5032
   1420.48828     688.5039     456.1644   1420.48828     688.5039     456.1644
   1420.47302     684.8649     454.6792   1420.47302     684.8649     454.6792
   1420.45776     684.6652     453.9957   1420.45776     684.6652     453.9957
   1420.44250     685.5216     451.6861   1420.44250     685.5216     451.6861
   1420.42725     684.7720     451.3381   1420.42725     684.7720     451.3381
   1420.41199     683.7036     450.6422   1420.41199     683.7036     450.6422
   1420.39673     683.9327     450.1019   1420.39673     683.9327     450.1019
   1420.38147     685.0577     449.7347   1420.38147     685.0577     449.7347
   1420.36621     685.0524     449.0295   1420.36621     685.0524     449.0295
   1420.35095     684.9579     449.2462   1420.35095     684.9579     449.2462
   1420.33569     684.6989     448.9312   1420.33569     684.6989     448.9312
   1420.32043     687.3172     448.9589   1420.32043     687.3172     448.9589
   1420.30518     690.3312     450.3921   1420.30518     690.3312     450.3921
   1420.28992     694.4160     452.5816   1420.28992     694.4160     452.5816
   1420.27466     704.7631     457.8021   1420.27466     704.7631     457.8021
   1420.25940     734.7605     475.9071   1420.25940     734.7605     475.9071
   1420.24414     850.6479     547.7500   1420.24414     850.6479     547.7500
   1420.22888    1325.4637     839.5150   1420.22888    1325.4637     839.5150
   1420.21362    1335.9067     848.0110   1420.21362    1335.9067     848.0110
   1420.19836    1081.6398     687.5847   1420.19836    1081.6398     687.5847
   1420.18311    1095.2015     694.9712   1420.18311    1095.2015     694.9712
   1420.16785    1166.3503     738.5712   1420.16785    1166.3503     738.5712
   1420.15259    1382.1512     870.2350   1420.15259    1382.1512     870.2350
   1420.13733    1736.8700    1087.4126   1420.13733    1736.8700    1087.4126
   1420.12207    1864.2043    1165.2936   1420.12207    1864.2043    1165.2936
   1420.10681    1731.7528    1084.8925   1420.10681    1731.7528    1084.8925
   1420.09155    1751.1720    1094.0701   1420.09155    1751.1720    1094.0701
   1420.07629    1657.4574    1033.5488   1420.07629    1657.4574    1033.5488
   1420.06104    1533.2811     956.7363   1420.06104    1533.2811     956.7363
   1420.04578    1709.8016    1064.9454   1420.04578    1709.8016    1064.9454
   1420.03052    2102.8127    1300.6151   1420.03052    2102.8127    1300.6151
   1420.01526    2228.2610    1379.1539   1420.01526    2228.2610    1379.1539
   1420.00000    2026.9849    1257.3342   1420.00000    2026.9849    1257.3342
   1419.98474    1825.7095    1135.5151   1419.98474    1825.7095    1135.5151
   1419.96948    1686.9266    1047.8412   1419.96948    1686.9266    1047.8412
   1419.95422    1550.5753     959.9109   1419.95422    1550.5753     959.9109
   1419.93896    1301.9767     810.1058   1419.93896    1301.9767     810.1058
   1419.92371    1273.3944     790.8478   1419.92371    1273.3944     790.8478
   1419.90845    1433.2212     887.4465   1419.90845    1433.2212     887.4465
   1419.89319    1505.4755     931.2645   1419.89319    1505.4755     931.2645
   1419.87793    1406.0371     869.7986   1419.87793    1406.0371     869.7986
   1419.86267    1201.1350     743.8123   1419.86267    1201.1350     743.8123
   1419.84741    1060.3489     659.1381   1419.84741    1060.3489     659.1381
   1419.83215     960.3442     596.3493   1419.83215     960.3442     596.3493
   1419.81689     878.5585     547.8391   1419.81689     878.5585     547.8391
   1419.80164     825.4590     515.0496   1419.80164     825.4590     515.0496
   1419.78638     785.4246     489.8073   1419.78638     785.4246     489.8073
   1419.77112     755.0145     472.2764   1419.77112     755.0145     472.2764
   1419.75586     732.2202     458.5210   1419.75586     732.2202     458.5210
   1419.74060     716.6931     447.8152   1419.74060     716.6931     447.8152
   1419.72534     704.6298     440.9512   1419.72534     704.6298     440.9512
   1419.71008     695.3796     434.5334   1419.71008     695.3796     434.5334
   1419.69482     689.5764     429.6955   1419.69482     689.5764     429.6955
   1419.67957     684.4333     426.5060   1419.67957     684.4333     426.5060
   1419.66431     681.1655     425.1034   1419.66431     681.1655     425.1034
   1419.64905     678.2986     422.9253   1419.64905     678.2986     422.9253
   1419.63379     678.5769     421.8611   1419.63379     678.5769     421.8611
   1419.61853     677.1360     422.0381   1419.61853     677.1360     422.0381
   1419.60327     676.5952     420.8985   1419.60327     676.5952     420.8985
   1419.58801     676.3988     420.4992   1419.58801     676.3988     420.4992
   1419.57275     677.0275     419.9225   1419.57275     677.0275     419.9225
   1419.55750     676.0187     420.1564   1419.55750     676.0187     420.1564
   1419.54224     676.2962     419.7959   1419.54224     676.2962     419.7959
   1419.52698     677.4823     419.2213   1419.52698     677.4823     419.2213
   1419.51172     677.9058     418.6729   1419.51172     677.9058     418.6729
   1419.49646     677.0098     419.4897   1419.49646     677.0098     419.4897
   1419.48120     677.4029     419.2419   1419.48120     677.4029     419.2419
   1419.46594     677.6250     418.0937   1419.46594     677.6250     418.0937
   1419.45068     678.0063     418.7557   1419.45068     678.0063     418.7557
   1419.43542     678.4933     418.8544   1419.43542     678.4933     418.8544
   1419.42017     678.4596     418.6344   1419.42017     678.4596     418.6344
   1419.40491     678.4814     418.7257   1419.40491     678.4814     418.7257
   1419.38965     679.6470     418.3400   1419.38965     679.6470     418.3400
   1419.37439     678.2625     417.8653   1419.37439     678.2625     417.8653
   1419.35913     679.3936     418.3010   1419.35913     679.3936     418.3010
   1419.34387     679.7952     417.6006   1419.34387     679.7952     417.6006
   1419.32861     679.0166     418.6123   1419.32861     679.0166     418.6123
   1419.31335     680.5666     417.6734   1419.31335     680.5666     417.6734
   1419.29810     681.0866     417.9864   1419.29810     681.0866     417.9864
   1419.28284     681.3897     418.0732   1419.28284     681.3897     418.0732
   1419.26758     683.0778     417.9749   1419.26758     683.0778     417.9749
   1419.25232     682.6024     417.9453   1419.25232     682.6024     417.9453
   1419.23706     682.9536     417.7884   1419.23706     682.9536     417.7884
   1419.22180     682.3896     418.1079   1419.22180     682.3896     418.1079
   1419.20654     683.0620     418.4618   1419.20654     683.0620     418.4618
   1419.19128     683.1288     418.8447   1419.19128     683.1288     418.8447
   1419.17603     684.1066     418.2539   1419.17603     684.1066     418.2539
   1419.16077     684.9072     418.4030   1419.16077     684.9072     418.4030
   1419.14551     684.8574     418.2927   1419.14551     684.8574     418.2927
   1419.13025     684.7201     419.0421   1419.13025     684.7201     419.0421
   1419.11499     686.7882     419.0606   1419.11499     686.7882     419.0606
   1419.09973     686.9950     418.7156   1419.09973     686.9950     418.7156
   1419.08447     687.4703     419.8780   1419.08447     687.4703     419.8780
   1419.06921     687.7744     419.5869   1419.06921     687.7744     419.5869
   1419.05396     688.5727     419.0993   1419.05396     688.5727     419.0993
   1419.03870     689.4046     420.3472   1419.03870     689.4046     420.3472
   1419.02344     689.3085     420.0869   1419.02344     689.3085     420.0869
   1419.00818     690.6246     419.7252   1419.00818     690.6246     419.7252
   1418.99292     691.5906     419.9368   1418.99292     691.5906     419.9368
   1418.97766     690.8956     420.4374   1418.97766     690.8956     420.4374
   1418.96240     692.4753     421.1022   1418.96240     692.4753     421.1022
   1418.94714     691.7379     420.9702   1418.94714     691.7379     420.9702
   1418.93188     693.4321     421.6118   1418.93188     693.4321     421.6118
   1418.91663     694.7278     421.3603   1418.91663     694.7278     421.3603
   1418.90137     694.8176     422.0428   1418.90137     694.8176     422.0428
   1418.88611     694.9645     421.5367   1418.88611     694.9645     421.5367
   1418.87085     695.2767     423.0471   1418.87085     695.2767     423.0471
   1418.85559     696.5284     422.8241   1418.85559     696.5284     422.8241
   1418.84033     697.3415     422.8434   1418.84033     697.3415     422.8434
   1418.82507     698.4582     422.5457   1418.82507     698.4582     422.5457
   1418.80981     699.3155     423.6693   1418.80981     699.3155     423.6693
   1418.79456     699.0031     424.1933   1418.79456     699.0031     424.1933
   1418.77930     700.1259     424.3966   1418.77930     700.1259     424.3966
   1418.76404     701.8866     424.1436   1418.76404     701.8866     424.1436
   1418.74878     702.2416     424.6871   1418.74878     702.2416     424.6871
   1418.73352     702.1657     424.8787   1418.73352     702.1657     424.8787
   1418.71826     703.1998     425.2146   1418.71826     703.1998     425.2146
   1418.70300     703.7169     425.8425   1418.70300     703.7169     425.8425
   1418.68774     704.8580     426.1729   1418.68774     704.8580     426.1729
   1418.67249     705.4134     426.1672   1418.67249     705.4134     426.1672
   1418.65723     705.8813     426.3570   1418.65723     705.8813     426.3570
   1418.64197     707.2095     427.4132   1418.64197     707.2095     427.4132
   1418.62671     707.2942     427.0884   1418.62671     707.2942     427.0884
   1418.61145     708.5269     427.8189   1418.61145     708.5269     427.8189
   1418.59619     710.5457     428.8258   1418.59619     710.5457     428.8258
   1418.58093     710.4108     429.1035   1418.58093     710.4108     429.1035
   1418.56567     711.3207     428.4788   1418.56567     711.3207     428.4788
   1418.55042     712.6879     429.9506   1418.55042     712.6879     429.9506
   1418.53516     713.3712     429.6974   1418.53516     713.3712     429.6974
   1418.51990     714.8329     430.4007   1418.51990     714.8329     430.4007
   1418.50464     714.9503     430.9370   1418.50464     714.9503     430.9370
   1418.48938     715.9497     431.4038   1418.48938     715.9497     431.4038
   1418.47412     715.1254     432.6234   1418.47412     715.1254     432.6234
   1418.45886     717.7647     431.8486   1418.45886     717.7647     431.8486
   1418.44360     718.4665     433.1654   1418.44360     718.4665     433.1654
   1418.42834     720.2114     433.4149   1418.42834     720.2114     433.4149
   1418.41309     719.5742     433.3682   1418.41309     719.5742     433.3682
   1418.39783     721.2528     434.5800   1418.39783     721.2528     434.5800
   1418.38257     722.5556     434.7971   1418.38257     722.5556     434.7971
   1418.36731     723.0276     436.2484   1418.36731     723.0276     436.2484
   1418.35205     724.4075     435.7755   1418.35205     724.4075     435.7755
   1418.33679     724.8764     436.4553   1418.33679     724.8764     436.4553
   1418.32153     726.9269     437.1214   1418.32153     726.9269     437.1214
   1418.30627     727.8618     437.4659   1418.30627     727.8618     437.4659
   1418.29102     728.1214     438.2744   1418.29102     728.1214     438.2744
   1418.27576     729.6445     438.0977   1418.27576     729.6445     438.0977
   1418.26050     731.5693     439.1050   1418.26050     731.5693     439.1050
   1418.24524     731.2344     439.6362   1418.24524     731.2344     439.6362
   1418.22998     732.8687     440.0756   1418.22998     732.8687     440.0756
   1418.21472     734.7744     440.9937   1418.21472     734.7744     440.9937
   1418.19946     735.8733     441.2718   1418.19946     735.8733     441.2718
   1418.18420     735.0450     442.5258   1418.18420     735.0450     442.5258
   1418.16895     737.5405     442.7914   1418.16895     737.5405     442.7914
   1418.15369     738.8473     442.7748   1418.15369     738.8473     442.7748
   1418.13843     739.1534     444.0039   1418.13843     739.1534     444.0039
   1418.12317     741.0005     443.7775   1418.12317     741.0005     443.7775
   1418.10791     742.7342     445.1759   1418.10791     742.7342     445.1759
   1418.09265     743.4573     445.3624   1418.09265     743.4573     445.3624
   1418.07739     743.7768     445.4406   1418.07739     743.7768     445.4406
   1418.06213     745.0908     446.1793   1418.06213     745.0908     446.1793
   1418.04688     746.3517     446.3983   1418.04688     746.3517     446.3983
   1418.03162     748.0175     448.0563   1418.03162     748.0175     448.0563
   1418.01636     747.9301     448.2808   1418.01636     747.9301     448.2808
   1418.00110     748.4321     447.6700   1418.00110     748.4321     447.6700
   1417.98584     750.5308     448.8344   1417.98584     750.5308     448.8344
   1417.97058     751.5027     450.2814   1417.97058     751.5027     450.2814
   1417.95532     753.1683     450.9966   1417.95532     753.1683     450.9966
   1417.94006     752.8442     451.2842   1417.94006     752.8442     451.2842
   1417.92480     754.8984     450.9423   1417.92480     754.8984     450.9423
   1417.90955     757.7520     451.9038   1417.90955     757.7520     451.9038
   1417.89429     759.7375     453.4481   1417.89429     759.7375     453.4481
   1417.87903     758.7040     452.8511   1417.87903     758.7040     452.8511
   1417.86377     760.2921     454.0744   1417.86377     760.2921     454.0744
   1417.84851     761.6394     454.5590   1417.84851     761.6394     454.5590
   1417.83325     762.5999     455.8052   1417.83325     762.5999     455.8052
   1417.81799     764.6182     456.4121   1417.81799     764.6182     456.4121
   1417.80273     764.8564     456.0708   1417.80273     764.8564     456.0708
   1417.78748     767.2855     456.9406   1417.78748     767.2855     456.9406
   1417.77222     768.3121     458.3699   1417.77222     768.3121     458.3699
   1417.75696     768.9274     458.2563   1417.75696     768.9274     458.2563
   1417.74170     769.5950     459.2102   1417.74170     769.5950     459.2102
   1417.72644     771.8120     459.3963   1417.72644     771.8120     459.3963
   1417.71118     772.3553     459.7709   1417.71118     772.3553     459.7709
   1417.69592     773.1288     460.9121   1417.69592     773.1288     460.9121
   1417.68066     774.9482     462.4549   1417.68066     774.9482     462.4549
   1417.66541     776.7994     462.4517   1417.66541     776.7994     462.4517
   1417.65015     777.8648     463.0998   1417.65015     777.8648     463.0998
   1417.63489     779.0927     463.0752   1417.63489     779.0927     463.0752
   1417.61963     780.0262     464.2205   1417.61963     780.0262     464.2205
   1417.60437     781.8582     464.3427   1417.60437     781.8582     464.3427
   1417.58911     781.8897     465.0483   1417.58911     781.8897     465.0483
   1417.57385     783.5146     465.4003   1417.57385     783.5146     465.4003
   1417.55859     786.1075     467.0642   1417.55859     786.1075     467.0642
   1417.54333     785.9751     467.4467   1417.54333     785.9751     467.4467
   1417.52808     789.3736     468.2789   1417.52808     789.3736     468.2789
   1417.51282     788.2496     468.4497   1417.51282     788.2496     468.4497
   1417.49756     790.1077     469.3861   1417.49756     790.1077     469.3861
   1417.48230     789.8347     470.0268   1417.48230     789.8347     470.0268
   1417.46704     793.4508     469.9901   1417.46704     793.4508     469.9901
   1417.45178     793.6165     470.9257   1417.45178     793.6165     470.9257
   1417.43652     793.7267     469.9754   1417.43652     793.7267     469.9754
   1417.42126     796.2726     472.5463   1417.42126     796.2726     472.5463
   1417.40601     797.0416     472.7073   1417.40601     797.0416     472.7073
   1417.39075     797.7589     472.9203   1417.39075     797.7589     472.9203
   1417.37549     799.2430     473.7235   1417.37549     799.2430     473.7235
   1417.36023     800.7031     474.1987   1417.36023     800.7031     474.1987
   1417.34497     801.1309     475.0392   1417.34497     801.1309     475.0392
   1417.32971     804.4050     475.3847   1417.32971     804.4050     475.3847
   1417.31445     803.8743     476.4204   1417.31445     803.8743     476.4204
   1417.29919     805.8488     477.0541   1417.29919     805.8488     477.0541
   1417.28394     806.5268     476.8680   1417.28394     806.5268     476.8680
   1417.26868     807.6058     478.0209   1417.26868     807.6058     478.0209
   1417.25342     808.0388     478.6186   1417.25342     808.0388     478.6186
   1417.23816     809.2983     478.6883   1417.23816     809.2983     478.6883
   1417.22290     812.8187     479.7163   1417.22290     812.8187     479.7163
   1417.20764     812.6348     480.5822   1417.20764     812.6348     480.5822
   1417.19238     811.8868     481.4101   1417.19238     811.8868     481.4101
   1417.17712     813.6171     480.6996   1417.17712     813.6171     480.6996
   1417.16187     813.7935     482.3951   1417.16187     813.7935     482.3951
   1417.14661     815.8953     481.9712   1417.14661     815.8953     481.9712
   1417.13135     816.6918     483.2753   1417.13135     816.6918     483.2753
   1417.11609     818.6005     483.7362   1417.11609     818.6005     483.7362
   1417.10083     818.6371     483.6996   1417.10083     818.6371     483.6996
   1417.08557     819.2928     484.8401   1417.08557     819.2928     484.8401
   1417.07031     822.1691     484.6223   1417.07031     822.1691     484.6223
   1417.05505     821.0930     485.5509   1417.05505     821.0930     485.5509
   1417.03979     822.7281     485.5841   1417.03979     822.7281     485.5841
   1417.02454     822.8153     486.7997   1417.02454     822.8153     486.7997
   1417.00928     823.7092     486.5840   1417.00928     823.7092     486.5840
   1416.99402     826.2449     487.2196   1416.99402     826.2449     487.2196
   1416.97876     825.7874     487.3134   1416.97876     825.7874     487.3134
   1416.96350     827.9645     487.5417   1416.96350     827.9645     487.5417
   1416.94824     829.2774     488.1716   1416.94824     829.2774     488.1716
   1416.93298     829.8615     488.8893   1416.93298     829.8615     488.8893
   1416.91772     828.9320     489.1180   1416.91772     828.9320     489.1180
   1416.90247     830.0518     489.5265   1416.90247     830.0518     489.5265
   1416.88721     830.6824     489.2113   1416.88721     830.6824     489.2113
   1416.87195     831.5386     489.9065   1416.87195     831.5386     489.9065
   1416.85669     832.3729     490.8115   1416.85669     832.3729     490.8115
   1416.84143     833.2631     490.9007   1416.84143     833.2631     490.9007
   1416.82617     834.9338     491.0292   1416.82617     834.9338     491.0292
   1416.81091     834.2460     491.2018   1416.81091     834.2460     491.2018
   1416.79565     835.0001     491.3494   1416.79565     835.0001     491.3494
   1416.78040     837.4519     492.3468   1416.78040     837.4519     492.3468
   1416.76514     836.5535     492.1463   1416.76514     836.5535     492.1463
   1416.74988     835.8505     492.3203   1416.74988     835.8505     492.3203
   1416.73462     837.4306     492.9885   1416.73462     837.4306     492.9885
   1416.71936     836.9550     493.3040   1416.71936     836.9550     493.3040
   1416.70410     838.7441     492.5047   1416.70410     838.7441     492.5047
   1416.68884     837.5825     493.1380   1416.68884     837.5825     493.1380
   1416.67358     838.4373     493.6487   1416.67358     838.4373     493.6487
   1416.65833     839.4034     494.2281   1416.65833     839.4034     494.2281
   1416.64307     839.0554     493.7241   1416.64307     839.0554     493.7241
   1416.62781     839.5429     494.1236   1416.62781     839.5429     494.1236
   1416.61255     839.2715     492.5194   1416.61255     839.2715     492.5194
   1416.59729     840.1544     493.7918   1416.59729     840.1544     493.7918
   1416.58203     839.6303     494.1464   1416.58203     839.6303     494.1464
   1416.56677     841.5390     493.7875   1416.56677     841.5390     493.7875
   1416.55151     842.6677     494.4926   1416.55151     842.6677     494.4926
   1416.53625     840.2004     494.6570   1416.53625     840.2004     494.6570
   1416.52100     842.3355     494.3746   1416.52100     842.3355     494.3746
   1416.50574     841.1803     494.3720   1416.50574     841.1803     494.3720
   1416.49048     842.5747     494.3359   1416.49048     842.5747     494.3359
   1416.47522     841.8129     494.3373   1416.47522     841.8129     494.3373
   1416.45996     841.8625     494.9532   1416.45996     841.8625     494.9532
   1416.44470     842.2751     494.7849   1416.44470     842.2751     494.7849
   1416.42944     841.3288     494.5329   1416.42944     841.3288     494.5329
   1416.41418     842.1259     494.3889   1416.41418     842.1259     494.3889
   1416.39893     841.4679     494.6281   1416.39893     841.4679     494.6281
   1416.38367     841.3611     494.9049   1416.38367     841.3611     494.9049
   1416.36841     841.6213     494.9113   1416.36841     841.6213     494.9113
   1416.35315     841.6099     495.1093   1416.35315     841.6099     495.1093
   1416.33789     841.3965     493.4293   1416.33789     841.3965     493.4293
   1416.32263     841.7101     493.3619   1416.32263     841.7101     493.3619
   1416.30737     841.5807     493.6735   1416.30737     841.5807     493.6735
   1416.29211     840.6290     494.2275   1416.29211     840.6290     494.2275
   1416.27686     840.7974     493.7808   1416.27686     840.7974     493.7808
   1416.26160     840.3461     493.6258   1416.26160     840.3461     493.6258
   1416.24634     839.7451     493.5410   1416.24634     839.7451     493.5410
   1416.23108     839.4037     493.4337   1416.23108     839.4037     493.4337
   1416.21582     840.1028     494.1754   1416.21582     840.1028     494.1754
   1416.20056     840.5849     492.8809   1416.20056     840.5849     492.8809
   1416.18530     838.8319     493.0270   1416.18530     838.8319     493.0270
   1416.17004     839.6563     492.9359   1416.17004     839.6563     492.9359
   1416.15479     838.9838     492.2044   1416.15479     838.9838     492.2044
   1416.13953     837.8300     492.6515   1416.13953     837.8300     492.6515
   1416.12427     838.6475     491.8719   1416.12427     838.6475     491.8719
   1416.10901     836.7073     492.2402   1416.10901     836.7073     492.2402
   1416.09375     836.6111     491.6697   1416.09375     836.6111     491.6697
   1416.07849     836.2540     492.2988   1416.07849     836.2540     492.2988
   1416.06323     836.9988     491.3440   1416.06323     836.9988     491.3440
   1416.04797     834.6985     491.4896   1416.04797     834.6985     491.4896
   1416.03271     835.0906     491.4662   1416.03271     835.0906     491.4662
   1416.01746     834.5815     490.9724   1416.01746     834.5815     490.9724
   1416.00220     833.9098     491.0959   1416.00220     833.9098     491.0959
   1415.98694     833.3877     491.4140   1415.98694     833.3877     491.4140
   1415.97168     831.3248     490.0280   1415.97168     831.3248     490.0280
   1415.95642     832.3090     489.8982   1415.95642     832.3090     489.8982
   1415.94116     832.5258     489.1588   1415.94116     832.5258     489.1588
   1415.92590     830.3182     489.4121   1415.92590     830.3182     489.4121
   1415.91064     830.6107     490.7747   1415.91064     830.6107     490.7747
   1415.89539     829.0688     489.2782   1415.89539     829.0688     489.2782
   1415.88013     828.6529     489.0309   1415.88013     828.6529     489.0309
   1415.86487     828.6115     489.5080   1415.86487     828.6115     489.5080
   1415.84961     827.5740     488.6183   1415.84961     827.5740     488.6183
   1415.83435     827.0386     488.3334   1415.83435     827.0386     488.3334
   1415.81909     826.5112     488.4670   1415.81909     826.5112     488.4670
   1415.80383     825.1252     487.3938   1415.80383     825.1252     487.3938
   1415.78857     824.7284     487.7032   1415.78857     824.7284     487.7032
   1415.77332     823.9966     487.4385   1415.77332     823.9966     487.4385
   1415.75806     822.2654     487.0580   1415.75806     822.2654     487.0580
   1415.74280     821.0662     487.2452   1415.74280     821.0662     487.2452
   1415.72754     821.6050     486.1877   1415.72754     821.6050     486.1877
   1415.71228     819.1345     486.6660   1415.71228     819.1345     486.6660
   1415.69702     818.3937     486.9883   1415.69702     818.3937     486.9883
   1415.68176     817.8320     486.6465   1415.68176     817.8320     486.6465
   1415.66650     816.5640     486.1206   1415.66650     816.5640     486.1206
   1415.65125     816.2213     485.7217   1415.65125     816.2213     485.7217
   1415.63599     816.4862     485.8224   1415.63599     816.4862     485.8224
   1415.62073     815.1050     484.9107   1415.62073     815.1050     484.9107
   1415.60547     813.4763     484.9188   1415.60547     813.4763     484.9188
   1415.59021     811.3801     484.1696   1415.59021     811.3801     484.1696
   1415.57495     812.0294     484.1099   1415.57495     812.0294     484.1099
   1415.55969     811.7564     483.9852   1415.55969     811.7564     483.9852
   1415.54443     809.0776     483.9853   1415.54443     809.0776     483.9853
   1415.52917     809.0938     482.6396   1415.52917     809.0938     482.6396
   1415.51392     808.1564     482.8591   1415.51392     808.1564     482.8591
   1415.49866     806.3605     483.7693   1415.49866     806.3605     483.7693
   1415.48340     804.6670     482.8467   1415.48340     804.6670     482.8467
   1415.46814     804.0372     482.4526   1415.46814     804.0372     482.4526
   1415.45288     805.6619     481.6959   1415.45288     805.6619     481.6959
   1415.43762     802.0889     482.2074   1415.43762     802.0889     482.2074
   1415.42236     799.5449     481.3812   1415.42236     799.5449     481.3812
   1415.40710     798.9844     481.3386   1415.40710     798.9844     481.3386
   1415.39185     798.8708     480.2962   1415.39185     798.8708     480.2962
   1415.37659     798.2135     480.8633   1415.37659     798.2135     480.8633
   1415.36133     795.8336     479.9833   1415.36133     795.8336     479.9833
   1415.34607     794.6049     479.4839   1415.34607     794.6049     479.4839
   1415.33081     793.5311     479.5393   1415.33081     793.5311     479.5393
   1415.31555     791.0876     478.7532   1415.31555     791.0876     478.7532
   1415.30029     790.0036     478.6682   1415.30029     790.0036     478.6682
   1415.28503     789.3253     478.3028   1415.28503     789.3253     478.3028
   1415.26978     788.1077     477.6792   1415.26978     788.1077     477.6792
   1415.25452     786.3120     477.1180   1415.25452     786.3120     477.1180
   1415.23926     783.5475     476.5836   1415.23926     783.5475     476.5836
   1415.22400     783.4724     476.8624   1415.22400     783.4724     476.8624
   1415.20874     780.7043     476.9336   1415.20874     780.7043     476.9336
   1415.19348     780.3379     476.3520   1415.19348     780.3379     476.3520
   1415.17822     780.5938     475.8032   1415.17822     780.5938     475.8032
   1415.16296     776.3419     476.1836   1415.16296     776.3419     476.1836
   1415.14771     777.0775     475.1476   1415.14771     777.0775     475.1476
   1415.13245     774.4515     473.9757   1415.13245     774.4515     473.9757
   1415.11719     772.5386     473.6240   1415.11719     772.5386     473.6240
   1415.10193     770.4423     473.0093   1415.10193     770.4423     473.0093
   1415.08667     769.6617     473.2163   1415.08667     769.6617     473.2163
   1415.07141     766.5789     472.5025   1415.07141     766.5789     472.5025
   1415.05615     765.4963     471.4758   1415.05615     765.4963     471.4758
   1415.04089     764.5507     471.0261   1415.04089     764.5507     471.0261
   1415.02563     762.3990     470.9016   1415.02563     762.3990     470.9016
   1415.01038     760.8305     470.1012   1415.01038     760.8305     470.1012
   1414.99512     759.5240     470.0742   1414.99512     759.5240     470.0742
   1414.97986     758.2388     468.9316   1414.97986     758.2388     468.9316
   1414.96460     755.9709     468.8754   1414.96460     755.9709     468.8754
   1414.94934     754.0327     467.9380   1414.94934     754.0327     467.9380
   1414.93408     751.4272     468.0452   1414.93408     751.4272     468.0452
   1414.91882     750.2358     467.0201   1414.91882     750.2358     467.0201
   1414.90356     749.0627     466.6548   1414.90356     749.0627     466.6548
   1414.88831     746.6097     465.8365   1414.88831     746.6097     465.8365
   1414.87305     743.1288     464.8807   1414.87305     743.1288     464.8807
   1414.85779     742.2975     464.8750   1414.85779     742.2975     464.8750
   1414.84253     741.6977     464.3366   1414.84253     741.6977     464.3366
   1414.82727     736.7243     463.8145   1414.82727     736.7243     463.8145
   1414.81201     736.4222     462.8881   1414.81201     736.4222     462.8881
   1414.79675     733.4553     461.4113   1414.79675     733.4553     461.4113
   1414.78149     730.8121     461.5730   1414.78149     730.8121     461.5730
   1414.76624     729.3454     460.5852   1414.76624     729.3454     460.5852
   1414.75098     727.6179     460.0420   1414.75098     727.6179     460.0420
   1414.73572     725.2278     458.8318   1414.73572     725.2278     458.8318
   1414.72046     723.0731     458.5165   1414.72046     723.0731     458.5165
   1414.70520     721.4979     457.8103   1414.70520     721.4979     457.8103
   1414.68994     718.8167     457.3396   1414.68994     718.8167     457.3396
   1414.67468     715.1022     455.8307   1414.67468     715.1022     455.8307
   1414.65942     713.9275     454.6137   1414.65942     713.9275     454.6137
   1414.64417     712.2366     455.3201   1414.64417     712.2366     455.3201
   1414.62891     708.9258     454.2798   1414.62891     708.9258     454.2798
   1414.61365     706.7015     452.6833   1414.61365     706.7015     452.6833
   1414.59839     704.5528     452.5356   1414.59839     704.5528     452.5356
   1414.58313     702.0593     451.6897   1414.58313     702.0593     451.6897
   1414.56787     700.3042     450.4344   1414.56787     700.3042     450.4344
   1414.55261     697.8868     449.7915   1414.55261     697.8868     449.7915
   1414.53735     695.1744     448.8839   1414.53735     695.1744     448.8839
   1414.52209     691.7648     447.8132   1414.52209     691.7648     447.8132
   1414.50684     691.2435     446.1783   1414.50684     691.2435     446.1783
   1414.49158     688.3898     446.1357   1414.49158     688.3898     446.1357
   1414.47632     685.4081     445.2760   1414.47632     685.4081     445.2760
   1414.46106     682.3091     443.8644   1414.46106     682.3091     443.8644
   1414.44580     679.6840     442.4150   1414.44580     679.6840     442.4150
   1414.43054     677.9073     442.4200   1414.43054     677.9073     442.4200
   1414.41528     675.2964     442.2802   1414.41528     675.2964     442.2802
   1414.40002     671.9829     440.4482   1414.40002     671.9829     440.4482
   1414.38477     669.3428     439.3982   1414.38477     669.3428     439.3982
   1414.36951     666.5316     438.1237   1414.36951     666.5316     438.1237
   1414.35425     663.7859     437.0360   1414.35425     663.7859     437.0360
   1414.33899     659.9688     436.3132   1414.33899     659.9688     436.3132
   1414.32373     657.8748     434.4661   1414.32373     657.8748     434.4661
   1414.30847     655.4867     433.7337   1414.30847     655.4867     433.7337
   1414.29321     652.9749     432.6454   1414.29321     652.9749     432.6454
   1414.27795     649.6692     432.2304   1414.27795     649.6692     432.2304
   1414.26270     647.3648     430.5398   1414.26270     647.3648     430.5398
   1414.24744     644.1106     429.5537   1414.24744     644.1106     429.5537
   1414.23218     640.5058     427.7254   1414.23218     640.5058     427.7254
   1414.21692     638.7706     428.1160   1414.21692     638.7706     428.1160
   1414.20166     635.7106     425.9573   1414.20166     635.7106     425.9573
   1414.18640     632.1468     424.5503   1414.18640     632.1468     424.5503
   1414.17114     628.7665     423.4462   1414.17114     628.7665     423.4462
   1414.15588     626.1352     422.0559   1414.15588     626.1352     422.0559
   1414.14062     623.2684     420.3810   1414.14062     623.2684     420.3810
   1414.12537     620.9983     418.9624   1414.12537     620.9983     418.9624
   1414.11011     617.7532     418.0648   1414.11011     617.7532     418.0648
   1414.09485     614.8649     416.7918   1414.09485     614.8649     416.7918
   1414.07959     611.9111     415.8697   1414.07959     611.9111     415.8697
   1414.06433     607.9509     414.5395   1414.06433     607.9509     414.5395
   1414.04907     606.5526     413.1993   1414.04907     606.5526     413.1993
   1414.03381     601.3240     411.9430   1414.03381     601.3240     411.9430
   1414.01855     599.7405     410.5629   1414.01855     599.7405     410.5629
   1414.00330     620.0226     416.5086   1414.00330     620.0226     416.5086
   1413.98804     594.4228     407.4945   1413.98804     594.4228     407.4945
   1413.97278     591.8514     406.3035   1413.97278     591.8514     406.3035
   1413.95752     586.6660     405.2714   1413.95752     586.6660     405.2714
   1413.94226     582.8282     404.0249   1413.94226     582.8282     404.0249
   1413.92700     580.3917     402.4258   1413.92700     580.3917     402.4258
   1413.91174     577.5200     401.0995   1413.91174     577.5200     401.0995
   1413.89648     574.1542     398.9984   1413.89648     574.1542     398.9984
   1413.88123     570.8991     397.2537   1413.88123     570.8991     397.2537
   1413.86597     567.7184     395.7990   1413.86597     567.7184     395.7990
   1413.85071     564.6936     395.5921   1413.85071     564.6936     395.5921
   1413.83545     562.3408     394.2508   1413.83545     562.3408     394.2508
   1413.82019     559.2156     391.8846   1413.82019     559.2156     391.8846
   1413.80493     556.5762     390.4968   1413.80493     556.5762     390.4968
   1413.78967     552.6818     388.5651   1413.78967     552.6818     388.5651
   1413.77441     548.9008     387.2577   1413.77441     548.9008     387.2577
   1413.75916     545.7859     385.4796   1413.75916     545.7859     385.4796
   1413.74390     542.3162     384.4884   1413.74390     542.3162     384.4884
   1413.72864     540.3123     383.0574   1413.72864     540.3123     383.0574
   1413.71338     535.4479     381.0106   1413.71338     535.4479     381.0106
   1413.69812     533.1754     379.9182   1413.69812     533.1754     379.9182
   1413.68286     529.5422     378.4468   1413.68286     529.5422     378.4468
   1413.66760     526.4192     376.4288   1413.66760     526.4192     376.4288
   1413.65234     524.2988     375.4731   1413.65234     524.2988     375.4731
   1413.63708     521.0812     373.8903   1413.63708     521.0812     373.8903
   1413.62183     517.2432     372.2117   1413.62183     517.2432     372.2117
   1413.60657     514.5757     370.7385   1413.60657     514.5757     370.7385
   1413.59131     510.5850     369.6295   1413.59131     510.5850     369.6295
   1413.57605     507.6895     367.5923   1413.57605     507.6895     367.5923
   1413.56079     505.0467     365.5929   1413.56079     505.0467     365.5929
   1413.54553     502.6826     364.5106   1413.54553     502.6826     364.5106
   1413.53027     498.8437     362.3492   1413.53027     498.8437     362.3492
   1413.51501     496.1395     361.0766   1413.51501     496.1395     361.0766
   1413.49976     493.1926     359.5268   1413.49976     493.1926     359.5268
   1413.48450     490.3018     358.1863   1413.48450     490.3018     358.1863
   1413.46924     486.8729     356.8745   1413.46924     486.8729     356.8745
   1413.45398     483.5063     355.1153   1413.45398     483.5063     355.1153
   1413.43872     481.3074     353.2266   1413.43872     481.3074     353.2266
   1413.42346     477.5819     351.0239   1413.42346     477.5819     351.0239
   1413.40820     475.3527     350.3785   1413.40820     475.3527     350.3785
   1413.39294     471.6547     348.9923   1413.39294     471.6547     348.9923
   1413.37769     469.7285     347.5684   1413.37769     469.7285     347.5684
   1413.36243     467.1966     345.2500   1413.36243     467.1966     345.2500
   1413.34717     463.8517     344.3996   1413.34717     463.8517     344.3996
   1413.33191     461.4888     342.3654   1413.33191     461.4888     342.3654
   1413.31665     457.5759     340.8035   1413.31665     457.5759     340.8035
   1413.30139     454.9929     339.7625   1413.30139     454.9929     339.7625
   1413.28613     452.4077     337.9903   1413.28613     452.4077     337.9903
   1413.27087     449.2457     336.3994   1413.27087     449.2457     336.3994
   1413.25562     446.5805     335.0865   1413.25562     446.5805     335.0865
   1413.24036     443.9381     332.9142   1413.24036     443.9381     332.9142
   1413.22510     441.2201     331.8685   1413.22510     441.2201     331.8685
   1413.20984     439.1988     330.2336   1413.20984     439.1988     330.2336
   1413.19458     436.8433     328.8415   1413.19458     436.8433     328.8415
   1413.17932     434.0094     327.6592   1413.17932     434.0094     327.6592
   1413.16406     431.2163     326.0407   1413.16406     431.2163     326.0407
   1413.14880     429.4767     325.1849   1413.14880     429.4767     325.1849
   1413.13354     426.8601     323.4651   1413.13354     426.8601     323.4651
   1413.11829     423.9157     322.2450   1413.11829     423.9157     322.2450
   1413.10303     421.3326     320.4461   1413.10303     421.3326     320.4461
   1413.08777     418.4318     318.9290   1413.08777     418.4318     318.9290
   1413.07251     416.5264     317.7133   1413.07251     416.5264     317.7133
   1413.05725     414.8250     316.1864   1413.05725     414.8250     316.1864
   1413.04199     412.7753     315.4550   1413.04199     412.7753     315.4550
   1413.02673     410.1919     313.9335   1413.02673     410.1919     313.9335
   1413.01147     408.0978     312.2438   1413.01147     408.0978     312.2438
   1412.99622     406.1575     311.2763   1412.99622     406.1575     311.2763
   1412.98096     404.1424     310.2121   1412.98096     404.1424     310.2121
   1412.96570     402.0618     308.9711   1412.96570     402.0618     308.9711
   1412.95044     400.5538     307.6710   1412.95044     400.5538     307.6710
   1412.93518     397.3763     306.2289   1412.93518     397.3763     306.2289
   1412.91992     396.4204     305.3795   1412.91992     396.4204     305.3795
   1412.90466     394.8784     304.5794   1412.90466     394.8784     304.5794
   1412.88940     392.1065     303.0083   1412.88940     392.1065     303.0083
   1412.87415     391.1635     302.1283   1412.87415     391.1635     302.1283
   1412.85889     388.4062     301.0733   1412.85889     388.4062     301.0733
   1412.84363     387.3259     299.9713   1412.84363     387.3259     299.9713
   1412.82837     385.7811     298.9170   1412.82837     385.7811     298.9170
   1412.81311     383.7419     297.8702   1412.81311     383.7419     297.8702
   1412.79785     382.7625     296.5345   1412.79785     382.7625     296.5345
   1412.78259     381.3647     295.8232   1412.78259     381.3647     295.8232
   1412.76733     379.0862     295.2063   1412.76733     379.0862     295.2063
   1412.75208     378.2430     294.2671   1412.75208     378.2430     294.2671
   1412.73682     376.9588     293.2629   1412.73682     376.9588     293.2629
   1412.72156     375.6104     292.1549   1412.72156     375.6104     292.1549
   1412.70630     374.9603     291.3107   1412.70630     374.9603     291.3107
   1412.69104     372.9263     291.1788   1412.69104     372.9263     291.1788
   1412.67578     372.6156     290.5016   1412.67578     372.6156     290.5016
   1412.66052     371.4503     289.8165   1412.66052     371.4503     289.8165
   1412.64526     370.0693     288.2949   1412.64526     370.0693     288.2949
   1412.63000     369.2727     287.9478   1412.63000     369.2727     287.9478
   1412.61475     368.5796     287.7232   1412.61475     368.5796     287.7232
   1412.59949     367.4824     286.8014   1412.59949     367.4824     286.8014
   1412.58423     366.2950     287.1212   1412.58423     366.2950     287.1212
   1412.56897     365.9802     285.6977   1412.56897     365.9802     285.6977
   1412.55371     365.2564     285.4192   1412.55371     365.2564     285.4192
   1412.53845     364.1877     284.6257   1412.53845     364.1877     284.6257
   1412.52319     364.0570     284.4970   1412.52319     364.0570     284.4970
   1412.50793     363.5805     284.4357   1412.50793     363.5805     284.4357
   1412.49268     363.2328     283.5692   1412.49268     363.2328     283.5692
   1412.47742     362.6632     284.1529   1412.47742     362.6632     284.1529
   1412.46216     362.6227     283.4088   1412.46216     362.6227     283.4088
   1412.44690     361.8819     283.0229   1412.44690     361.8819     283.0229
   1412.43164     361.2411     282.9165   1412.43164     361.2411     282.9165
   1412.41638     360.9113     282.9591   1412.41638     360.9113     282.9591
   1412.40112     361.3119     282.6787   1412.40112     361.3119     282.6787
   1412.38586     360.9418     282.5347   1412.38586     360.9418     282.5347
   1412.37061     361.0317     282.5697   1412.37061     361.0317     282.5697
   1412.35535     360.9478     282.5189   1412.35535     360.9478     282.5189
   1412.34009     361.5575     282.4432   1412.34009     361.5575     282.4432
   1412.32483     361.2134     282.9417   1412.32483     361.2134     282.9417
   1412.30957     361.7877     282.7728   1412.30957     361.7877     282.7728
   1412.29431     361.8610     283.3857   1412.29431     361.8610     283.3857
   1412.27905     362.1362     283.3329   1412.27905     362.1362     283.3329
   1412.26379     362.3543     283.5683   1412.26379     362.3543     283.5683
   1412.24854     362.5497     284.0561   1412.24854     362.5497     284.0561
   1412.23328     363.1726     283.9683   1412.23328     363.1726     283.9683
   1412.21802     363.3105     284.4312   1412.21802     363.3105     284.4312
   1412.20276     364.4144     284.7872   1412.20276     364.4144     284.7872