#     FILENAME=!Skynet_57528_lach-cc-83_20526_20929.cyb.fits
#     BASENAME=Skynet_57528_lach-cc-83_20526_20929
#     SRC_NAME=lach-cc-83
#     OBSERVER=ccmadison16_9505
#     DATE_OBS=2016-05-20T16:07:36.870
#        OBSID=20526
#      SCANNUM=20929
#          MJD=57528.6730
#          UTC=58145
#     SCANTYPE=track
#     DATAMODE=HIRES
#     TUNEFREQ=1420.0000
# Actual_FREQ1=1420.0000
# Actual_FREQ2=1420.0000
#    LO1Tuning=6870.000
#     RFFILTER=1355_1435
#        OBSBW=-15.6250
#        NCHAN=1024 
#        FOCUS=37.0709
#           RA=20:45:42.03
#          DEC=43:02:09.50
#      RA(hrs)=20.761700
#     DEC(deg)=43.036000
#    AZIM(deg)=305.406
#    ELEV(deg)=25.485
#     IFattens=11.00, 10.00
#      WARNING=None
#    TCAL_XL1=7.9635
#    TCAL_YR1=9.1340
#    TCAL_XL2=7.9635
#    TCAL_YR2=9.1340
#     TRX_XL1=11.7060
#     TRX_YR1=11.7060
#     TRX_XL2=11.7060
#     TRX_YR2=11.7060
#        TAVE=1.0000
#Freq1(MHz)          XL1          YR1  Freq2(MHz)          XL2          YR2 

   1427.81250     332.2106     277.3603   1427.81250     332.2106     277.3603
   1427.79724     332.7006     277.5822   1427.79724     332.7006     277.5822
   1427.78198     333.2344     278.4752   1427.78198     333.2344     278.4752
   1427.76672     334.0788     279.0261   1427.76672     334.0788     279.0261
   1427.75146     335.0685     280.1225   1427.75146     335.0685     280.1225
   1427.73621     335.1133     280.4727   1427.73621     335.1133     280.4727
   1427.72095     336.4581     281.1266   1427.72095     336.4581     281.1266
   1427.70569     337.2359     282.1021   1427.70569     337.2359     282.1021
   1427.69043     337.5430     283.1235   1427.69043     337.5430     283.1235
   1427.67517     338.5944     283.9658   1427.67517     338.5944     283.9658
   1427.65991     339.8436     284.8817   1427.65991     339.8436     284.8817
   1427.64465     340.9028     285.8581   1427.64465     340.9028     285.8581
   1427.62939     341.7249     285.9792   1427.62939     341.7249     285.9792
   1427.61414     343.0672     287.4453   1427.61414     343.0672     287.4453
   1427.59888     344.1980     288.8643   1427.59888     344.1980     288.8643
   1427.58362     345.5055     289.7950   1427.58362     345.5055     289.7950
   1427.56836     346.5576     291.2904   1427.56836     346.5576     291.2904
   1427.55310     348.0292     291.9487   1427.55310     348.0292     291.9487
   1427.53784     348.9704     293.1247   1427.53784     348.9704     293.1247
   1427.52258     350.4655     294.7193   1427.52258     350.4655     294.7193
   1427.50732     352.0198     296.1580   1427.50732     352.0198     296.1580
   1427.49207     353.7075     297.1875   1427.49207     353.7075     297.1875
   1427.47681     355.4619     298.5196   1427.47681     355.4619     298.5196
   1427.46155     356.6258     300.4348   1427.46155     356.6258     300.4348
   1427.44629     358.7123     301.4704   1427.44629     358.7123     301.4704
   1427.43103     359.7362     303.0062   1427.43103     359.7362     303.0062
   1427.41577     361.4218     304.4172   1427.41577     361.4218     304.4172
   1427.40051     363.5380     305.6066   1427.40051     363.5380     305.6066
   1427.38525     364.8647     307.5218   1427.38525     364.8647     307.5218
   1427.37000     366.5099     309.0544   1427.37000     366.5099     309.0544
   1427.35474     368.6660     310.7285   1427.35474     368.6660     310.7285
   1427.33948     370.9863     312.5526   1427.33948     370.9863     312.5526
   1427.32422     372.4052     315.0703   1427.32422     372.4052     315.0703
   1427.30896     374.2967     315.8488   1427.30896     374.2967     315.8488
   1427.29370     375.7359     318.2276   1427.29370     375.7359     318.2276
   1427.27844     378.4040     319.4868   1427.27844     378.4040     319.4868
   1427.26318     380.7043     320.8929   1427.26318     380.7043     320.8929
   1427.24792     382.4535     323.1210   1427.24792     382.4535     323.1210
   1427.23267     385.1246     325.0302   1427.23267     385.1246     325.0302
   1427.21741     387.1595     327.6779   1427.21741     387.1595     327.6779
   1427.20215     389.0865     328.9141   1427.20215     389.0865     328.9141
   1427.18689     391.1129     330.6743   1427.18689     391.1129     330.6743
   1427.17163     392.8257     332.4426   1427.17163     392.8257     332.4426
   1427.15637     395.7769     334.6182   1427.15637     395.7769     334.6182
   1427.14111     397.2906     336.5683   1427.14111     397.2906     336.5683
   1427.12585     400.1872     338.4145   1427.12585     400.1872     338.4145
   1427.11060     403.1360     341.1501   1427.11060     403.1360     341.1501
   1427.09534     405.0829     343.1543   1427.09534     405.0829     343.1543
   1427.08008     407.9110     345.0253   1427.08008     407.9110     345.0253
   1427.06482     408.9816     346.6794   1427.06482     408.9816     346.6794
   1427.04956     412.4961     348.4297   1427.04956     412.4961     348.4297
   1427.03430     414.5907     351.1702   1427.03430     414.5907     351.1702
   1427.01904     417.4186     354.0488   1427.01904     417.4186     354.0488
   1427.00378     419.3817     355.7153   1427.00378     419.3817     355.7153
   1426.98853     422.2338     358.3355   1426.98853     422.2338     358.3355
   1426.97327     424.9479     360.2177   1426.97327     424.9479     360.2177
   1426.95801     427.0165     362.7388   1426.95801     427.0165     362.7388
   1426.94275     430.6590     364.3294   1426.94275     430.6590     364.3294
   1426.92749     432.9475     367.2343   1426.92749     432.9475     367.2343
   1426.91223     434.9680     369.5137   1426.91223     434.9680     369.5137
   1426.89697     437.4175     370.8463   1426.89697     437.4175     370.8463
   1426.88171     440.1287     373.0515   1426.88171     440.1287     373.0515
   1426.86646     442.9436     375.8424   1426.86646     442.9436     375.8424
   1426.85120     445.6138     378.3636   1426.85120     445.6138     378.3636
   1426.83594     448.0684     380.6328   1426.83594     448.0684     380.6328
   1426.82068     450.6586     382.6209   1426.82068     450.6586     382.6209
   1426.80542     453.1473     384.3986   1426.80542     453.1473     384.3986
   1426.79016     455.6466     387.6685   1426.79016     455.6466     387.6685
   1426.77490     458.9272     389.8689   1426.77490     458.9272     389.8689
   1426.75964     461.8647     391.8305   1426.75964     461.8647     391.8305
   1426.74438     464.9062     394.7545   1426.74438     464.9062     394.7545
   1426.72913     465.9302     396.0091   1426.72913     465.9302     396.0091
   1426.71387     469.7842     399.3537   1426.71387     469.7842     399.3537
   1426.69861     472.1657     401.3986   1426.69861     472.1657     401.3986
   1426.68335     475.2243     403.6430   1426.68335     475.2243     403.6430
   1426.66809     477.8569     404.9688   1426.66809     477.8569     404.9688
   1426.65283     481.3977     408.1816   1426.65283     481.3977     408.1816
   1426.63757     483.3090     410.7748   1426.63757     483.3090     410.7748
   1426.62231     488.0096     412.9854   1426.62231     488.0096     412.9854
   1426.60706     489.4771     414.7003   1426.60706     489.4771     414.7003
   1426.59180     491.4910     417.1459   1426.59180     491.4910     417.1459
   1426.57654     494.2645     419.4426   1426.57654     494.2645     419.4426
   1426.56128     496.2358     421.1186   1426.56128     496.2358     421.1186
   1426.54602     498.6136     423.9042   1426.54602     498.6136     423.9042
   1426.53076     502.4421     426.0918   1426.53076     502.4421     426.0918
   1426.51550     504.3790     428.6627   1426.51550     504.3790     428.6627
   1426.50024     507.3241     430.4532   1426.50024     507.3241     430.4532
   1426.48499     510.9073     432.2480   1426.48499     510.9073     432.2480
   1426.46973     512.3369     435.4251   1426.46973     512.3369     435.4251
   1426.45447     515.3973     437.4247   1426.45447     515.3973     437.4247
   1426.43921     517.6007     439.1987   1426.43921     517.6007     439.1987
   1426.42395     520.3845     441.5794   1426.42395     520.3845     441.5794
   1426.40869     522.1241     444.5240   1426.40869     522.1241     444.5240
   1426.39343     525.8923     445.9157   1426.39343     525.8923     445.9157
   1426.37817     527.4291     448.2040   1426.37817     527.4291     448.2040
   1426.36292     530.9099     450.2512   1426.36292     530.9099     450.2512
   1426.34766     533.3860     452.6069   1426.34766     533.3860     452.6069
   1426.33240     535.9915     454.6664   1426.33240     535.9915     454.6664
   1426.31714     539.4858     456.6062   1426.31714     539.4858     456.6062
   1426.30188     541.2852     458.4164   1426.30188     541.2852     458.4164
   1426.28662     543.2212     461.8002   1426.28662     543.2212     461.8002
   1426.27136     546.3776     462.8435   1426.27136     546.3776     462.8435
   1426.25610     547.8724     465.3741   1426.25610     547.8724     465.3741
   1426.24084     551.3741     467.0909   1426.24084     551.3741     467.0909
   1426.22559     553.4430     468.5176   1426.22559     553.4430     468.5176
   1426.21033     555.8210     471.5254   1426.21033     555.8210     471.5254
   1426.19507     557.3359     472.7182   1426.19507     557.3359     472.7182
   1426.17981     560.2925     475.0126   1426.17981     560.2925     475.0126
   1426.16455     562.5875     476.8011   1426.16455     562.5875     476.8011
   1426.14929     565.1313     478.9785   1426.14929     565.1313     478.9785
   1426.13403     568.5443     481.1808   1426.13403     568.5443     481.1808
   1426.11877     569.7496     482.4369   1426.11877     569.7496     482.4369
   1426.10352     572.3294     485.5106   1426.10352     572.3294     485.5106
   1426.08826     574.6075     486.5286   1426.08826     574.6075     486.5286
   1426.07300     576.7780     488.4872   1426.07300     576.7780     488.4872
   1426.05774     579.1682     490.0041   1426.05774     579.1682     490.0041
   1426.04248     580.4595     492.3692   1426.04248     580.4595     492.3692
   1426.02722     583.7044     493.2626   1426.02722     583.7044     493.2626
   1426.01196     585.1340     495.8689   1426.01196     585.1340     495.8689
   1425.99670     587.4774     497.5490   1425.99670     587.4774     497.5490
   1425.98145     589.6915     498.8863   1425.98145     589.6915     498.8863
   1425.96619     591.5834     501.4055   1425.96619     591.5834     501.4055
   1425.95093     593.7778     502.2485   1425.95093     593.7778     502.2485
   1425.93567     595.7074     503.5001   1425.93567     595.7074     503.5001
   1425.92041     598.3396     505.7343   1425.92041     598.3396     505.7343
   1425.90515     600.0446     508.0747   1425.90515     600.0446     508.0747
   1425.88989     601.2006     509.0772   1425.88989     601.2006     509.0772
   1425.87463     603.1219     510.5945   1425.87463     603.1219     510.5945
   1425.85938     605.6191     512.8862   1425.85938     605.6191     512.8862
   1425.84412     607.0683     513.2494   1425.84412     607.0683     513.2494
   1425.82886     607.9338     515.7795   1425.82886     607.9338     515.7795
   1425.81360     609.9277     517.4392   1425.81360     609.9277     517.4392
   1425.79834     611.4777     518.8301   1425.79834     611.4777     518.8301
   1425.78308     614.9952     519.9902   1425.78308     614.9952     519.9902
   1425.76782     616.1926     521.6416   1425.76782     616.1926     521.6416
   1425.75256     618.6996     523.2971   1425.75256     618.6996     523.2971
   1425.73730     617.8772     524.3917   1425.73730     617.8772     524.3917
   1425.72205     621.3809     526.4717   1425.72205     621.3809     526.4717
   1425.70679     622.1912     528.8034   1425.70679     622.1912     528.8034
   1425.69153     624.3196     529.1505   1425.69153     624.3196     529.1505
   1425.67627     625.8321     530.3926   1425.67627     625.8321     530.3926
   1425.66101     627.0280     532.0994   1425.66101     627.0280     532.0994
   1425.64575     628.9509     533.0787   1425.64575     628.9509     533.0787
   1425.63049     629.5737     534.0677   1425.63049     629.5737     534.0677
   1425.61523     631.6786     534.7574   1425.61523     631.6786     534.7574
   1425.59998     632.7812     536.8931   1425.59998     632.7812     536.8931
   1425.58472     634.4451     537.9431   1425.58472     634.4451     537.9431
   1425.56946     636.1561     540.1157   1425.56946     636.1561     540.1157
   1425.55420     637.1990     541.1895   1425.55420     637.1990     541.1895
   1425.53894     638.6491     543.2614   1425.53894     638.6491     543.2614
   1425.52368     640.1516     543.3456   1425.52368     640.1516     543.3456
   1425.50842     640.0662     544.2974   1425.50842     640.0662     544.2974
   1425.49316     642.6254     546.3557   1425.49316     642.6254     546.3557
   1425.47791     643.6018     546.3023   1425.47791     643.6018     546.3023
   1425.46265     644.8519     548.8414   1425.46265     644.8519     548.8414
   1425.44739     645.7344     549.2868   1425.44739     645.7344     549.2868
   1425.43213     647.3093     551.4319   1425.43213     647.3093     551.4319
   1425.41687     648.8259     553.0015   1425.41687     648.8259     553.0015
   1425.40161     649.4907     552.2982   1425.40161     649.4907     552.2982
   1425.38635     650.6506     554.2864   1425.38635     650.6506     554.2864
   1425.37109     650.8416     555.4990   1425.37109     650.8416     555.4990
   1425.35583     652.4600     555.9981   1425.35583     652.4600     555.9981
   1425.34058     654.0079     557.1667   1425.34058     654.0079     557.1667
   1425.32532     654.0331     558.4173   1425.32532     654.0331     558.4173
   1425.31006     655.6629     559.5408   1425.31006     655.6629     559.5408
   1425.29480     655.8094     560.0803   1425.29480     655.8094     560.0803
   1425.27954     656.6870     561.9663   1425.27954     656.6870     561.9663
   1425.26428     657.6727     562.1224   1425.26428     657.6727     562.1224
   1425.24902     660.3296     563.3242   1425.24902     660.3296     563.3242
   1425.23376     658.7615     564.6557   1425.23376     658.7615     564.6557
   1425.21851     659.8069     564.7444   1425.21851     659.8069     564.7444
   1425.20325     660.4568     566.4894   1425.20325     660.4568     566.4894
   1425.18799     661.8220     568.2305   1425.18799     661.8220     568.2305
   1425.17273     662.5457     568.4275   1425.17273     662.5457     568.4275
   1425.15747     663.3445     569.6870   1425.15747     663.3445     569.6870
   1425.14221     664.2471     570.2754   1425.14221     664.2471     570.2754
   1425.12695     664.8164     571.3973   1425.12695     664.8164     571.3973
   1425.11169     664.6209     572.1991   1425.11169     664.6209     572.1991
   1425.09644     665.3265     573.3862   1425.09644     665.3265     573.3862
   1425.08118     667.0067     574.4536   1425.08118     667.0067     574.4536
   1425.06592     666.9665     574.7531   1425.06592     666.9665     574.7531
   1425.05066     667.1671     575.6935   1425.05066     667.1671     575.6935
   1425.03540     668.3456     576.6956   1425.03540     668.3456     576.6956
   1425.02014     668.2054     578.3707   1425.02014     668.2054     578.3707
   1425.00488     668.3748     578.1133   1425.00488     668.3748     578.1133
   1424.98962     670.1920     578.7659   1424.98962     670.1920     578.7659
   1424.97437     670.4640     579.9735   1424.97437     670.4640     579.9735
   1424.95911     671.1763     580.5573   1424.95911     671.1763     580.5573
   1424.94385     671.8471     581.9808   1424.94385     671.8471     581.9808
   1424.92859     671.6168     582.5439   1424.92859     671.6168     582.5439
   1424.91333     672.3033     584.7103   1424.91333     672.3033     584.7103
   1424.89807     672.9027     584.0887   1424.89807     672.9027     584.0887
   1424.88281     673.9822     585.8561   1424.88281     673.9822     585.8561
   1424.86755     672.4271     586.9080   1424.86755     672.4271     586.9080
   1424.85229     674.3965     586.2987   1424.85229     674.3965     586.2987
   1424.83704     673.6880     586.8768   1424.83704     673.6880     586.8768
   1424.82178     674.6791     588.8034   1424.82178     674.6791     588.8034
   1424.80652     674.2903     588.2798   1424.80652     674.2903     588.2798
   1424.79126     675.0388     588.3297   1424.79126     675.0388     588.3297
   1424.77600     674.4041     589.3692   1424.77600     674.4041     589.3692
   1424.76074     675.3331     590.3680   1424.76074     675.3331     590.3680
   1424.74548     674.4307     591.9039   1424.74548     674.4307     591.9039
   1424.73022     674.9318     592.2504   1424.73022     674.9318     592.2504
   1424.71497     675.7514     592.3128   1424.71497     675.7514     592.3128
   1424.69971     675.8384     592.9866   1424.69971     675.8384     592.9866
   1424.68445     675.9012     593.9848   1424.68445     675.9012     593.9848
   1424.66919     676.5068     594.0756   1424.66919     676.5068     594.0756
   1424.65393     676.6861     595.7125   1424.65393     676.6861     595.7125
   1424.63867     676.1096     596.4377   1424.63867     676.1096     596.4377
   1424.62341     677.0668     597.6287   1424.62341     677.0668     597.6287
   1424.60815     677.2663     597.1833   1424.60815     677.2663     597.1833
   1424.59290     676.3870     597.9761   1424.59290     676.3870     597.9761
   1424.57764     677.2647     598.8019   1424.57764     677.2647     598.8019
   1424.56238     677.0684     599.7929   1424.56238     677.0684     599.7929
   1424.54712     677.3239     599.4721   1424.54712     677.3239     599.4721
   1424.53186     676.7079     599.7725   1424.53186     676.7079     599.7725
   1424.51660     677.1636     600.7371   1424.51660     677.1636     600.7371
   1424.50134     677.0839     602.0148   1424.50134     677.0839     602.0148
   1424.48608     677.5866     602.0758   1424.48608     677.5866     602.0758
   1424.47083     678.3177     603.1904   1424.47083     678.3177     603.1904
   1424.45557     677.0720     603.3588   1424.45557     677.0720     603.3588
   1424.44031     677.7225     604.5163   1424.44031     677.7225     604.5163
   1424.42505     677.9431     604.0768   1424.42505     677.9431     604.0768
   1424.40979     677.0182     605.6264   1424.40979     677.0182     605.6264
   1424.39453     676.7929     604.6910   1424.39453     676.7929     604.6910
   1424.37927     677.5197     605.9398   1424.37927     677.5197     605.9398
   1424.36401     677.4838     606.6628   1424.36401     677.4838     606.6628
   1424.34875     676.9986     606.8484   1424.34875     676.9986     606.8484
   1424.33350     677.4963     607.8925   1424.33350     677.4963     607.8925
   1424.31824     676.3405     608.3410   1424.31824     676.3405     608.3410
   1424.30298     677.3438     609.1114   1424.30298     677.3438     609.1114
   1424.28772     676.5758     609.4349   1424.28772     676.5758     609.4349
   1424.27246     678.2447     610.4625   1424.27246     678.2447     610.4625
   1424.25720     677.0428     610.4406   1424.25720     677.0428     610.4406
   1424.24194     676.3086     609.9769   1424.24194     676.3086     609.9769
   1424.22668     677.4244     611.5736   1424.22668     677.4244     611.5736
   1424.21143     677.6071     611.6976   1424.21143     677.6071     611.6976
   1424.19617     676.6449     613.0994   1424.19617     676.6449     613.0994
   1424.18091     676.6197     612.9962   1424.18091     676.6197     612.9962
   1424.16565     676.3583     613.0147   1424.16565     676.3583     613.0147
   1424.15039     677.1302     614.0679   1424.15039     677.1302     614.0679
   1424.13513     677.1976     614.2671   1424.13513     677.1976     614.2671
   1424.11987     675.1540     615.2534   1424.11987     675.1540     615.2534
   1424.10461     676.2488     614.8573   1424.10461     676.2488     614.8573
   1424.08936     676.4368     616.0704   1424.08936     676.4368     616.0704
   1424.07410     676.6491     616.2941   1424.07410     676.6491     616.2941
   1424.05884     676.2516     616.4756   1424.05884     676.2516     616.4756
   1424.04358     675.8175     617.7035   1424.04358     675.8175     617.7035
   1424.02832     675.1853     617.4328   1424.02832     675.1853     617.4328
   1424.01306     675.1739     618.1953   1424.01306     675.1739     618.1953
   1423.99780     675.6672     618.9116   1423.99780     675.6672     618.9116
   1423.98254     675.0280     618.5928   1423.98254     675.0280     618.5928
   1423.96729     675.3334     619.3178   1423.96729     675.3334     619.3178
   1423.95203     675.1808     619.9774   1423.95203     675.1808     619.9774
   1423.93677     675.6290     620.0195   1423.93677     675.6290     620.0195
   1423.92151     675.0392     619.7086   1423.92151     675.0392     619.7086
   1423.90625     674.3387     620.4265   1423.90625     674.3387     620.4265
   1423.89099     675.5191     621.5358   1423.89099     675.5191     621.5358
   1423.87573     674.9209     621.7440   1423.87573     674.9209     621.7440
   1423.86047     674.7101     621.3030   1423.86047     674.7101     621.3030
   1423.84521     672.9335     622.0436   1423.84521     672.9335     622.0436
   1423.82996     674.0689     623.1449   1423.82996     674.0689     623.1449
   1423.81470     674.0378     623.9877   1423.81470     674.0378     623.9877
   1423.79944     674.0583     623.0019   1423.79944     674.0583     623.0019
   1423.78418     674.5029     622.9802   1423.78418     674.5029     622.9802
   1423.76892     672.3547     623.1248   1423.76892     672.3547     623.1248
   1423.75366     673.9796     623.8290   1423.75366     673.9796     623.8290
   1423.73840     672.4554     624.2061   1423.73840     672.4554     624.2061
   1423.72314     672.8579     624.1982   1423.72314     672.8579     624.1982
   1423.70789     672.9099     625.0226   1423.70789     672.9099     625.0226
   1423.69263     672.2462     624.9320   1423.69263     672.2462     624.9320
   1423.67737     673.3802     625.2379   1423.67737     673.3802     625.2379
   1423.66211     672.5163     625.7491   1423.66211     672.5163     625.7491
   1423.64685     672.9284     624.4218   1423.64685     672.9284     624.4218
   1423.63159     670.8986     625.6472   1423.63159     670.8986     625.6472
   1423.61633     672.2563     626.1104   1423.61633     672.2563     626.1104
   1423.60107     671.2564     625.6071   1423.60107     671.2564     625.6071
   1423.58582     672.0979     627.1140   1423.58582     672.0979     627.1140
   1423.57056     671.1368     627.0975   1423.57056     671.1368     627.0975
   1423.55530     670.7014     626.8656   1423.55530     670.7014     626.8656
   1423.54004     671.3245     626.7978   1423.54004     671.3245     626.7978
   1423.52478     671.6577     627.6689   1423.52478     671.6577     627.6689
   1423.50952     670.4195     627.8890   1423.50952     670.4195     627.8890
   1423.49426     670.0215     626.1516   1423.49426     670.0215     626.1516
   1423.47900     671.7554     626.8915   1423.47900     671.7554     626.8915
   1423.46375     671.5684     626.8479   1423.46375     671.5684     626.8479
   1423.44849     670.2343     626.8126   1423.44849     670.2343     626.8126
   1423.43323     668.9125     628.0203   1423.43323     668.9125     628.0203
   1423.41797     669.4553     626.9401   1423.41797     669.4553     626.9401
   1423.40271     670.0582     625.6817   1423.40271     670.0582     625.6817
   1423.38745     670.2975     627.3173   1423.38745     670.2975     627.3173
   1423.37219     670.3748     628.7374   1423.37219     670.3748     628.7374
   1423.35693     669.8047     628.0892   1423.35693     669.8047     628.0892
   1423.34167     668.3851     626.9832   1423.34167     668.3851     626.9832
   1423.32642     668.4019     627.3453   1423.32642     668.4019     627.3453
   1423.31116     668.2618     626.4378   1423.31116     668.2618     626.4378
   1423.29590     667.1138     627.1087   1423.29590     667.1138     627.1087
   1423.28064     667.8718     626.5870   1423.28064     667.8718     626.5870
   1423.26538     669.3735     626.2411   1423.26538     669.3735     626.2411
   1423.25012     667.5880     626.8540   1423.25012     667.5880     626.8540
   1423.23486     667.9606     626.0948   1423.23486     667.9606     626.0948
   1423.21960     668.2548     626.4428   1423.21960     668.2548     626.4428
   1423.20435     666.3376     626.6320   1423.20435     666.3376     626.6320
   1423.18909     667.0253     625.5151   1423.18909     667.0253     625.5151
   1423.17383     666.8621     625.8811   1423.17383     666.8621     625.8811
   1423.15857     667.2280     625.6987   1423.15857     667.2280     625.6987
   1423.14331     667.7198     625.6869   1423.14331     667.7198     625.6869
   1423.12805     665.2919     624.8925   1423.12805     665.2919     624.8925
   1423.11279     665.5134     624.8181   1423.11279     665.5134     624.8181
   1423.09753     665.2271     624.8193   1423.09753     665.2271     624.8193
   1423.08228     666.5831     624.2369   1423.08228     666.5831     624.2369
   1423.06702     665.4515     624.0191   1423.06702     665.4515     624.0191
   1423.05176     664.8681     624.3623   1423.05176     664.8681     624.3623
   1423.03650     665.7816     624.4365   1423.03650     665.7816     624.4365
   1423.02124     665.0812     622.9834   1423.02124     665.0812     622.9834
   1423.00598     665.1985     623.1045   1423.00598     665.1985     623.1045
   1422.99072     666.5136     623.0255   1422.99072     666.5136     623.0255
   1422.97546     664.9113     621.3204   1422.97546     664.9113     621.3204
   1422.96021     664.8159     621.9938   1422.96021     664.8159     621.9938
   1422.94495     664.0714     621.3099   1422.94495     664.0714     621.3099
   1422.92969     664.4197     619.9308   1422.92969     664.4197     619.9308
   1422.91443     663.1688     620.1993   1422.91443     663.1688     620.1993
   1422.89917     664.1276     620.4759   1422.89917     664.1276     620.4759
   1422.88391     663.9118     619.5068   1422.88391     663.9118     619.5068
   1422.86865     662.8055     619.3189   1422.86865     662.8055     619.3189
   1422.85339     663.5590     618.4667   1422.85339     663.5590     618.4667
   1422.83813     664.1516     618.2226   1422.83813     664.1516     618.2226
   1422.82288     662.8889     617.8237   1422.82288     662.8889     617.8237
   1422.80762     662.0506     615.9021   1422.80762     662.0506     615.9021
   1422.79236     663.4654     616.7456   1422.79236     663.4654     616.7456
   1422.77710     663.1740     614.7840   1422.77710     663.1740     614.7840
   1422.76184     661.4286     615.4370   1422.76184     661.4286     615.4370
   1422.74658     662.6392     614.4506   1422.74658     662.6392     614.4506
   1422.73132     661.3627     612.8717   1422.73132     661.3627     612.8717
   1422.71606     662.4224     612.8658   1422.71606     662.4224     612.8658
   1422.70081     660.3679     612.6885   1422.70081     660.3679     612.6885
   1422.68555     661.9438     611.5919   1422.68555     661.9438     611.5919
   1422.67029     660.7661     611.7263   1422.67029     660.7661     611.7263
   1422.65503     660.7244     609.8245   1422.65503     660.7244     609.8245
   1422.63977     661.5502     609.4940   1422.63977     661.5502     609.4940
   1422.62451     660.1001     608.3174   1422.62451     660.1001     608.3174
   1422.60925     660.6539     608.9240   1422.60925     660.6539     608.9240
   1422.59399     659.8575     607.3318   1422.59399     659.8575     607.3318
   1422.57874     658.9731     606.2938   1422.57874     658.9731     606.2938
   1422.56348     658.8159     605.2656   1422.56348     658.8159     605.2656
   1422.54822     658.4927     603.9654   1422.54822     658.4927     603.9654
   1422.53296     658.9473     603.6155   1422.53296     658.9473     603.6155
   1422.51770     659.2413     603.2207   1422.51770     659.2413     603.2207
   1422.50244     658.2979     602.9544   1422.50244     658.2979     602.9544
   1422.48718     658.3736     600.9058   1422.48718     658.3736     600.9058
   1422.47192     657.7738     600.6494   1422.47192     657.7738     600.6494
   1422.45667     657.3621     598.8917   1422.45667     657.3621     598.8917
   1422.44141     657.2075     599.0873   1422.44141     657.2075     599.0873
   1422.42615     657.5075     597.1955   1422.42615     657.5075     597.1955
   1422.41089     655.8038     596.7043   1422.41089     655.8038     596.7043
   1422.39563     656.8698     595.0824   1422.39563     656.8698     595.0824
   1422.38037     657.6867     593.6945   1422.38037     657.6867     593.6945
   1422.36511     656.5638     593.6818   1422.36511     656.5638     593.6818
   1422.34985     656.5560     592.6019   1422.34985     656.5560     592.6019
   1422.33459     656.5890     590.6838   1422.33459     656.5890     590.6838
   1422.31934     655.7086     590.5644   1422.31934     655.7086     590.5644
   1422.30408     656.4408     588.3268   1422.30408     656.4408     588.3268
   1422.28882     655.4505     587.9052   1422.28882     655.4505     587.9052
   1422.27356     656.0592     587.0734   1422.27356     656.0592     587.0734
   1422.25830     654.0840     585.7393   1422.25830     654.0840     585.7393
   1422.24304     655.2921     584.6553   1422.24304     655.2921     584.6553
   1422.22778     653.7034     583.5568   1422.22778     653.7034     583.5568
   1422.21252     654.4343     582.3378   1422.21252     654.4343     582.3378
   1422.19727     653.1942     581.0697   1422.19727     653.1942     581.0697
   1422.18201     654.6273     579.8103   1422.18201     654.6273     579.8103
   1422.16675     654.0131     578.1684   1422.16675     654.0131     578.1684
   1422.15149     654.4950     578.5131   1422.15149     654.4950     578.5131
   1422.13623     653.4800     577.0198   1422.13623     653.4800     577.0198
   1422.12097     653.6520     575.3414   1422.12097     653.6520     575.3414
   1422.10571     653.2193     574.5230   1422.10571     653.2193     574.5230
   1422.09045     652.7570     573.1387   1422.09045     652.7570     573.1387
   1422.07520     652.4424     572.4903   1422.07520     652.4424     572.4903
   1422.05994     652.1708     570.4612   1422.05994     652.1708     570.4612
   1422.04468     651.6598     569.6292   1422.04468     651.6598     569.6292
   1422.02942     652.2810     567.6658   1422.02942     652.2810     567.6658
   1422.01416     652.0600     566.9479   1422.01416     652.0600     566.9479
   1421.99890     651.6786     565.5497   1421.99890     651.6786     565.5497
   1421.98364     651.0696     563.7977   1421.98364     651.0696     563.7977
   1421.96838     651.4777     563.8871   1421.96838     651.4777     563.8871
   1421.95312     651.8047     561.7141   1421.95312     651.8047     561.7141
   1421.93787     650.3901     560.4632   1421.93787     650.3901     560.4632
   1421.92261     650.5585     559.4810   1421.92261     650.5585     559.4810
   1421.90735     649.7352     558.2025   1421.90735     649.7352     558.2025
   1421.89209     649.0196     557.5737   1421.89209     649.0196     557.5737
   1421.87683     649.4948     555.8489   1421.87683     649.4948     555.8489
   1421.86157     649.4505     553.6599   1421.86157     649.4505     553.6599
   1421.84631     648.9028     553.2087   1421.84631     648.9028     553.2087
   1421.83105     648.7173     550.1417   1421.83105     648.7173     550.1417
   1421.81580     648.9747     550.2684   1421.81580     648.9747     550.2684
   1421.80054     648.9202     548.3156   1421.80054     648.9202     548.3156
   1421.78528     648.2414     547.1718   1421.78528     648.2414     547.1718
   1421.77002     647.5768     545.4844   1421.77002     647.5768     545.4844
   1421.75476     647.8701     544.0544   1421.75476     647.8701     544.0544
   1421.73950     648.7811     543.0331   1421.73950     648.7811     543.0331
   1421.72424     647.4704     541.9017   1421.72424     647.4704     541.9017
   1421.70898     646.3930     540.7936   1421.70898     646.3930     540.7936
   1421.69373     647.6942     538.8653   1421.69373     647.6942     538.8653
   1421.67847     646.4240     537.3285   1421.67847     646.4240     537.3285
   1421.66321     645.9983     535.4577   1421.66321     645.9983     535.4577
   1421.64795     646.4613     534.5670   1421.64795     646.4613     534.5670
   1421.63269     645.5524     533.0909   1421.63269     645.5524     533.0909
   1421.61743     645.6797     532.0199   1421.61743     645.6797     532.0199
   1421.60217     646.5745     530.1895   1421.60217     646.5745     530.1895
   1421.58691     645.8397     529.4297   1421.58691     645.8397     529.4297
   1421.57166     644.8315     527.7770   1421.57166     644.8315     527.7770
   1421.55640     645.2444     527.5333   1421.55640     645.2444     527.5333
   1421.54114     645.4680     525.1356   1421.54114     645.4680     525.1356
   1421.52588     645.2250     523.7003   1421.52588     645.2250     523.7003
   1421.51062     645.2010     522.8145   1421.51062     645.2010     522.8145
   1421.49536     644.9308     520.9819   1421.49536     644.9308     520.9819
   1421.48010     645.1550     519.8585   1421.48010     645.1550     519.8585
   1421.46484     644.2374     517.8491   1421.46484     644.2374     517.8491
   1421.44958     644.4984     516.6755   1421.44958     644.4984     516.6755
   1421.43433     643.8600     515.5795   1421.43433     643.8600     515.5795
   1421.41907     644.0244     514.4769   1421.41907     644.0244     514.4769
   1421.40381     643.7873     512.1234   1421.40381     643.7873     512.1234
   1421.38855     643.0033     510.9075   1421.38855     643.0033     510.9075
   1421.37329     642.9269     509.4675   1421.37329     642.9269     509.4675
   1421.35803     642.9694     509.1001   1421.35803     642.9694     509.1001
   1421.34277     642.0648     507.6786   1421.34277     642.0648     507.6786
   1421.32751     642.4949     506.9813   1421.32751     642.4949     506.9813
   1421.31226     644.1559     505.7077   1421.31226     644.1559     505.7077
   1421.29700     642.8982     503.8303   1421.29700     642.8982     503.8303
   1421.28174     643.6785     503.4022   1421.28174     643.6785     503.4022
   1421.26648     644.9910     502.7150   1421.26648     644.9910     502.7150
   1421.25122     646.0983     502.0044   1421.25122     646.0983     502.0044
   1421.23596     646.9814     501.5093   1421.23596     646.9814     501.5093
   1421.22070     648.3551     502.2689   1421.22070     648.3551     502.2689
   1421.20544     649.9667     502.6770   1421.20544     649.9667     502.6770
   1421.19019     651.3596     501.6923   1421.19019     651.3596     501.6923
   1421.17493     651.9480     501.5417   1421.17493     651.9480     501.5417
   1421.15967     652.3619     499.1848   1421.15967     652.3619     499.1848
   1421.14441     651.9900     498.7260   1421.14441     651.9900     498.7260
   1421.12915     651.3932     497.3726   1421.12915     651.3932     497.3726
   1421.11389     651.5566     495.7137   1421.11389     651.5566     495.7137
   1421.09863     652.7720     495.2125   1421.09863     652.7720     495.2125
   1421.08337     656.5679     496.6583   1421.08337     656.5679     496.6583
   1421.06812     661.9140     499.6402   1421.06812     661.9140     499.6402
   1421.05286     668.3790     503.4484   1421.05286     668.3790     503.4484
   1421.03760     677.7708     509.6892   1421.03760     677.7708     509.6892
   1421.02234     691.0702     518.2308   1421.02234     691.0702     518.2308
   1421.00708     715.2510     533.9999   1421.00708     715.2510     533.9999
   1420.99182     745.5436     555.0417   1420.99182     745.5436     555.0417
   1420.97656     787.6141     583.4255   1420.97656     787.6141     583.4255
   1420.96130     833.2790     615.7474   1420.96130     833.2790     615.7474
   1420.94604     885.4389     650.9283   1420.94604     885.4389     650.9283
   1420.93079     949.3373     696.6719   1420.93079     949.3373     696.6719
   1420.91553    1083.8105     792.1914   1420.91553    1083.8105     792.1914
   1420.90027    1235.3986     898.2354   1420.90027    1235.3986     898.2354
   1420.88501    1262.2395     915.2991   1420.88501    1262.2395     915.2991
   1420.86975    1111.4495     803.9314   1420.86975    1111.4495     803.9314
   1420.85449     933.9354     675.7520   1420.85449     933.9354     675.7520
   1420.83923     877.5321     633.3726   1420.83923     877.5321     633.3726
   1420.82397     925.7076     666.8683   1420.82397     925.7076     666.8683
   1420.80872    1097.8722     785.5015   1420.80872    1097.8722     785.5015
   1420.79346    1388.4788     989.0635   1420.79346    1388.4788     989.0635
   1420.77820    1628.0990    1154.8622   1420.77820    1628.0990    1154.8622
   1420.76294    1723.4613    1219.7690   1420.76294    1723.4613    1219.7690
   1420.74768    1686.3652    1189.0720   1420.74768    1686.3652    1189.0720
   1420.73242    1534.8059    1079.8066   1420.73242    1534.8059    1079.8066
   1420.71716    1243.8481     875.0704   1420.71716    1243.8481     875.0704
   1420.70190    1023.0524     723.2512   1420.70190    1023.0524     723.2512
   1420.68665     903.6338     638.9418   1420.68665     903.6338     638.9418
   1420.67139     849.3713     600.4472   1420.67139     849.3713     600.4472
   1420.65613     872.9293     614.6685   1420.65613     872.9293     614.6685
   1420.64087    1000.4302     700.3628   1420.64087    1000.4302     700.3628
   1420.62561    1260.8019     876.2541   1420.62561    1260.8019     876.2541
   1420.61035    1565.3611    1082.5653   1420.61035    1565.3611    1082.5653
   1420.59509    1723.5045    1188.2994   1420.59509    1723.5045    1188.2994
   1420.57983    1851.7435    1271.7039   1420.57983    1851.7435    1271.7039
   1420.56458    1930.1543    1324.2207   1420.56458    1930.1543    1324.2207
   1420.54932    1972.8434    1347.3422   1420.54932    1972.8434    1347.3422
   1420.53406    2077.9475    1415.6965   1420.53406    2077.9475    1415.6965
   1420.51880    2153.6948    1463.3751   1420.51880    2153.6948    1463.3751
   1420.50354    2020.1434    1369.0092   1420.50354    2020.1434    1369.0092
   1420.48828    1545.5614    1048.9363   1420.48828    1545.5614    1048.9363
   1420.47302    1135.2928     774.8167   1420.47302    1135.2928     774.8167
   1420.45776     913.5691     624.1487   1420.45776     913.5691     624.1487
   1420.44250     801.3158     550.0558   1420.44250     801.3158     550.0558
   1420.42725     753.6285     516.0692   1420.42725     753.6285     516.0692
   1420.41199     722.6046     494.5547   1420.41199     722.6046     494.5547
   1420.39673     693.7927     475.2380   1420.39673     693.7927     475.2380
   1420.38147     669.5349     457.9341   1420.38147     669.5349     457.9341
   1420.36621     655.3176     447.4217   1420.36621     655.3176     447.4217
   1420.35095     649.9951     442.6077   1420.35095     649.9951     442.6077
   1420.33569     647.5801     440.1489   1420.33569     647.5801     440.1489
   1420.32043     645.0382     438.4146   1420.32043     645.0382     438.4146
   1420.30518     645.9268     436.8355   1420.30518     645.9268     436.8355
   1420.28992     645.1263     435.3468   1420.28992     645.1263     435.3468
   1420.27466     644.6689     434.1827   1420.27466     644.6689     434.1827
   1420.25940     644.5837     433.9607   1420.25940     644.5837     433.9607
   1420.24414     643.3615     433.0984   1420.24414     643.3615     433.0984
   1420.22888     643.0604     432.0700   1420.22888     643.0604     432.0700
   1420.21362     641.2827     430.8678   1420.21362     641.2827     430.8678
   1420.19836     641.0067     428.5361   1420.19836     641.0067     428.5361
   1420.18311     639.8389     427.9055   1420.18311     639.8389     427.9055
   1420.16785     638.3660     426.8106   1420.16785     638.3660     426.8106
   1420.15259     637.9759     425.6740   1420.15259     637.9759     425.6740
   1420.13733     636.8554     423.8566   1420.13733     636.8554     423.8566
   1420.12207     636.1618     422.2412   1420.12207     636.1618     422.2412
   1420.10681     636.8759     422.0021   1420.10681     636.8759     422.0021
   1420.09155     635.5527     421.0458   1420.09155     635.5527     421.0458
   1420.07629     637.2205     420.4578   1420.07629     637.2205     420.4578
   1420.06104     635.7576     419.6052   1420.06104     635.7576     419.6052
   1420.04578     635.6830     418.9481   1420.04578     635.6830     418.9481
   1420.03052     635.3499     418.5115   1420.03052     635.3499     418.5115
   1420.01526     635.5929     418.1325   1420.01526     635.5929     418.1325
   1420.00000     636.3795     418.7942   1420.00000     636.3795     418.7942
   1419.98474     637.1659     419.4559   1419.98474     637.1659     419.4559
   1419.96948     638.5916     416.8625   1419.96948     638.5916     416.8625
   1419.95422     635.4208     414.7317   1419.95422     635.4208     414.7317
   1419.93896     635.2531     414.4855   1419.93896     635.2531     414.4855
   1419.92371     636.1509     413.9816   1419.92371     636.1509     413.9816
   1419.90845     635.9019     413.4487   1419.90845     635.9019     413.4487
   1419.89319     637.7318     413.0059   1419.89319     637.7318     413.0059
   1419.87793     636.3339     412.1521   1419.87793     636.3339     412.1521
   1419.86267     637.3820     411.2688   1419.86267     637.3820     411.2688
   1419.84741     637.6417     411.5726   1419.84741     637.6417     411.5726
   1419.83215     636.7197     411.5487   1419.83215     636.7197     411.5487
   1419.81689     639.1305     410.5561   1419.81689     639.1305     410.5561
   1419.80164     638.5936     411.0158   1419.80164     638.5936     411.0158
   1419.78638     638.6138     410.0602   1419.78638     638.6138     410.0602
   1419.77112     639.5588     409.7363   1419.77112     639.5588     409.7363
   1419.75586     639.2908     409.4487   1419.75586     639.2908     409.4487
   1419.74060     639.6218     408.9376   1419.74060     639.6218     408.9376
   1419.72534     640.0386     408.5074   1419.72534     640.0386     408.5074
   1419.71008     639.5588     408.7490   1419.71008     639.5588     408.7490
   1419.69482     640.1022     408.2266   1419.69482     640.1022     408.2266
   1419.67957     640.1323     407.5742   1419.67957     640.1323     407.5742
   1419.66431     641.4752     407.4960   1419.66431     641.4752     407.4960
   1419.64905     641.0907     407.6317   1419.64905     641.0907     407.6317
   1419.63379     641.5558     406.6852   1419.63379     641.5558     406.6852
   1419.61853     641.3118     406.6553   1419.61853     641.3118     406.6553
   1419.60327     642.3587     405.9253   1419.60327     642.3587     405.9253
   1419.58801     642.3600     406.1723   1419.58801     642.3600     406.1723
   1419.57275     642.5384     405.6719   1419.57275     642.5384     405.6719
   1419.55750     643.1869     405.2029   1419.55750     643.1869     405.2029
   1419.54224     643.7600     404.9619   1419.54224     643.7600     404.9619
   1419.52698     643.5108     405.3468   1419.52698     643.5108     405.3468
   1419.51172     644.6273     405.0705   1419.51172     644.6273     405.0705
   1419.49646     644.8758     404.3518   1419.49646     644.8758     404.3518
   1419.48120     644.9021     404.6133   1419.48120     644.9021     404.6133
   1419.46594     645.6203     404.4758   1419.46594     645.6203     404.4758
   1419.45068     646.2184     404.3184   1419.45068     646.2184     404.3184
   1419.43542     646.3867     404.4675   1419.43542     646.3867     404.4675
   1419.42017     647.6530     403.3682   1419.42017     647.6530     403.3682
   1419.40491     647.0601     403.6249   1419.40491     647.0601     403.6249
   1419.38965     646.5762     403.5576   1419.38965     646.5762     403.5576
   1419.37439     647.2836     402.7679   1419.37439     647.2836     402.7679
   1419.35913     647.5756     403.4547   1419.35913     647.5756     403.4547
   1419.34387     650.2427     403.9338   1419.34387     650.2427     403.9338
   1419.32861     647.7594     403.1591   1419.32861     647.7594     403.1591
   1419.31335     649.1697     403.8340   1419.31335     649.1697     403.8340
   1419.29810     650.1687     403.5106   1419.29810     650.1687     403.5106
   1419.28284     649.2451     402.6666   1419.28284     649.2451     402.6666
   1419.26758     651.5703     403.6164   1419.26758     651.5703     403.6164
   1419.25232     651.2177     402.7282   1419.25232     651.2177     402.7282
   1419.23706     650.7062     403.0333   1419.23706     650.7062     403.0333
   1419.22180     652.6028     402.7212   1419.22180     652.6028     402.7212
   1419.20654     652.3245     403.1351   1419.20654     652.3245     403.1351
   1419.19128     652.9557     403.1647   1419.19128     652.9557     403.1647
   1419.17603     653.8437     402.9549   1419.17603     653.8437     402.9549
   1419.16077     653.6724     402.6080   1419.16077     653.6724     402.6080
   1419.14551     653.8158     403.1556   1419.14551     653.8158     403.1556
   1419.13025     654.7722     402.6131   1419.13025     654.7722     402.6131
   1419.11499     654.1685     403.2721   1419.11499     654.1685     403.2721
   1419.09973     656.4453     403.1652   1419.09973     656.4453     403.1652
   1419.08447     656.4186     403.4751   1419.08447     656.4186     403.4751
   1419.06921     656.6083     403.3933   1419.06921     656.6083     403.3933
   1419.05396     656.9949     403.3350   1419.05396     656.9949     403.3350
   1419.03870     656.9562     403.5470   1419.03870     656.9562     403.5470
   1419.02344     658.8515     403.8544   1419.02344     658.8515     403.8544
   1419.00818     658.7285     404.0240   1419.00818     658.7285     404.0240
   1418.99292     659.3118     403.9134   1418.99292     659.3118     403.9134
   1418.97766     659.5922     403.7782   1418.97766     659.5922     403.7782
   1418.96240     660.5209     404.3633   1418.96240     660.5209     404.3633
   1418.94714     660.3036     404.2895   1418.94714     660.3036     404.2895
   1418.93188     660.7072     404.7015   1418.93188     660.7072     404.7015
   1418.91663     661.5959     404.9809   1418.91663     661.5959     404.9809
   1418.90137     661.9307     405.3438   1418.90137     661.9307     405.3438
   1418.88611     664.1339     404.9286   1418.88611     664.1339     404.9286
   1418.87085     663.8370     405.3246   1418.87085     663.8370     405.3246
   1418.85559     663.7505     405.9706   1418.85559     663.7505     405.9706
   1418.84033     663.5394     405.6214   1418.84033     663.5394     405.6214
   1418.82507     666.0020     406.3855   1418.82507     666.0020     406.3855
   1418.80981     665.5860     407.1879   1418.80981     665.5860     407.1879
   1418.79456     666.1440     406.7777   1418.79456     666.1440     406.7777
   1418.77930     666.4852     406.6671   1418.77930     666.4852     406.6671
   1418.76404     668.1335     406.9260   1418.76404     668.1335     406.9260
   1418.74878     667.6902     406.9515   1418.74878     667.6902     406.9515
   1418.73352     668.5478     407.0157   1418.73352     668.5478     407.0157
   1418.71826     668.8806     408.4431   1418.71826     668.8806     408.4431
   1418.70300     669.1719     408.5491   1418.70300     669.1719     408.5491
   1418.68774     670.8917     408.3880   1418.68774     670.8917     408.3880
   1418.67249     672.2419     408.6476   1418.67249     672.2419     408.6476
   1418.65723     671.6389     408.8443   1418.65723     671.6389     408.8443
   1418.64197     671.9269     409.6678   1418.64197     671.9269     409.6678
   1418.62671     672.8408     409.6749   1418.62671     672.8408     409.6749
   1418.61145     672.8755     410.5511   1418.61145     672.8755     410.5511
   1418.59619     675.3475     410.4819   1418.59619     675.3475     410.4819
   1418.58093     675.2476     411.2761   1418.58093     675.2476     411.2761
   1418.56567     676.2910     411.2619   1418.56567     676.2910     411.2619
   1418.55042     675.6789     411.9058   1418.55042     675.6789     411.9058
   1418.53516     676.6596     412.3387   1418.53516     676.6596     412.3387
   1418.51990     678.3152     412.4606   1418.51990     678.3152     412.4606
   1418.50464     678.1459     412.4164   1418.50464     678.1459     412.4164
   1418.48938     680.0971     413.5121   1418.48938     680.0971     413.5121
   1418.47412     679.8581     414.0588   1418.47412     679.8581     414.0588
   1418.45886     680.6597     413.7586   1418.45886     680.6597     413.7586
   1418.44360     681.1366     414.0463   1418.44360     681.1366     414.0463
   1418.42834     682.1624     414.7156   1418.42834     682.1624     414.7156
   1418.41309     683.1188     415.1417   1418.41309     683.1188     415.1417
   1418.39783     683.9816     415.2355   1418.39783     683.9816     415.2355
   1418.38257     683.8611     416.6748   1418.38257     683.8611     416.6748
   1418.36731     685.4178     416.7646   1418.36731     685.4178     416.7646
   1418.35205     685.2966     417.9239   1418.35205     685.2966     417.9239
   1418.33679     685.5370     417.5619   1418.33679     685.5370     417.5619
   1418.32153     687.3356     418.3498   1418.32153     687.3356     418.3498
   1418.30627     688.5648     419.1704   1418.30627     688.5648     419.1704
   1418.29102     687.9174     419.7528   1418.29102     687.9174     419.7528
   1418.27576     688.8795     419.4739   1418.27576     688.8795     419.4739
   1418.26050     690.4014     419.4878   1418.26050     690.4014     419.4878
   1418.24524     690.6196     420.6383   1418.24524     690.6196     420.6383
   1418.22998     691.3802     420.9221   1418.22998     691.3802     420.9221
   1418.21472     693.3690     420.6861   1418.21472     693.3690     420.6861
   1418.19946     693.2637     421.8142   1418.19946     693.2637     421.8142
   1418.18420     694.9189     422.9104   1418.18420     694.9189     422.9104
   1418.16895     694.5007     423.2272   1418.16895     694.5007     423.2272
   1418.15369     694.5366     422.9633   1418.15369     694.5366     422.9633
   1418.13843     696.9168     424.4691   1418.13843     696.9168     424.4691
   1418.12317     696.5449     425.1902   1418.12317     696.5449     425.1902
   1418.10791     697.3892     424.8212   1418.10791     697.3892     424.8212
   1418.09265     698.7914     426.0486   1418.09265     698.7914     426.0486
   1418.07739     699.8287     426.4526   1418.07739     699.8287     426.4526
   1418.06213     700.8616     427.0585   1418.06213     700.8616     427.0585
   1418.04688     701.2813     427.6479   1418.04688     701.2813     427.6479
   1418.03162     702.1057     428.0000   1418.03162     702.1057     428.0000
   1418.01636     702.4552     429.0917   1418.01636     702.4552     429.0917
   1418.00110     703.8721     429.3557   1418.00110     703.8721     429.3557
   1417.98584     704.3680     430.1038   1417.98584     704.3680     430.1038
   1417.97058     706.1074     430.7513   1417.97058     706.1074     430.7513
   1417.95532     705.5903     430.3981   1417.95532     705.5903     430.3981
   1417.94006     706.5812     431.1767   1417.94006     706.5812     431.1767
   1417.92480     707.4736     432.9662   1417.92480     707.4736     432.9662
   1417.90955     708.4537     433.1904   1417.90955     708.4537     433.1904
   1417.89429     710.2038     433.8448   1417.89429     710.2038     433.8448
   1417.87903     711.6156     434.7349   1417.87903     711.6156     434.7349
   1417.86377     711.6829     434.5331   1417.86377     711.6829     434.5331
   1417.84851     712.9898     434.7464   1417.84851     712.9898     434.7464
   1417.83325     713.1328     435.8457   1417.83325     713.1328     435.8457
   1417.81799     713.9189     436.7545   1417.81799     713.9189     436.7545
   1417.80273     715.0167     436.7839   1417.80273     715.0167     436.7839
   1417.78748     716.0539     437.7129   1417.78748     716.0539     437.7129
   1417.77222     717.2466     438.8218   1417.77222     717.2466     438.8218
   1417.75696     717.7126     438.9792   1417.75696     717.7126     438.9792
   1417.74170     718.4401     439.5975   1417.74170     718.4401     439.5975
   1417.72644     719.2269     440.5303   1417.72644     719.2269     440.5303
   1417.71118     719.9803     440.0667   1417.71118     719.9803     440.0667
   1417.69592     722.0423     441.0676   1417.69592     722.0423     441.0676
   1417.68066     721.6396     441.9352   1417.68066     721.6396     441.9352
   1417.66541     723.5746     442.4935   1417.66541     723.5746     442.4935
   1417.65015     723.8398     442.8243   1417.65015     723.8398     442.8243
   1417.63489     724.3256     443.6992   1417.63489     724.3256     443.6992
   1417.61963     725.6725     444.7306   1417.61963     725.6725     444.7306
   1417.60437     725.3145     444.2543   1417.60437     725.3145     444.2543
   1417.58911     727.7354     446.1769   1417.58911     727.7354     446.1769
   1417.57385     728.0234     446.8471   1417.57385     728.0234     446.8471
   1417.55859     729.4113     447.0562   1417.55859     729.4113     447.0562
   1417.54333     730.3416     448.0899   1417.54333     730.3416     448.0899
   1417.52808     731.4053     448.1823   1417.52808     731.4053     448.1823
   1417.51282     731.4632     449.6432   1417.51282     731.4632     449.6432
   1417.49756     732.6974     449.6354   1417.49756     732.6974     449.6354
   1417.48230     733.6949     450.6541   1417.48230     733.6949     450.6541
   1417.46704     733.2390     451.2004   1417.46704     733.2390     451.2004
   1417.45178     735.0485     451.8635   1417.45178     735.0485     451.8635
   1417.43652     736.7403     451.7289   1417.43652     736.7403     451.7289
   1417.42126     736.7963     452.5834   1417.42126     736.7963     452.5834
   1417.40601     737.1996     453.3814   1417.40601     737.1996     453.3814
   1417.39075     738.3295     454.1942   1417.39075     738.3295     454.1942
   1417.37549     739.7802     455.1066   1417.37549     739.7802     455.1066
   1417.36023     740.0123     455.3755   1417.36023     740.0123     455.3755
   1417.34497     739.5985     456.0475   1417.34497     739.5985     456.0475
   1417.32971     741.9415     456.3108   1417.32971     741.9415     456.3108
   1417.31445     741.3546     456.4541   1417.31445     741.3546     456.4541
   1417.29919     742.7942     457.4825   1417.29919     742.7942     457.4825
   1417.28394     743.5666     458.1287   1417.28394     743.5666     458.1287
   1417.26868     745.1281     458.7295   1417.26868     745.1281     458.7295
   1417.25342     746.0125     459.2636   1417.25342     746.0125     459.2636
   1417.23816     746.7457     460.5777   1417.23816     746.7457     460.5777
   1417.22290     747.0783     461.2464   1417.22290     747.0783     461.2464
   1417.20764     747.4960     461.1276   1417.20764     747.4960     461.1276
   1417.19238     748.3076     461.4613   1417.19238     748.3076     461.4613
   1417.17712     748.9394     461.7593   1417.17712     748.9394     461.7593
   1417.16187     749.8485     462.4508   1417.16187     749.8485     462.4508
   1417.14661     749.7779     463.2366   1417.14661     749.7779     463.2366
   1417.13135     750.5929     463.4262   1417.13135     750.5929     463.4262
   1417.11609     752.7076     464.5395   1417.11609     752.7076     464.5395
   1417.10083     752.5012     465.2079   1417.10083     752.5012     465.2079
   1417.08557     754.1801     466.0927   1417.08557     754.1801     466.0927
   1417.07031     755.2524     465.7150   1417.07031     755.2524     465.7150
   1417.05505     754.2867     466.4633   1417.05505     754.2867     466.4633
   1417.03979     755.9354     467.5270   1417.03979     755.9354     467.5270
   1417.02454     754.7775     467.8251   1417.02454     754.7775     467.8251
   1417.00928     757.2081     468.4898   1417.00928     757.2081     468.4898
   1416.99402     757.5711     469.3381   1416.99402     757.5711     469.3381
   1416.97876     758.0115     469.5606   1416.97876     758.0115     469.5606
   1416.96350     757.7064     469.8320   1416.96350     757.7064     469.8320
   1416.94824     758.4122     470.4578   1416.94824     758.4122     470.4578
   1416.93298     758.9188     469.7918   1416.93298     758.9188     469.7918
   1416.91772     758.5466     471.5330   1416.91772     758.5466     471.5330
   1416.90247     760.2927     471.7005   1416.90247     760.2927     471.7005
   1416.88721     760.8586     471.7979   1416.88721     760.8586     471.7979
   1416.87195     761.7579     472.5765   1416.87195     761.7579     472.5765
   1416.85669     762.1481     473.2609   1416.85669     762.1481     473.2609
   1416.84143     761.9961     473.1717   1416.84143     761.9961     473.1717
   1416.82617     762.1713     473.4925   1416.82617     762.1713     473.4925
   1416.81091     765.0591     474.2984   1416.81091     765.0591     474.2984
   1416.79565     764.3363     474.2728   1416.79565     764.3363     474.2728
   1416.78040     764.3361     474.2306   1416.78040     764.3361     474.2306
   1416.76514     764.1733     476.0294   1416.76514     764.1733     476.0294
   1416.74988     765.9478     476.0333   1416.74988     765.9478     476.0333
   1416.73462     764.7960     476.3790   1416.73462     764.7960     476.3790
   1416.71936     765.0719     475.9651   1416.71936     765.0719     475.9651
   1416.70410     764.8954     476.0266   1416.70410     764.8954     476.0266
   1416.68884     764.6161     477.6786   1416.68884     764.6161     477.6786
   1416.67358     767.1273     477.0337   1416.67358     767.1273     477.0337
   1416.65833     765.6437     477.3853   1416.65833     765.6437     477.3853
   1416.64307     766.1713     477.5867   1416.64307     766.1713     477.5867
   1416.62781     766.5504     478.3075   1416.62781     766.5504     478.3075
   1416.61255     766.7827     478.6150   1416.61255     766.7827     478.6150
   1416.59729     767.4192     478.1499   1416.59729     767.4192     478.1499
   1416.58203     767.4381     479.0057   1416.58203     767.4381     479.0057
   1416.56677     767.5964     479.3979   1416.56677     767.5964     479.3979
   1416.55151     766.7018     479.6299   1416.55151     766.7018     479.6299
   1416.53625     768.0847     479.2927   1416.53625     768.0847     479.2927
   1416.52100     768.1016     480.0582   1416.52100     768.1016     480.0582
   1416.50574     767.3162     480.5609   1416.50574     767.3162     480.5609
   1416.49048     767.4601     479.6832   1416.49048     767.4601     479.6832
   1416.47522     766.9032     479.8916   1416.47522     766.9032     479.8916
   1416.45996     765.8885     479.9829   1416.45996     765.8885     479.9829
   1416.44470     767.0302     480.1101   1416.44470     767.0302     480.1101
   1416.42944     766.3362     480.2514   1416.42944     766.3362     480.2514
   1416.41418     766.8988     480.1986   1416.41418     766.8988     480.1986
   1416.39893     765.7994     480.3759   1416.39893     765.7994     480.3759
   1416.38367     767.0818     480.2477   1416.38367     767.0818     480.2477
   1416.36841     766.4410     482.0223   1416.36841     766.4410     482.0223
   1416.35315     766.2814     481.2554   1416.35315     766.2814     481.2554
   1416.33789     766.6143     481.0981   1416.33789     766.6143     481.0981
   1416.32263     766.1595     480.9379   1416.32263     766.1595     480.9379
   1416.30737     767.4655     480.9854   1416.30737     767.4655     480.9854
   1416.29211     765.9788     480.6485   1416.29211     765.9788     480.6485
   1416.27686     766.7255     480.5907   1416.27686     766.7255     480.5907
   1416.26160     766.4373     481.0941   1416.26160     766.4373     481.0941
   1416.24634     766.4949     480.4414   1416.24634     766.4949     480.4414
   1416.23108     766.1356     481.0894   1416.23108     766.1356     481.0894
   1416.21582     764.8817     480.5157   1416.21582     764.8817     480.5157
   1416.20056     764.2469     481.1310   1416.20056     764.2469     481.1310
   1416.18530     764.1923     480.5962   1416.18530     764.1923     480.5962
   1416.17004     764.4009     480.2196   1416.17004     764.4009     480.2196
   1416.15479     763.2726     480.5082   1416.15479     763.2726     480.5082
   1416.13953     763.3411     480.6261   1416.13953     763.3411     480.6261
   1416.12427     763.8111     480.5294   1416.12427     763.8111     480.5294
   1416.10901     762.2565     480.1451   1416.10901     762.2565     480.1451
   1416.09375     762.4648     479.6479   1416.09375     762.4648     479.6479
   1416.07849     760.4928     480.4730   1416.07849     760.4928     480.4730
   1416.06323     761.1885     479.9979   1416.06323     761.1885     479.9979
   1416.04797     760.5279     479.7324   1416.04797     760.5279     479.7324
   1416.03271     760.2567     480.0098   1416.03271     760.2567     480.0098
   1416.01746     760.2725     479.5758   1416.01746     760.2725     479.5758
   1416.00220     758.8393     479.7522   1416.00220     758.8393     479.7522
   1415.98694     759.2893     479.5111   1415.98694     759.2893     479.5111
   1415.97168     758.5043     480.2035   1415.97168     758.5043     480.2035
   1415.95642     758.4642     479.0507   1415.95642     758.4642     479.0507
   1415.94116     758.0411     478.7062   1415.94116     758.0411     478.7062
   1415.92590     756.9630     478.7459   1415.92590     756.9630     478.7459
   1415.91064     757.1138     478.5289   1415.91064     757.1138     478.5289
   1415.89539     755.7077     478.5736   1415.89539     755.7077     478.5736
   1415.88013     755.0703     478.2353   1415.88013     755.0703     478.2353
   1415.86487     754.1371     478.2235   1415.86487     754.1371     478.2235
   1415.84961     754.4815     478.7351   1415.84961     754.4815     478.7351
   1415.83435     754.5197     478.0721   1415.83435     754.5197     478.0721
   1415.81909     752.7142     477.8517   1415.81909     752.7142     477.8517
   1415.80383     752.3324     477.2807   1415.80383     752.3324     477.2807
   1415.78857     752.1132     477.5672   1415.78857     752.1132     477.5672
   1415.77332     751.5796     477.1970   1415.77332     751.5796     477.1970
   1415.75806     749.6789     477.3376   1415.75806     749.6789     477.3376
   1415.74280     749.9615     477.2271   1415.74280     749.9615     477.2271
   1415.72754     750.0863     476.6921   1415.72754     750.0863     476.6921
   1415.71228     748.2565     475.0897   1415.71228     748.2565     475.0897
   1415.69702     746.0091     476.2106   1415.69702     746.0091     476.2106
   1415.68176     746.5992     475.7542   1415.68176     746.5992     475.7542
   1415.66650     745.7864     475.2517   1415.66650     745.7864     475.2517
   1415.65125     746.0956     475.9986   1415.65125     746.0956     475.9986
   1415.63599     744.6523     474.6202   1415.63599     744.6523     474.6202
   1415.62073     742.8320     474.7366   1415.62073     742.8320     474.7366
   1415.60547     742.9285     474.8518   1415.60547     742.9285     474.8518
   1415.59021     742.4587     473.5811   1415.59021     742.4587     473.5811
   1415.57495     741.4947     474.1140   1415.57495     741.4947     474.1140
   1415.55969     739.8912     474.1548   1415.55969     739.8912     474.1548
   1415.54443     740.5884     473.9424   1415.54443     740.5884     473.9424
   1415.52917     738.9922     472.7697   1415.52917     738.9922     472.7697
   1415.51392     737.3351     473.0742   1415.51392     737.3351     473.0742
   1415.49866     737.4400     472.4379   1415.49866     737.4400     472.4379
   1415.48340     735.5292     472.1463   1415.48340     735.5292     472.1463
   1415.46814     733.6439     472.2941   1415.46814     733.6439     472.2941
   1415.45288     734.3705     471.4221   1415.45288     734.3705     471.4221
   1415.43762     733.1113     471.5672   1415.43762     733.1113     471.5672
   1415.42236     731.7539     471.0413   1415.42236     731.7539     471.0413
   1415.40710     730.6679     470.9478   1415.40710     730.6679     470.9478
   1415.39185     730.4194     470.4538   1415.39185     730.4194     470.4538
   1415.37659     729.7187     469.8354   1415.37659     729.7187     469.8354
   1415.36133     727.0334     469.8573   1415.36133     727.0334     469.8573
   1415.34607     726.2583     468.7286   1415.34607     726.2583     468.7286
   1415.33081     725.9785     468.9146   1415.33081     725.9785     468.9146
   1415.31555     726.1457     468.3938   1415.31555     726.1457     468.3938
   1415.30029     722.4939     468.2782   1415.30029     722.4939     468.2782
   1415.28503     722.7939     467.6805   1415.28503     722.7939     467.6805
   1415.26978     720.8085     467.1984   1415.26978     720.8085     467.1984
   1415.25452     719.7237     466.7683   1415.25452     719.7237     466.7683
   1415.23926     719.2098     466.7103   1415.23926     719.2098     466.7103
   1415.22400     718.0192     465.0576   1415.22400     718.0192     465.0576
   1415.20874     717.4988     465.2073   1415.20874     717.4988     465.2073
   1415.19348     715.4088     464.8698   1415.19348     715.4088     464.8698
   1415.17822     714.5331     465.7431   1415.17822     714.5331     465.7431
   1415.16296     711.2934     463.7926   1415.16296     711.2934     463.7926
   1415.14771     710.1877     463.8300   1415.14771     710.1877     463.8300
   1415.13245     709.2357     463.4857   1415.13245     709.2357     463.4857
   1415.11719     708.2071     463.0266   1415.11719     708.2071     463.0266
   1415.10193     707.2131     462.8800   1415.10193     707.2131     462.8800
   1415.08667     705.1279     462.0912   1415.08667     705.1279     462.0912
   1415.07141     703.8278     460.8838   1415.07141     703.8278     460.8838
   1415.05615     702.8246     460.6286   1415.05615     702.8246     460.6286
   1415.04089     700.7546     460.0418   1415.04089     700.7546     460.0418
   1415.02563     698.4156     459.4135   1415.02563     698.4156     459.4135
   1415.01038     697.6116     459.3317   1415.01038     697.6116     459.3317
   1414.99512     696.2450     458.8039   1414.99512     696.2450     458.8039
   1414.97986     695.0544     457.5366   1414.97986     695.0544     457.5366
   1414.96460     693.2960     457.9830   1414.96460     693.2960     457.9830
   1414.94934     691.8847     456.8249   1414.94934     691.8847     456.8249
   1414.93408     690.4147     456.3826   1414.93408     690.4147     456.3826
   1414.91882     688.3317     455.8031   1414.91882     688.3317     455.8031
   1414.90356     687.7117     455.7351   1414.90356     687.7117     455.7351
   1414.88831     684.2585     454.3617   1414.88831     684.2585     454.3617
   1414.87305     683.8541     453.4467   1414.87305     683.8541     453.4467
   1414.85779     682.3528     453.1867   1414.85779     682.3528     453.1867
   1414.84253     680.2350     452.7003   1414.84253     680.2350     452.7003
   1414.82727     678.3594     451.6483   1414.82727     678.3594     451.6483
   1414.81201     676.9457     451.6214   1414.81201     676.9457     451.6214
   1414.79675     675.1507     450.4438   1414.79675     675.1507     450.4438
   1414.78149     672.2056     449.9224   1414.78149     672.2056     449.9224
   1414.76624     670.7832     448.6507   1414.76624     670.7832     448.6507
   1414.75098     669.1957     447.7198   1414.75098     669.1957     447.7198
   1414.73572     667.7725     447.4824   1414.73572     667.7725     447.4824
   1414.72046     666.2131     446.6490   1414.72046     666.2131     446.6490
   1414.70520     662.4547     445.8297   1414.70520     662.4547     445.8297
   1414.68994     660.7969     445.1543   1414.68994     660.7969     445.1543
   1414.67468     660.4757     443.7118   1414.67468     660.4757     443.7118
   1414.65942     656.2990     443.0000   1414.65942     656.2990     443.0000
   1414.64417     655.0259     442.8483   1414.64417     655.0259     442.8483
   1414.62891     654.4630     440.9674   1414.62891     654.4630     440.9674
   1414.61365     650.5960     440.3727   1414.61365     650.5960     440.3727
   1414.59839     649.3569     439.7782   1414.59839     649.3569     439.7782
   1414.58313     646.2806     439.0160   1414.58313     646.2806     439.0160
   1414.56787     644.2292     438.8111   1414.56787     644.2292     438.8111
   1414.55261     643.0369     437.2721   1414.55261     643.0369     437.2721
   1414.53735     639.6061     436.4853   1414.53735     639.6061     436.4853
   1414.52209     638.2476     435.3289   1414.52209     638.2476     435.3289
   1414.50684     635.6595     434.4693   1414.50684     635.6595     434.4693
   1414.49158     633.1315     433.4051   1414.49158     633.1315     433.4051
   1414.47632     631.7095     432.7399   1414.47632     631.7095     432.7399
   1414.46106     629.8432     431.2882   1414.46106     629.8432     431.2882
   1414.44580     627.3047     430.3906   1414.44580     627.3047     430.3906
   1414.43054     624.3533     429.0085   1414.43054     624.3533     429.0085
   1414.41528     622.0660     428.6709   1414.41528     622.0660     428.6709
   1414.40002     619.4877     427.6951   1414.40002     619.4877     427.6951
   1414.38477     617.4578     427.6164   1414.38477     617.4578     427.6164
   1414.36951     614.6155     425.7599   1414.36951     614.6155     425.7599
   1414.35425     612.0684     424.8762   1414.35425     612.0684     424.8762
   1414.33899     610.2558     423.6219   1414.33899     610.2558     423.6219
   1414.32373     606.6405     422.4101   1414.32373     606.6405     422.4101
   1414.30847     604.7878     421.0567   1414.30847     604.7878     421.0567
   1414.29321     603.7134     419.9626   1414.29321     603.7134     419.9626
   1414.27795     599.6416     418.6032   1414.27795     599.6416     418.6032
   1414.26270     597.3946     417.9831   1414.26270     597.3946     417.9831
   1414.24744     594.7341     416.6691   1414.24744     594.7341     416.6691
   1414.23218     591.6228     415.4069   1414.23218     591.6228     415.4069
   1414.21692     589.3347     414.7581   1414.21692     589.3347     414.7581
   1414.20166     586.4686     414.3681   1414.20166     586.4686     414.3681
   1414.18640     584.0261     412.3517   1414.18640     584.0261     412.3517
   1414.17114     581.3764     410.8105   1414.17114     581.3764     410.8105
   1414.15588     579.1219     409.2921   1414.15588     579.1219     409.2921
   1414.14062     576.3145     407.7700   1414.14062     576.3145     407.7700
   1414.12537     574.3394     407.1004   1414.12537     574.3394     407.1004
   1414.11011     570.6426     405.7480   1414.11011     570.6426     405.7480
   1414.09485     567.8774     404.5461   1414.09485     567.8774     404.5461
   1414.07959     565.0986     402.7421   1414.07959     565.0986     402.7421
   1414.06433     563.1209     401.4461   1414.06433     563.1209     401.4461
   1414.04907     559.3685     400.3575   1414.04907     559.3685     400.3575
   1414.03381     556.8672     399.8581   1414.03381     556.8672     399.8581
   1414.01855     554.7260     398.1869   1414.01855     554.7260     398.1869
   1414.00330     573.8222     406.4799   1414.00330     573.8222     406.4799
   1413.98804     549.9459     396.3763   1413.98804     549.9459     396.3763
   1413.97278     545.7083     393.8844   1413.97278     545.7083     393.8844
   1413.95752     542.1523     392.0735   1413.95752     542.1523     392.0735
   1413.94226     539.5820     391.5196   1413.94226     539.5820     391.5196
   1413.92700     536.5119     389.8185   1413.92700     536.5119     389.8185
   1413.91174     534.4302     388.2880   1413.91174     534.4302     388.2880
   1413.89648     531.6260     386.5996   1413.89648     531.6260     386.5996
   1413.88123     528.5085     385.9800   1413.88123     528.5085     385.9800
   1413.86597     525.1028     384.1185   1413.86597     525.1028     384.1185
   1413.85071     522.0830     382.6345   1413.85071     522.0830     382.6345
   1413.83545     519.8792     381.2234   1413.83545     519.8792     381.2234
   1413.82019     516.3273     379.4583   1413.82019     516.3273     379.4583
   1413.80493     513.8010     377.8865   1413.80493     513.8010     377.8865
   1413.78967     511.1999     376.9341   1413.78967     511.1999     376.9341
   1413.77441     509.0664     375.3838   1413.77441     509.0664     375.3838
   1413.75916     505.6595     373.8161   1413.75916     505.6595     373.8161
   1413.74390     503.4939     372.5025   1413.74390     503.4939     372.5025
   1413.72864     498.7880     370.6502   1413.72864     498.7880     370.6502
   1413.71338     495.9236     369.1775   1413.71338     495.9236     369.1775
   1413.69812     493.2813     367.8423   1413.69812     493.2813     367.8423
   1413.68286     490.6819     366.5351   1413.68286     490.6819     366.5351
   1413.66760     487.5073     364.7151   1413.66760     487.5073     364.7151
   1413.65234     484.5582     363.7935   1413.65234     484.5582     363.7935
   1413.63708     481.0001     362.3007   1413.63708     481.0001     362.3007
   1413.62183     478.4528     360.7814   1413.62183     478.4528     360.7814
   1413.60657     476.1458     359.0311   1413.60657     476.1458     359.0311
   1413.59131     473.4241     357.2240   1413.59131     473.4241     357.2240
   1413.57605     470.2524     355.8328   1413.57605     470.2524     355.8328
   1413.56079     467.5988     354.5152   1413.56079     467.5988     354.5152
   1413.54553     465.2423     352.8081   1413.54553     465.2423     352.8081
   1413.53027     461.2210     351.0945   1413.53027     461.2210     351.0945
   1413.51501     459.1205     349.1058   1413.51501     459.1205     349.1058
   1413.49976     456.0900     347.9637   1413.49976     456.0900     347.9637
   1413.48450     454.0254     346.3906   1413.48450     454.0254     346.3906
   1413.46924     451.0084     344.9202   1413.46924     451.0084     344.9202
   1413.45398     447.7316     343.4041   1413.45398     447.7316     343.4041
   1413.43872     444.7063     342.0633   1413.43872     444.7063     342.0633
   1413.42346     443.1771     340.5305   1413.42346     443.1771     340.5305
   1413.40820     440.0101     339.4768   1413.40820     440.0101     339.4768
   1413.39294     436.8569     337.3886   1413.39294     436.8569     337.3886
   1413.37769     433.9727     335.5879   1413.37769     433.9727     335.5879
   1413.36243     431.5948     334.7397   1413.36243     431.5948     334.7397
   1413.34717     428.5089     332.9792   1413.34717     428.5089     332.9792
   1413.33191     426.2983     331.5163   1413.33191     426.2983     331.5163
   1413.31665     423.1774     330.4196   1413.31665     423.1774     330.4196
   1413.30139     420.6639     328.3615   1413.30139     420.6639     328.3615
   1413.28613     418.5001     326.3810   1413.28613     418.5001     326.3810
   1413.27087     415.9320     325.7567   1413.27087     415.9320     325.7567
   1413.25562     414.0333     323.8630   1413.25562     414.0333     323.8630
   1413.24036     410.6014     322.5939   1413.24036     410.6014     322.5939
   1413.22510     408.8438     321.0906   1413.22510     408.8438     321.0906
   1413.20984     405.7950     319.8070   1413.20984     405.7950     319.8070
   1413.19458     404.2328     318.1093   1413.19458     404.2328     318.1093
   1413.17932     401.3164     316.8805   1413.17932     401.3164     316.8805
   1413.16406     398.7711     315.6317   1413.16406     398.7711     315.6317
   1413.14880     395.9769     314.1909   1413.14880     395.9769     314.1909
   1413.13354     393.9712     313.3143   1413.13354     393.9712     313.3143
   1413.11829     391.6294     311.4964   1413.11829     391.6294     311.4964
   1413.10303     389.0063     310.0832   1413.10303     389.0063     310.0832
   1413.08777     387.5056     308.6524   1413.08777     387.5056     308.6524
   1413.07251     385.1420     307.6328   1413.07251     385.1420     307.6328
   1413.05725     382.9474     306.2567   1413.05725     382.9474     306.2567
   1413.04199     381.2693     304.7680   1413.04199     381.2693     304.7680
   1413.02673     378.7986     303.2302   1413.02673     378.7986     303.2302
   1413.01147     376.8584     302.3173   1413.01147     376.8584     302.3173
   1412.99622     374.7715     301.0445   1412.99622     374.7715     301.0445
   1412.98096     372.0375     300.0352   1412.98096     372.0375     300.0352
   1412.96570     370.5628     298.7207   1412.96570     370.5628     298.7207
   1412.95044     368.5819     297.1570   1412.95044     368.5819     297.1570
   1412.93518     366.8821     296.4661   1412.93518     366.8821     296.4661
   1412.91992     365.1972     295.0701   1412.91992     365.1972     295.0701
   1412.90466     363.3841     294.0503   1412.90466     363.3841     294.0503
   1412.88940     361.8707     293.0812   1412.88940     361.8707     293.0812
   1412.87415     359.7993     292.1432   1412.87415     359.7993     292.1432
   1412.85889     357.6263     290.6790   1412.85889     357.6263     290.6790
   1412.84363     356.6780     289.8382   1412.84363     356.6780     289.8382
   1412.82837     355.3368     289.3959   1412.82837     355.3368     289.3959
   1412.81311     353.5472     287.9653   1412.81311     353.5472     287.9653
   1412.79785     351.9498     287.1054   1412.79785     351.9498     287.1054
   1412.78259     350.6818     285.7459   1412.78259     350.6818     285.7459
   1412.76733     349.5674     285.6103   1412.76733     349.5674     285.6103
   1412.75208     348.1958     284.5436   1412.75208     348.1958     284.5436
   1412.73682     346.6539     283.4097   1412.73682     346.6539     283.4097
   1412.72156     345.4837     282.6102   1412.72156     345.4837     282.6102
   1412.70630     343.6105     281.9083   1412.70630     343.6105     281.9083
   1412.69104     343.0359     281.2951   1412.69104     343.0359     281.2951
   1412.67578     341.5394     280.7285   1412.67578     341.5394     280.7285
   1412.66052     340.3047     280.0034   1412.66052     340.3047     280.0034
   1412.64526     339.6470     279.3288   1412.64526     339.6470     279.3288
   1412.63000     338.4817     278.5061   1412.63000     338.4817     278.5061
   1412.61475     337.6371     277.9951   1412.61475     337.6371     277.9951
   1412.59949     336.7246     277.5626   1412.59949     336.7246     277.5626
   1412.58423     336.0786     276.9999   1412.58423     336.0786     276.9999
   1412.56897     335.3170     276.6055   1412.56897     335.3170     276.6055
   1412.55371     334.3789     276.8072   1412.55371     334.3789     276.8072
   1412.53845     333.3782     275.7061   1412.53845     333.3782     275.7061
   1412.52319     333.3749     275.5443   1412.52319     333.3749     275.5443
   1412.50793     332.4947     275.4969   1412.50793     332.4947     275.4969
   1412.49268     332.1553     275.0707   1412.49268     332.1553     275.0707
   1412.47742     331.1007     274.3156   1412.47742     331.1007     274.3156
   1412.46216     330.9261     274.1734   1412.46216     330.9261     274.1734
   1412.44690     330.8164     274.0358   1412.44690     330.8164     274.0358
   1412.43164     330.3980     273.8317   1412.43164     330.3980     273.8317
   1412.41638     330.0249     274.0489   1412.41638     330.0249     274.0489
   1412.40112     329.7336     274.1727   1412.40112     329.7336     274.1727
   1412.38586     329.4099     274.0023   1412.38586     329.4099     274.0023
   1412.37061     329.7913     273.8090   1412.37061     329.7913     273.8090
   1412.35535     329.0910     274.1366   1412.35535     329.0910     274.1366
   1412.34009     329.5395     274.1032   1412.34009     329.5395     274.1032
   1412.32483     329.5133     274.3354   1412.32483     329.5133     274.3354
   1412.30957     329.1647     274.4110   1412.30957     329.1647     274.4110
   1412.29431     329.4949     274.2765   1412.29431     329.4949     274.2765
   1412.27905     330.1969     274.9904   1412.27905     330.1969     274.9904
   1412.26379     330.3377     275.3596   1412.26379     330.3377     275.3596
   1412.24854     330.0703     275.3882   1412.24854     330.0703     275.3882
   1412.23328     330.6304     276.1898   1412.23328     330.6304     276.1898
   1412.21802     331.1797     276.5052   1412.21802     331.1797     276.5052
   1412.20276     331.3543     276.7031   1412.20276     331.3543     276.7031