#     FILENAME=!Skynet_57528_lach-hhg-144_20472_20968.cyb.fits
#     BASENAME=Skynet_57528_lach-hhg-144_20472_20968
#     SRC_NAME=lach-hhg-144
#     OBSERVER=hhgmadison16_9500
#     DATE_OBS=2016-05-20T17:25:33.250
#        OBSID=20472
#      SCANNUM=20968
#          MJD=57528.7271
#          UTC=62822
#     SCANTYPE=track
#     DATAMODE=HIRES
#     TUNEFREQ=1420.0000
# Actual_FREQ1=1420.0000
# Actual_FREQ2=1420.0000
#    LO1Tuning=6870.000
#     RFFILTER=1355_1435
#        OBSBW=-15.6250
#        NCHAN=1024 
#        FOCUS=37.0489
#           RA=03:32:12.96
#          DEC=56:09:02.22
#      RA(hrs)=3.536900
#     DEC(deg)=56.150600
#    AZIM(deg)=347.109
#    ELEV(deg)=71.550
#     IFattens=10.00, 9.00
#      WARNING=None
#    TCAL_XL1=7.9635
#    TCAL_YR1=9.1340
#    TCAL_XL2=7.9635
#    TCAL_YR2=9.1340
#     TRX_XL1=11.7060
#     TRX_YR1=11.7060
#     TRX_XL2=11.7060
#     TRX_YR2=11.7060
#        TAVE=1.0000
#Freq1(MHz)          XL1          YR1  Freq2(MHz)          XL2          YR2 

   1427.81250     379.6648     321.4299   1427.81250     379.6648     321.4299
   1427.79724     380.7355     322.3548   1427.79724     380.7355     322.3548
   1427.78198     380.7288     323.7493   1427.78198     380.7288     323.7493
   1427.76672     382.1398     324.9524   1427.76672     382.1398     324.9524
   1427.75146     382.6511     325.7217   1427.75146     382.6511     325.7217
   1427.73621     383.7942     327.4903   1427.73621     383.7942     327.4903
   1427.72095     383.5347     329.0587   1427.72095     383.5347     329.0587
   1427.70569     385.7856     329.7637   1427.70569     385.7856     329.7637
   1427.69043     386.2310     331.5969   1427.69043     386.2310     331.5969
   1427.67517     387.2784     332.3269   1427.67517     387.2784     332.3269
   1427.65991     389.4519     334.4244   1427.65991     389.4519     334.4244
   1427.64465     389.3785     335.6347   1427.64465     389.3785     335.6347
   1427.62939     391.1167     337.2843   1427.62939     391.1167     337.2843
   1427.61414     392.3561     338.5795   1427.61414     392.3561     338.5795
   1427.59888     393.7199     340.4051   1427.59888     393.7199     340.4051
   1427.58362     395.3207     342.4081   1427.58362     395.3207     342.4081
   1427.56836     396.3095     343.4019   1427.56836     396.3095     343.4019
   1427.55310     398.1613     345.6494   1427.55310     398.1613     345.6494
   1427.53784     399.5057     347.2325   1427.53784     399.5057     347.2325
   1427.52258     400.8925     349.0935   1427.52258     400.8925     349.0935
   1427.50732     402.4712     351.2997   1427.50732     402.4712     351.2997
   1427.49207     404.6929     352.1572   1427.49207     404.6929     352.1572
   1427.47681     406.0661     354.7794   1427.47681     406.0661     354.7794
   1427.46155     408.8587     356.9753   1427.46155     408.8587     356.9753
   1427.44629     409.9094     358.6127   1427.44629     409.9094     358.6127
   1427.43103     411.4191     360.0320   1427.43103     411.4191     360.0320
   1427.41577     414.0745     362.4445   1427.41577     414.0745     362.4445
   1427.40051     416.0554     364.3418   1427.40051     416.0554     364.3418
   1427.38525     417.3070     366.2178   1427.38525     417.3070     366.2178
   1427.37000     419.8423     368.7052   1427.37000     419.8423     368.7052
   1427.35474     422.3730     370.7922   1427.35474     422.3730     370.7922
   1427.33948     424.5371     372.8532   1427.33948     424.5371     372.8532
   1427.32422     426.7241     374.9584   1427.32422     426.7241     374.9584
   1427.30896     428.4092     376.9638   1427.30896     428.4092     376.9638
   1427.29370     430.8488     378.8457   1427.29370     430.8488     378.8457
   1427.27844     433.5233     381.3184   1427.27844     433.5233     381.3184
   1427.26318     435.5903     383.7216   1427.26318     435.5903     383.7216
   1427.24792     438.1618     386.1638   1427.24792     438.1618     386.1638
   1427.23267     440.7757     387.8870   1427.23267     440.7757     387.8870
   1427.21741     443.0272     390.1042   1427.21741     443.0272     390.1042
   1427.20215     445.6740     392.1722   1427.20215     445.6740     392.1722
   1427.18689     447.6084     395.1744   1427.18689     447.6084     395.1744
   1427.17163     450.4526     397.3929   1427.17163     450.4526     397.3929
   1427.15637     454.0968     399.4062   1427.15637     454.0968     399.4062
   1427.14111     455.5436     401.5881   1427.14111     455.5436     401.5881
   1427.12585     459.0617     404.9702   1427.12585     459.0617     404.9702
   1427.11060     461.1952     406.2338   1427.11060     461.1952     406.2338
   1427.09534     463.9792     409.0227   1427.09534     463.9792     409.0227
   1427.08008     466.6035     411.5386   1427.08008     466.6035     411.5386
   1427.06482     469.9107     414.0685   1427.06482     469.9107     414.0685
   1427.04956     472.1211     416.1621   1427.04956     472.1211     416.1621
   1427.03430     476.1077     418.7124   1427.03430     476.1077     418.7124
   1427.01904     478.6271     421.3761   1427.01904     478.6271     421.3761
   1427.00378     481.0237     424.1418   1427.00378     481.0237     424.1418
   1426.98853     484.4782     426.4927   1426.98853     484.4782     426.4927
   1426.97327     487.8535     428.9926   1426.97327     487.8535     428.9926
   1426.95801     489.4087     431.1745   1426.95801     489.4087     431.1745
   1426.94275     493.5085     433.7540   1426.94275     493.5085     433.7540
   1426.92749     495.8943     435.2937   1426.92749     495.8943     435.2937
   1426.91223     499.1187     437.6129   1426.91223     499.1187     437.6129
   1426.89697     502.5982     440.4627   1426.89697     502.5982     440.4627
   1426.88171     505.4868     443.5737   1426.88171     505.4868     443.5737
   1426.86646     508.8750     445.6303   1426.86646     508.8750     445.6303
   1426.85120     511.5650     447.8907   1426.85120     511.5650     447.8907
   1426.83594     515.0064     450.5696   1426.83594     515.0064     450.5696
   1426.82068     517.7970     453.3185   1426.82068     517.7970     453.3185
   1426.80542     520.7225     456.3905   1426.80542     520.7225     456.3905
   1426.79016     524.2848     458.3467   1426.79016     524.2848     458.3467
   1426.77490     527.3073     460.6368   1426.77490     527.3073     460.6368
   1426.75964     530.7167     463.0060   1426.75964     530.7167     463.0060
   1426.74438     534.1984     465.4518   1426.74438     534.1984     465.4518
   1426.72913     537.0995     468.1758   1426.72913     537.0995     468.1758
   1426.71387     539.6869     469.4135   1426.71387     539.6869     469.4135
   1426.69861     543.1099     472.7848   1426.69861     543.1099     472.7848
   1426.68335     547.3736     474.6340   1426.68335     547.3736     474.6340
   1426.66809     549.9580     477.8317   1426.66809     549.9580     477.8317
   1426.65283     553.7798     480.0624   1426.65283     553.7798     480.0624
   1426.63757     556.7234     483.1076   1426.63757     556.7234     483.1076
   1426.62231     562.0281     492.3719   1426.62231     562.0281     492.3719
   1426.60706     563.1703     488.4274   1426.60706     563.1703     488.4274
   1426.59180     566.3069     489.1746   1426.59180     566.3069     489.1746
   1426.57654     569.7031     491.4471   1426.57654     569.7031     491.4471
   1426.56128     572.3634     493.5063   1426.56128     572.3634     493.5063
   1426.54602     577.5098     495.6733   1426.54602     577.5098     495.6733
   1426.53076     577.5402     498.4616   1426.53076     577.5402     498.4616
   1426.51550     581.5946     500.4137   1426.51550     581.5946     500.4137
   1426.50024     584.8553     503.0813   1426.50024     584.8553     503.0813
   1426.48499     589.2960     504.9556   1426.48499     589.2960     504.9556
   1426.46973     592.1254     507.3027   1426.46973     592.1254     507.3027
   1426.45447     594.6577     509.7380   1426.45447     594.6577     509.7380
   1426.43921     599.0432     511.4171   1426.43921     599.0432     511.4171
   1426.42395     601.4344     513.7255   1426.42395     601.4344     513.7255
   1426.40869     605.1240     515.9257   1426.40869     605.1240     515.9257
   1426.39343     606.6357     518.2151   1426.39343     606.6357     518.2151
   1426.37817     610.6086     519.7920   1426.37817     610.6086     519.7920
   1426.36292     613.9005     522.1667   1426.36292     613.9005     522.1667
   1426.34766     617.0253     524.8856   1426.34766     617.0253     524.8856
   1426.33240     619.8691     526.9710   1426.33240     619.8691     526.9710
   1426.31714     622.9171     528.1230   1426.31714     622.9171     528.1230
   1426.30188     625.8527     531.0544   1426.30188     625.8527     531.0544
   1426.28662     628.9210     532.7079   1426.28662     628.9210     532.7079
   1426.27136     631.6030     535.0870   1426.27136     631.6030     535.0870
   1426.25610     635.3361     537.4474   1426.25610     635.3361     537.4474
   1426.24084     638.8441     539.1858   1426.24084     638.8441     539.1858
   1426.22559     641.2601     541.0842   1426.22559     641.2601     541.0842
   1426.21033     644.4781     542.5638   1426.21033     644.4781     542.5638
   1426.19507     646.9191     544.6219   1426.19507     646.9191     544.6219
   1426.17981     649.6879     546.4440   1426.17981     649.6879     546.4440
   1426.16455     653.8356     548.3003   1426.16455     653.8356     548.3003
   1426.14929     656.2483     549.8616   1426.14929     656.2483     549.8616
   1426.13403     659.1236     551.5682   1426.13403     659.1236     551.5682
   1426.11877     662.6093     553.3037   1426.11877     662.6093     553.3037
   1426.10352     665.4194     555.0682   1426.10352     665.4194     555.0682
   1426.08826     667.2967     555.7987   1426.08826     667.2967     555.7987
   1426.07300     670.4933     558.7018   1426.07300     670.4933     558.7018
   1426.05774     673.5485     560.2255   1426.05774     673.5485     560.2255
   1426.04248     675.1959     561.2207   1426.04248     675.1959     561.2207
   1426.02722     678.3624     563.3986   1426.02722     678.3624     563.3986
   1426.01196     680.0645     565.6587   1426.01196     680.0645     565.6587
   1425.99670     684.3622     567.3456   1425.99670     684.3622     567.3456
   1425.98145     686.9410     568.0480   1425.98145     686.9410     568.0480
   1425.96619     689.6385     569.7222   1425.96619     689.6385     569.7222
   1425.95093     691.4814     571.7234   1425.95093     691.4814     571.7234
   1425.93567     694.0256     572.8088   1425.93567     694.0256     572.8088
   1425.92041     697.1218     574.3887   1425.92041     697.1218     574.3887
   1425.90515     698.9289     576.0851   1425.90515     698.9289     576.0851
   1425.88989     700.4277     577.3546   1425.88989     700.4277     577.3546
   1425.87463     702.9518     578.5167   1425.87463     702.9518     578.5167
   1425.85938     704.8025     579.8252   1425.85938     704.8025     579.8252
   1425.84412     708.0148     581.2674   1425.84412     708.0148     581.2674
   1425.82886     711.5140     582.6562   1425.82886     711.5140     582.6562
   1425.81360     713.4719     583.6465   1425.81360     713.4719     583.6465
   1425.79834     716.0557     586.5995   1425.79834     716.0557     586.5995
   1425.78308     717.1636     586.7390   1425.78308     717.1636     586.7390
   1425.76782     720.2706     587.2170   1425.76782     720.2706     587.2170
   1425.75256     722.5667     589.2341   1425.75256     722.5667     589.2341
   1425.73730     722.6778     589.6835   1425.73730     722.6778     589.6835
   1425.72205     726.7253     590.6510   1425.72205     726.7253     590.6510
   1425.70679     727.2974     592.4380   1425.70679     727.2974     592.4380
   1425.69153     729.8923     594.0090   1425.69153     729.8923     594.0090
   1425.67627     731.4534     595.4666   1425.67627     731.4534     595.4666
   1425.66101     734.2147     595.5270   1425.66101     734.2147     595.5270
   1425.64575     736.0355     597.1703   1425.64575     736.0355     597.1703
   1425.63049     739.1692     598.2173   1425.63049     739.1692     598.2173
   1425.61523     738.6208     600.1685   1425.61523     738.6208     600.1685
   1425.59998     741.9291     600.5671   1425.59998     741.9291     600.5671
   1425.58472     743.3830     600.7118   1425.58472     743.3830     600.7118
   1425.56946     744.6408     602.0159   1425.56946     744.6408     602.0159
   1425.55420     745.4891     602.6274   1425.55420     745.4891     602.6274
   1425.53894     747.3512     603.8001   1425.53894     747.3512     603.8001
   1425.52368     750.2751     604.4810   1425.52368     750.2751     604.4810
   1425.50842     751.3265     605.1337   1425.50842     751.3265     605.1337
   1425.49316     750.9731     606.7258   1425.49316     750.9731     606.7258
   1425.47791     755.3376     606.8629   1425.47791     755.3376     606.8629
   1425.46265     755.3393     608.3536   1425.46265     755.3393     608.3536
   1425.44739     756.9241     609.0048   1425.44739     756.9241     609.0048
   1425.43213     758.9952     609.8677   1425.43213     758.9952     609.8677
   1425.41687     760.6552     612.0751   1425.41687     760.6552     612.0751
   1425.40161     762.0598     611.5409   1425.40161     762.0598     611.5409
   1425.38635     763.5590     612.6318   1425.38635     763.5590     612.6318
   1425.37109     763.5142     613.2496   1425.37109     763.5142     613.2496
   1425.35583     764.3668     614.9008   1425.35583     764.3668     614.9008
   1425.34058     766.1904     614.0674   1425.34058     766.1904     614.0674
   1425.32532     767.9897     614.3088   1425.32532     767.9897     614.3088
   1425.31006     768.9825     615.7431   1425.31006     768.9825     615.7431
   1425.29480     769.2971     616.9340   1425.29480     769.2971     616.9340
   1425.27954     770.8099     616.7282   1425.27954     770.8099     616.7282
   1425.26428     772.3407     618.0068   1425.26428     772.3407     618.0068
   1425.24902     771.6987     619.2676   1425.24902     771.6987     619.2676
   1425.23376     773.4650     619.4504   1425.23376     773.4650     619.4504
   1425.21851     774.6113     620.0533   1425.21851     774.6113     620.0533
   1425.20325     777.2300     620.6046   1425.20325     777.2300     620.6046
   1425.18799     776.2734     621.0797   1425.18799     776.2734     621.0797
   1425.17273     778.1122     621.4980   1425.17273     778.1122     621.4980
   1425.15747     777.7909     622.0037   1425.15747     777.7909     622.0037
   1425.14221     778.5707     623.5257   1425.14221     778.5707     623.5257
   1425.12695     779.5695     622.7557   1425.12695     779.5695     622.7557
   1425.11169     780.4938     623.0572   1425.11169     780.4938     623.0572
   1425.09644     780.6153     623.7218   1425.09644     780.6153     623.7218
   1425.08118     782.6218     623.3320   1425.08118     782.6218     623.3320
   1425.06592     781.9535     624.0494   1425.06592     781.9535     624.0494
   1425.05066     783.4118     625.1273   1425.05066     783.4118     625.1273
   1425.03540     783.5226     625.0998   1425.03540     783.5226     625.0998
   1425.02014     783.8814     625.9490   1425.02014     783.8814     625.9490
   1425.00488     785.2581     625.7756   1425.00488     785.2581     625.7756
   1424.98962     785.6279     626.2444   1424.98962     785.6279     626.2444
   1424.97437     785.4945     626.5764   1424.97437     785.4945     626.5764
   1424.95911     786.1030     626.8137   1424.95911     786.1030     626.8137
   1424.94385     787.1743     627.0352   1424.94385     787.1743     627.0352
   1424.92859     787.4763     627.0982   1424.92859     787.4763     627.0982
   1424.91333     787.6929     629.2525   1424.91333     787.6929     629.2525
   1424.89807     786.9363     628.3256   1424.89807     786.9363     628.3256
   1424.88281     788.5701     628.2542   1424.88281     788.5701     628.2542
   1424.86755     789.3620     629.1973   1424.86755     789.3620     629.1973
   1424.85229     787.9438     628.2838   1424.85229     787.9438     628.2838
   1424.83704     788.8320     628.6293   1424.83704     788.8320     628.6293
   1424.82178     790.0883     629.0259   1424.82178     790.0883     629.0259
   1424.80652     788.3312     629.4229   1424.80652     788.3312     629.4229
   1424.79126     789.0369     629.5770   1424.79126     789.0369     629.5770
   1424.77600     791.3563     630.1826   1424.77600     791.3563     630.1826
   1424.76074     791.1147     629.1832   1424.76074     791.1147     629.1832
   1424.74548     791.2751     628.9724   1424.74548     791.2751     628.9724
   1424.73022     789.9810     629.3090   1424.73022     789.9810     629.3090
   1424.71497     788.5461     629.3460   1424.71497     788.5461     629.3460
   1424.69971     790.1414     629.8988   1424.69971     790.1414     629.8988
   1424.68445     790.2191     630.2674   1424.68445     790.2191     630.2674
   1424.66919     789.0508     630.5564   1424.66919     789.0508     630.5564
   1424.65393     789.0883     630.3420   1424.65393     789.0883     630.3420
   1424.63867     789.4144     631.0850   1424.63867     789.4144     631.0850
   1424.62341     788.5577     630.8148   1424.62341     788.5577     630.8148
   1424.60815     790.2693     630.7758   1424.60815     790.2693     630.7758
   1424.59290     790.2557     631.4797   1424.59290     790.2557     631.4797
   1424.57764     790.5567     630.4938   1424.57764     790.5567     630.4938
   1424.56238     788.1935     630.4208   1424.56238     788.1935     630.4208
   1424.54712     790.2447     630.7614   1424.54712     790.2447     630.7614
   1424.53186     788.7705     629.7282   1424.53186     788.7705     629.7282
   1424.51660     789.4974     630.2208   1424.51660     789.4974     630.2208
   1424.50134     788.6445     630.5999   1424.50134     788.6445     630.5999
   1424.48608     788.5216     630.7025   1424.48608     788.5216     630.7025
   1424.47083     788.7802     629.0058   1424.47083     788.7802     629.0058
   1424.45557     788.1580     630.4631   1424.45557     788.1580     630.4631
   1424.44031     787.0593     630.7393   1424.44031     787.0593     630.7393
   1424.42505     787.1642     630.4870   1424.42505     787.1642     630.4870
   1424.40979     786.7498     630.1227   1424.40979     786.7498     630.1227
   1424.39453     787.5191     629.6874   1424.39453     787.5191     629.6874
   1424.37927     786.4046     629.8806   1424.37927     786.4046     629.8806
   1424.36401     786.6640     629.1353   1424.36401     786.6640     629.1353
   1424.34875     786.2975     629.4019   1424.34875     786.2975     629.4019
   1424.33350     784.0226     628.8810   1424.33350     784.0226     628.8810
   1424.31824     783.8578     628.9254   1424.31824     783.8578     628.9254
   1424.30298     784.8959     628.5615   1424.30298     784.8959     628.5615
   1424.28772     784.8655     628.9508   1424.28772     784.8655     628.9508
   1424.27246     784.5725     627.9760   1424.27246     784.5725     627.9760
   1424.25720     783.7728     628.8232   1424.25720     783.7728     628.8232
   1424.24194     783.7388     628.5220   1424.24194     783.7388     628.5220
   1424.22668     782.3396     627.8629   1424.22668     782.3396     627.8629
   1424.21143     783.4601     628.0029   1424.21143     783.4601     628.0029
   1424.19617     782.2154     628.0731   1424.19617     782.2154     628.0731
   1424.18091     781.6121     626.5569   1424.18091     781.6121     626.5569
   1424.16565     780.6413     627.7962   1424.16565     780.6413     627.7962
   1424.15039     780.0411     627.4266   1424.15039     780.0411     627.4266
   1424.13513     780.0701     626.5496   1424.13513     780.0701     626.5496
   1424.11987     779.4852     625.8043   1424.11987     779.4852     625.8043
   1424.10461     779.3400     626.1898   1424.10461     779.3400     626.1898
   1424.08936     780.1469     625.7667   1424.08936     780.1469     625.7667
   1424.07410     778.8990     625.0208   1424.07410     778.8990     625.0208
   1424.05884     777.6120     625.1816   1424.05884     777.6120     625.1816
   1424.04358     777.8632     625.6477   1424.04358     777.8632     625.6477
   1424.02832     776.4624     624.3544   1424.02832     776.4624     624.3544
   1424.01306     776.1078     624.9495   1424.01306     776.1078     624.9495
   1423.99780     775.8542     624.5026   1423.99780     775.8542     624.5026
   1423.98254     774.7462     622.8209   1423.98254     774.7462     622.8209
   1423.96729     775.3563     622.0043   1423.96729     775.3563     622.0043
   1423.95203     773.6801     622.7858   1423.95203     773.6801     622.7858
   1423.93677     773.2459     621.3997   1423.93677     773.2459     621.3997
   1423.92151     772.7062     621.8980   1423.92151     772.7062     621.8980
   1423.90625     773.4873     621.0983   1423.90625     773.4873     621.0983
   1423.89099     771.6257     621.5294   1423.89099     771.6257     621.5294
   1423.87573     770.9509     620.5131   1423.87573     770.9509     620.5131
   1423.86047     769.5630     620.2902   1423.86047     769.5630     620.2902
   1423.84521     770.7451     619.3270   1423.84521     770.7451     619.3270
   1423.82996     769.8030     618.8837   1423.82996     769.8030     618.8837
   1423.81470     769.6962     619.2298   1423.81470     769.6962     619.2298
   1423.79944     768.5386     618.4940   1423.79944     768.5386     618.4940
   1423.78418     768.2460     617.9338   1423.78418     768.2460     617.9338
   1423.76892     767.5557     617.2736   1423.76892     767.5557     617.2736
   1423.75366     765.8034     617.1237   1423.75366     765.8034     617.1237
   1423.73840     765.9457     616.1841   1423.73840     765.9457     616.1841
   1423.72314     764.9803     616.1870   1423.72314     764.9803     616.1870
   1423.70789     765.5067     615.6479   1423.70789     765.5067     615.6479
   1423.69263     764.2995     614.3558   1423.69263     764.2995     614.3558
   1423.67737     764.1283     614.9921   1423.67737     764.1283     614.9921
   1423.66211     763.1301     614.2263   1423.66211     763.1301     614.2263
   1423.64685     762.0720     612.5609   1423.64685     762.0720     612.5609
   1423.63159     762.8347     613.0472   1423.63159     762.8347     613.0472
   1423.61633     760.9868     611.5988   1423.61633     760.9868     611.5988
   1423.60107     761.8889     612.4666   1423.60107     761.8889     612.4666
   1423.58582     760.8594     612.3333   1423.58582     760.8594     612.3333
   1423.57056     758.9724     610.5349   1423.57056     758.9724     610.5349
   1423.55530     758.8189     609.9009   1423.55530     758.8189     609.9009
   1423.54004     757.4219     609.8602   1423.54004     757.4219     609.8602
   1423.52478     757.2034     608.7351   1423.52478     757.2034     608.7351
   1423.50952     758.6745     607.9179   1423.50952     758.6745     607.9179
   1423.49426     757.1998     608.6083   1423.49426     757.1998     608.6083
   1423.47900     755.4601     607.4501   1423.47900     755.4601     607.4501
   1423.46375     756.0652     606.0920   1423.46375     756.0652     606.0920
   1423.44849     754.9521     606.0499   1423.44849     754.9521     606.0499
   1423.43323     754.7807     605.5195   1423.43323     754.7807     605.5195
   1423.41797     753.1647     604.7161   1423.41797     753.1647     604.7161
   1423.40271     753.5888     604.2313   1423.40271     753.5888     604.2313
   1423.38745     752.4559     603.8031   1423.38745     752.4559     603.8031
   1423.37219     751.1588     603.1633   1423.37219     751.1588     603.1633
   1423.35693     750.4583     601.3327   1423.35693     750.4583     601.3327
   1423.34167     750.5562     601.6642   1423.34167     750.5562     601.6642
   1423.32642     750.0825     601.7784   1423.32642     750.0825     601.7784
   1423.31116     749.8118     601.0520   1423.31116     749.8118     601.0520
   1423.29590     749.2241     599.9301   1423.29590     749.2241     599.9301
   1423.28064     749.0974     599.1544   1423.28064     749.0974     599.1544
   1423.26538     748.6847     598.1708   1423.26538     748.6847     598.1708
   1423.25012     747.9799     597.8148   1423.25012     747.9799     597.8148
   1423.23486     747.1505     596.9691   1423.23486     747.1505     596.9691
   1423.21960     746.4982     596.2693   1423.21960     746.4982     596.2693
   1423.20435     746.2437     595.2646   1423.20435     746.2437     595.2646
   1423.18909     746.6052     595.9086   1423.18909     746.6052     595.9086
   1423.17383     745.9485     594.1002   1423.17383     745.9485     594.1002
   1423.15857     744.2101     593.1340   1423.15857     744.2101     593.1340
   1423.14331     743.8890     592.9044   1423.14331     743.8890     592.9044
   1423.12805     743.3754     591.8016   1423.12805     743.3754     591.8016
   1423.11279     743.2684     590.1404   1423.11279     743.2684     590.1404
   1423.09753     742.0759     590.7815   1423.09753     742.0759     590.7815
   1423.08228     741.9186     589.4078   1423.08228     741.9186     589.4078
   1423.06702     742.5784     588.6934   1423.06702     742.5784     588.6934
   1423.05176     741.8783     588.1267   1423.05176     741.8783     588.1267
   1423.03650     740.8949     587.1917   1423.03650     740.8949     587.1917
   1423.02124     741.8255     586.8159   1423.02124     741.8255     586.8159
   1423.00598     740.5409     586.1524   1423.00598     740.5409     586.1524
   1422.99072     739.4106     586.3629   1422.99072     739.4106     586.3629
   1422.97546     739.1246     585.2012   1422.97546     739.1246     585.2012
   1422.96021     738.8934     583.3402   1422.96021     738.8934     583.3402
   1422.94495     739.5222     583.4198   1422.94495     739.5222     583.4198
   1422.92969     739.7209     581.8668   1422.92969     739.7209     581.8668
   1422.91443     738.1793     581.1088   1422.91443     738.1793     581.1088
   1422.89917     737.7270     580.2738   1422.89917     737.7270     580.2738
   1422.88391     738.3620     579.1374   1422.88391     738.3620     579.1374
   1422.86865     735.2363     579.5726   1422.86865     735.2363     579.5726
   1422.85339     736.3922     577.8953   1422.85339     736.3922     577.8953
   1422.83813     735.3154     577.3998   1422.83813     735.3154     577.3998
   1422.82288     735.4734     575.9761   1422.82288     735.4734     575.9761
   1422.80762     734.1885     575.6194   1422.80762     734.1885     575.6194
   1422.79236     734.8132     575.0159   1422.79236     734.8132     575.0159
   1422.77710     734.8168     574.5301   1422.77710     734.8168     574.5301
   1422.76184     734.8412     573.7722   1422.76184     734.8412     573.7722
   1422.74658     732.8683     571.3065   1422.74658     732.8683     571.3065
   1422.73132     733.1676     570.9929   1422.73132     733.1676     570.9929
   1422.71606     733.4284     570.3629   1422.71606     733.4284     570.3629
   1422.70081     731.1844     569.5141   1422.70081     731.1844     569.5141
   1422.68555     732.7327     568.5849   1422.68555     732.7327     568.5849
   1422.67029     731.9933     568.5625   1422.67029     731.9933     568.5625
   1422.65503     732.4357     568.1439   1422.65503     732.4357     568.1439
   1422.63977     731.2948     566.3593   1422.63977     731.2948     566.3593
   1422.62451     732.1694     564.9529   1422.62451     732.1694     564.9529
   1422.60925     731.1870     564.3150   1422.60925     731.1870     564.3150
   1422.59399     731.3962     563.6869   1422.59399     731.3962     563.6869
   1422.57874     730.6322     562.8501   1422.57874     730.6322     562.8501
   1422.56348     729.9325     562.0114   1422.56348     729.9325     562.0114
   1422.54822     729.3353     560.3400   1422.54822     729.3353     560.3400
   1422.53296     729.9869     561.2114   1422.53296     729.9869     561.2114
   1422.51770     729.5486     559.5590   1422.51770     729.5486     559.5590
   1422.50244     728.7733     558.8560   1422.50244     728.7733     558.8560
   1422.48718     729.0958     556.6635   1422.48718     729.0958     556.6635
   1422.47192     728.6680     556.2949   1422.47192     728.6680     556.2949
   1422.45667     728.8403     555.3337   1422.45667     728.8403     555.3337
   1422.44141     727.5956     555.2558   1422.44141     727.5956     555.2558
   1422.42615     728.3486     553.9874   1422.42615     728.3486     553.9874
   1422.41089     726.4362     552.9182   1422.41089     726.4362     552.9182
   1422.39563     728.2073     551.8787   1422.39563     728.2073     551.8787
   1422.38037     726.4196     551.1259   1422.38037     726.4196     551.1259
   1422.36511     726.0858     551.2690   1422.36511     726.0858     551.2690
   1422.34985     726.5782     549.2853   1422.34985     726.5782     549.2853
   1422.33459     726.7532     547.8808   1422.33459     726.7532     547.8808
   1422.31934     727.7198     547.1675   1422.31934     727.7198     547.1675
   1422.30408     726.2518     546.7025   1422.30408     726.2518     546.7025
   1422.28882     726.5305     545.4384   1422.28882     726.5305     545.4384
   1422.27356     727.6763     544.2794   1422.27356     727.6763     544.2794
   1422.25830     726.0939     543.7774   1422.25830     726.0939     543.7774
   1422.24304     726.4816     543.5080   1422.24304     726.4816     543.5080
   1422.22778     726.0952     541.7955   1422.22778     726.0952     541.7955
   1422.21252     724.9366     541.3219   1422.21252     724.9366     541.3219
   1422.19727     724.7906     539.2469   1422.19727     724.7906     539.2469
   1422.18201     724.9531     538.6511   1422.18201     724.9531     538.6511
   1422.16675     724.7315     538.2186   1422.16675     724.7315     538.2186
   1422.15149     724.2175     536.2148   1422.15149     724.2175     536.2148
   1422.13623     724.2753     535.6144   1422.13623     724.2753     535.6144
   1422.12097     725.0773     535.1151   1422.12097     725.0773     535.1151
   1422.10571     723.5488     533.6500   1422.10571     723.5488     533.6500
   1422.09045     723.4417     532.7375   1422.09045     723.4417     532.7375
   1422.07520     723.5588     531.6554   1422.07520     723.5588     531.6554
   1422.05994     723.6449     530.7887   1422.05994     723.6449     530.7887
   1422.04468     723.4684     530.3102   1422.04468     723.4684     530.3102
   1422.02942     723.0895     528.2863   1422.02942     723.0895     528.2863
   1422.01416     722.1608     528.2532   1422.01416     722.1608     528.2532
   1421.99890     722.1457     527.2550   1421.99890     722.1457     527.2550
   1421.98364     722.7114     525.9426   1421.98364     722.7114     525.9426
   1421.96838     723.1880     525.2831   1421.96838     723.1880     525.2831
   1421.95312     723.2560     524.0602   1421.95312     723.2560     524.0602
   1421.93787     723.7508     523.2918   1421.93787     723.7508     523.2918
   1421.92261     721.7795     521.6730   1421.92261     721.7795     521.6730
   1421.90735     721.3782     521.4711   1421.90735     721.3782     521.4711
   1421.89209     721.9484     520.0414   1421.89209     721.9484     520.0414
   1421.87683     722.2822     518.4419   1421.87683     722.2822     518.4419
   1421.86157     720.9564     518.0858   1421.86157     720.9564     518.0858
   1421.84631     722.0202     516.5863   1421.84631     722.0202     516.5863
   1421.83105     721.6701     515.2444   1421.83105     721.6701     515.2444
   1421.81580     722.6326     515.0402   1421.81580     722.6326     515.0402
   1421.80054     720.1017     514.1287   1421.80054     720.1017     514.1287
   1421.78528     721.2735     512.9179   1421.78528     721.2735     512.9179
   1421.77002     720.5249     511.5718   1421.77002     720.5249     511.5718
   1421.75476     721.0328     510.2809   1421.75476     721.0328     510.2809
   1421.73950     721.0210     508.7258   1421.73950     721.0210     508.7258
   1421.72424     720.7617     508.1501   1421.72424     720.7617     508.1501
   1421.70898     719.3721     508.1852   1421.70898     719.3721     508.1852
   1421.69373     721.6404     506.5880   1421.69373     721.6404     506.5880
   1421.67847     720.3152     505.6594   1421.67847     720.3152     505.6594
   1421.66321     720.2947     504.6782   1421.66321     720.2947     504.6782
   1421.64795     719.6410     503.3958   1421.64795     719.6410     503.3958
   1421.63269     719.1595     502.7621   1421.63269     719.1595     502.7621
   1421.61743     720.5410     501.9683   1421.61743     720.5410     501.9683
   1421.60217     719.5961     500.3822   1421.60217     719.5961     500.3822
   1421.58691     719.0401     498.5570   1421.58691     719.0401     498.5570
   1421.57166     720.3953     498.6503   1421.57166     720.3953     498.6503
   1421.55640     719.9526     496.7557   1421.55640     719.9526     496.7557
   1421.54114     719.2206     495.1883   1421.54114     719.2206     495.1883
   1421.52588     719.4104     495.3445   1421.52588     719.4104     495.3445
   1421.51062     718.7782     494.4440   1421.51062     718.7782     494.4440
   1421.49536     718.4401     492.7585   1421.49536     718.4401     492.7585
   1421.48010     718.0901     491.6632   1421.48010     718.0901     491.6632
   1421.46484     718.2286     491.4601   1421.46484     718.2286     491.4601
   1421.44958     718.4158     489.0524   1421.44958     718.4158     489.0524
   1421.43433     718.2577     489.0094   1421.43433     718.2577     489.0094
   1421.41907     718.5355     487.3987   1421.41907     718.5355     487.3987
   1421.40381     717.6932     486.3553   1421.40381     717.6932     486.3553
   1421.38855     718.5295     484.7505   1421.38855     718.5295     484.7505
   1421.37329     716.7867     484.8205   1421.37329     716.7867     484.8205
   1421.35803     716.9053     483.1107   1421.35803     716.9053     483.1107
   1421.34277     717.7988     482.5962   1421.34277     717.7988     482.5962
   1421.32751     717.9498     481.9024   1421.32751     717.9498     481.9024
   1421.31226     716.8975     481.0682   1421.31226     716.8975     481.0682
   1421.29700     716.8705     480.0530   1421.29700     716.8705     480.0530
   1421.28174     716.7273     478.7657   1421.28174     716.7273     478.7657
   1421.26648     717.8467     477.7054   1421.26648     717.8467     477.7054
   1421.25122     716.9055     476.2224   1421.25122     716.9055     476.2224
   1421.23596     715.6992     476.4245   1421.23596     715.6992     476.4245
   1421.22070     714.9888     474.9017   1421.22070     714.9888     474.9017
   1421.20544     716.0733     473.6057   1421.20544     716.0733     473.6057
   1421.19019     716.9981     472.0809   1421.19019     716.9981     472.0809
   1421.17493     716.3929     471.1933   1421.17493     716.3929     471.1933
   1421.15967     715.2106     470.2056   1421.15967     715.2106     470.2056
   1421.14441     715.7334     469.3513   1421.14441     715.7334     469.3513
   1421.12915     715.2828     468.7624   1421.12915     715.2828     468.7624
   1421.11389     715.6377     467.9697   1421.11389     715.6377     467.9697
   1421.09863     715.9009     467.5122   1421.09863     715.9009     467.5122
   1421.08337     715.7834     465.6591   1421.08337     715.7834     465.6591
   1421.06812     715.9276     464.9808   1421.06812     715.9276     464.9808
   1421.05286     716.0825     465.1155   1421.05286     716.0825     465.1155
   1421.03760     718.0220     464.5338   1421.03760     718.0220     464.5338
   1421.02234     718.7676     465.3439   1421.02234     718.7676     465.3439
   1421.00708     720.3312     464.8512   1421.00708     720.3312     464.8512
   1420.99182     720.9770     463.8188   1420.99182     720.9770     463.8188
   1420.97656     721.4752     464.0427   1420.97656     721.4752     464.0427
   1420.96130     722.7711     463.2994   1420.96130     722.7711     463.2994
   1420.94604     724.7967     464.2379   1420.94604     724.7967     464.2379
   1420.93079     725.4819     463.4998   1420.93079     725.4819     463.4998
   1420.91553     727.8877     463.8492   1420.91553     727.8877     463.8492
   1420.90027     732.6873     467.2350   1420.90027     732.6873     467.2350
   1420.88501     742.3671     471.3343   1420.88501     742.3671     471.3343
   1420.86975     750.1943     475.2411   1420.86975     750.1943     475.2411
   1420.85449     755.2977     477.7229   1420.85449     755.2977     477.7229
   1420.83923     768.5920     484.8644   1420.83923     768.5920     484.8644
   1420.82397     795.3710     501.3606   1420.82397     795.3710     501.3606
   1420.80872     821.6006     515.4835   1420.80872     821.6006     515.4835
   1420.79346     886.3026     554.5319   1420.79346     886.3026     554.5319
   1420.77820    1052.5789     656.5719   1420.77820    1052.5789     656.5719
   1420.76294    1157.9019     718.0142   1420.76294    1157.9019     718.0142
   1420.74768    1212.8148     749.0908   1420.74768    1212.8148     749.0908
   1420.73242    1255.6755     774.4666   1420.73242    1255.6755     774.4666
   1420.71716    1156.8112     714.5298   1420.71716    1156.8112     714.5298
   1420.70190    1030.6823     635.4337   1420.70190    1030.6823     635.4337
   1420.68665    1038.3909     640.1611   1420.68665    1038.3909     640.1611
   1420.67139    1139.3644     699.5019   1420.67139    1139.3644     699.5019
   1420.65613    1290.1093     789.9432   1420.65613    1290.1093     789.9432
   1420.64087    1498.3905     912.6610   1420.64087    1498.3905     912.6610
   1420.62561    1777.0255    1076.9742   1420.62561    1777.0255    1076.9742
   1420.61035    2158.9541    1304.9774   1420.61035    2158.9541    1304.9774
   1420.59509    2515.4944    1515.4108   1420.59509    2515.4944    1515.4108
   1420.57983    2662.4084    1601.6608   1420.57983    2662.4084    1601.6608
   1420.56458    2604.7920    1564.9568   1420.56458    2604.7920    1564.9568
   1420.54932    2466.0315    1480.8660   1420.54932    2466.0315    1480.8660
   1420.53406    2133.6172    1278.8239   1420.53406    2133.6172    1278.8239
   1420.51880    1701.5314    1019.6263   1420.51880    1701.5314    1019.6263
   1420.50354    1472.7910     884.6440   1420.50354    1472.7910     884.6440
   1420.48828    1539.0132     921.2987   1420.48828    1539.0132     921.2987
   1420.47302    1821.8817    1083.8606   1420.47302    1821.8817    1083.8606
   1420.45776    2038.4441    1211.2712   1420.45776    2038.4441    1211.2712
   1420.44250    1996.8885    1183.3650   1420.44250    1996.8885    1183.3650
   1420.42725    1700.4786    1012.9725   1420.42725    1700.4786    1012.9725
   1420.41199    1742.9205    1034.0270   1420.41199    1742.9205    1034.0270
   1420.39673    1726.2351    1025.2330   1420.39673    1726.2351    1025.2330
   1420.38147    1495.7625     886.6441   1420.38147    1495.7625     886.6441
   1420.36621    1250.9823     744.1638   1420.36621    1250.9823     744.1638
   1420.35095     850.2742     507.3348   1420.35095     850.2742     507.3348
   1420.33569     769.5495     459.6168   1420.33569     769.5495     459.6168
   1420.32043     741.6813     443.8161   1420.32043     741.6813     443.8161
   1420.30518     730.0378     436.3120   1420.30518     730.0378     436.3120
   1420.28992     722.6512     431.4969   1420.28992     722.6512     431.4969
   1420.27466     719.3698     428.9385   1420.27466     719.3698     428.9385
   1420.25940     716.3793     426.3910   1420.25940     716.3793     426.3910
   1420.24414     714.4899     424.8303   1420.24414     714.4899     424.8303
   1420.22888     712.6783     422.7230   1420.22888     712.6783     422.7230
   1420.21362     711.3514     421.9591   1420.21362     711.3514     421.9591
   1420.19836     710.1201     419.8976   1420.19836     710.1201     419.8976
   1420.18311     708.8617     418.5129   1420.18311     708.8617     418.5129
   1420.16785     707.9843     417.5141   1420.16785     707.9843     417.5141
   1420.15259     706.9778     416.8428   1420.15259     706.9778     416.8428
   1420.13733     705.8221     415.3348   1420.13733     705.8221     415.3348
   1420.12207     706.0573     415.0483   1420.12207     706.0573     415.0483
   1420.10681     705.3787     413.8933   1420.10681     705.3787     413.8933
   1420.09155     703.9889     412.7160   1420.09155     703.9889     412.7160
   1420.07629     703.0125     412.4578   1420.07629     703.0125     412.4578
   1420.06104     702.2740     410.5593   1420.06104     702.2740     410.5593
   1420.04578     703.2865     410.4045   1420.04578     703.2865     410.4045
   1420.03052     703.8290     410.6909   1420.03052     703.8290     410.6909
   1420.01526     703.3313     410.8113   1420.01526     703.3313     410.8113
   1420.00000     704.2947     411.7417   1420.00000     704.2947     411.7417
   1419.98474     705.2581     412.6721   1419.98474     705.2581     412.6721
   1419.96948     704.6119     409.3802   1419.96948     704.6119     409.3802
   1419.95422     702.0786     407.4265   1419.95422     702.0786     407.4265
   1419.93896     701.5696     407.4150   1419.93896     701.5696     407.4150
   1419.92371     701.7896     406.2414   1419.92371     701.7896     406.2414
   1419.90845     701.7985     406.1819   1419.90845     701.7985     406.1819
   1419.89319     702.4794     405.8155   1419.89319     702.4794     405.8155
   1419.87793     702.4527     405.0921   1419.87793     702.4527     405.0921
   1419.86267     703.0764     404.8139   1419.86267     703.0764     404.8139
   1419.84741     702.1547     404.3295   1419.84741     702.1547     404.3295
   1419.83215     701.9519     404.0629   1419.83215     701.9519     404.0629
   1419.81689     702.5958     403.6270   1419.81689     702.5958     403.6270
   1419.80164     702.7186     403.4899   1419.80164     702.7186     403.4899
   1419.78638     703.3167     402.9906   1419.78638     703.3167     402.9906
   1419.77112     703.0219     402.5144   1419.77112     703.0219     402.5144
   1419.75586     702.3549     402.1939   1419.75586     702.3549     402.1939
   1419.74060     703.7579     402.5249   1419.74060     703.7579     402.5249
   1419.72534     703.3904     401.6921   1419.72534     703.3904     401.6921
   1419.71008     703.5735     401.4466   1419.71008     703.5735     401.4466
   1419.69482     702.9658     401.7820   1419.69482     702.9658     401.7820
   1419.67957     705.2034     401.1743   1419.67957     705.2034     401.1743
   1419.66431     704.2236     400.5417   1419.66431     704.2236     400.5417
   1419.64905     703.1770     400.6918   1419.64905     703.1770     400.6918
   1419.63379     705.0709     400.3871   1419.63379     705.0709     400.3871
   1419.61853     704.0333     400.1548   1419.61853     704.0333     400.1548
   1419.60327     705.3581     400.2296   1419.60327     705.3581     400.2296
   1419.58801     704.1996     400.1562   1419.58801     704.1996     400.1562
   1419.57275     705.0413     399.8159   1419.57275     705.0413     399.8159
   1419.55750     705.4899     399.1270   1419.55750     705.4899     399.1270
   1419.54224     705.8464     399.7212   1419.54224     705.8464     399.7212
   1419.52698     706.8632     399.1542   1419.52698     706.8632     399.1542
   1419.51172     707.1167     399.0684   1419.51172     707.1167     399.0684
   1419.49646     706.1709     398.6428   1419.49646     706.1709     398.6428
   1419.48120     706.1042     398.7391   1419.48120     706.1042     398.7391
   1419.46594     707.0875     398.9253   1419.46594     707.0875     398.9253
   1419.45068     707.6913     398.2171   1419.45068     707.6913     398.2171
   1419.43542     707.9222     398.6501   1419.43542     707.9222     398.6501
   1419.42017     707.6592     398.2436   1419.42017     707.6592     398.2436
   1419.40491     708.1965     398.3932   1419.40491     708.1965     398.3932
   1419.38965     708.9540     398.1615   1419.38965     708.9540     398.1615
   1419.37439     709.1948     398.7006   1419.37439     709.1948     398.7006
   1419.35913     709.5434     398.9529   1419.35913     709.5434     398.9529
   1419.34387     710.6981     398.2898   1419.34387     710.6981     398.2898
   1419.32861     710.6606     398.9541   1419.32861     710.6606     398.9541
   1419.31335     710.4402     398.7386   1419.31335     710.4402     398.7386
   1419.29810     711.4135     398.9264   1419.29810     711.4135     398.9264
   1419.28284     711.7112     398.2184   1419.28284     711.7112     398.2184
   1419.26758     712.3052     398.8808   1419.26758     712.3052     398.8808
   1419.25232     713.0225     399.0178   1419.25232     713.0225     399.0178
   1419.23706     713.1866     399.1318   1419.23706     713.1866     399.1318
   1419.22180     712.4054     398.9108   1419.22180     712.4054     398.9108
   1419.20654     712.9457     399.1351   1419.20654     712.9457     399.1351
   1419.19128     714.2661     398.9053   1419.19128     714.2661     398.9053
   1419.17603     713.5262     399.4625   1419.17603     713.5262     399.4625
   1419.16077     715.2774     399.4157   1419.16077     715.2774     399.4157
   1419.14551     714.2297     399.3283   1419.14551     714.2297     399.3283
   1419.13025     716.0165     400.3864   1419.13025     716.0165     400.3864
   1419.11499     716.2233     400.2309   1419.11499     716.2233     400.2309
   1419.09973     716.7107     399.7503   1419.09973     716.7107     399.7503
   1419.08447     717.2129     400.0584   1419.08447     717.2129     400.0584
   1419.06921     716.8382     400.4603   1419.06921     716.8382     400.4603
   1419.05396     717.0073     400.3858   1419.05396     717.0073     400.3858
   1419.03870     718.5649     400.5995   1419.03870     718.5649     400.5995
   1419.02344     718.9522     400.7020   1419.02344     718.9522     400.7020
   1419.00818     720.0229     401.2981   1419.00818     720.0229     401.2981
   1418.99292     719.2230     401.0274   1418.99292     719.2230     401.0274
   1418.97766     720.1634     401.7634   1418.97766     720.1634     401.7634
   1418.96240     721.1048     401.5866   1418.96240     721.1048     401.5866
   1418.94714     721.7891     401.8843   1418.94714     721.7891     401.8843
   1418.93188     722.8238     402.7222   1418.93188     722.8238     402.7222
   1418.91663     722.1489     402.8920   1418.91663     722.1489     402.8920
   1418.90137     723.6310     403.5787   1418.90137     723.6310     403.5787
   1418.88611     724.1871     404.0570   1418.88611     724.1871     404.0570
   1418.87085     724.5289     404.6030   1418.87085     724.5289     404.6030
   1418.85559     725.2958     404.1172   1418.85559     725.2958     404.1172
   1418.84033     725.3575     404.4941   1418.84033     725.3575     404.4941
   1418.82507     725.9120     405.2599   1418.82507     725.9120     405.2599
   1418.80981     727.3929     405.8275   1418.80981     727.3929     405.8275
   1418.79456     728.3117     405.9992   1418.79456     728.3117     405.9992
   1418.77930     727.7009     406.3152   1418.77930     727.7009     406.3152
   1418.76404     728.3808     406.2681   1418.76404     728.3808     406.2681
   1418.74878     728.6916     407.1938   1418.74878     728.6916     407.1938
   1418.73352     730.7074     407.4971   1418.73352     730.7074     407.4971
   1418.71826     729.8889     407.7441   1418.71826     729.8889     407.7441
   1418.70300     730.6715     408.4572   1418.70300     730.6715     408.4572
   1418.68774     732.1484     408.3824   1418.68774     732.1484     408.3824
   1418.67249     731.7208     409.5052   1418.67249     731.7208     409.5052
   1418.65723     733.3909     410.3795   1418.65723     733.3909     410.3795
   1418.64197     734.5436     411.0505   1418.64197     734.5436     411.0505
   1418.62671     735.4815     410.4383   1418.62671     735.4815     410.4383
   1418.61145     735.2842     411.7857   1418.61145     735.2842     411.7857
   1418.59619     735.3876     411.7657   1418.59619     735.3876     411.7657
   1418.58093     736.3137     412.8885   1418.58093     736.3137     412.8885
   1418.56567     738.5103     413.1586   1418.56567     738.5103     413.1586
   1418.55042     737.9556     413.7318   1418.55042     737.9556     413.7318
   1418.53516     739.2765     413.9184   1418.53516     739.2765     413.9184
   1418.51990     740.6751     415.2531   1418.51990     740.6751     415.2531
   1418.50464     739.3560     415.5077   1418.50464     739.3560     415.5077
   1418.48938     742.0795     416.0632   1418.48938     742.0795     416.0632
   1418.47412     741.3181     417.4659   1418.47412     741.3181     417.4659
   1418.45886     741.4545     418.0934   1418.45886     741.4545     418.0934
   1418.44360     742.4551     417.9706   1418.44360     742.4551     417.9706
   1418.42834     745.5978     418.7754   1418.42834     745.5978     418.7754
   1418.41309     744.6005     420.3315   1418.41309     744.6005     420.3315
   1418.39783     746.4830     420.3136   1418.39783     746.4830     420.3136
   1418.38257     747.0531     420.7757   1418.38257     747.0531     420.7757
   1418.36731     747.6486     421.7364   1418.36731     747.6486     421.7364
   1418.35205     749.1514     421.9083   1418.35205     749.1514     421.9083
   1418.33679     748.2318     423.1078   1418.33679     748.2318     423.1078
   1418.32153     749.9425     424.3488   1418.32153     749.9425     424.3488
   1418.30627     750.3896     425.1188   1418.30627     750.3896     425.1188
   1418.29102     751.8290     425.5185   1418.29102     751.8290     425.5185
   1418.27576     751.3817     426.2747   1418.27576     751.3817     426.2747
   1418.26050     752.8754     426.5225   1418.26050     752.8754     426.5225
   1418.24524     754.6064     427.5624   1418.24524     754.6064     427.5624
   1418.22998     755.2212     428.5158   1418.22998     755.2212     428.5158
   1418.21472     755.9546     429.2645   1418.21472     755.9546     429.2645
   1418.19946     756.4945     429.9292   1418.19946     756.4945     429.9292
   1418.18420     757.6149     430.4830   1418.18420     757.6149     430.4830
   1418.16895     757.7255     432.0309   1418.16895     757.7255     432.0309
   1418.15369     758.2468     433.0868   1418.15369     758.2468     433.0868
   1418.13843     760.3884     432.9263   1418.13843     760.3884     432.9263
   1418.12317     760.3268     434.4895   1418.12317     760.3268     434.4895
   1418.10791     762.5575     434.8333   1418.10791     762.5575     434.8333
   1418.09265     761.3411     436.3582   1418.09265     761.3411     436.3582
   1418.07739     762.1490     436.5089   1418.07739     762.1490     436.5089
   1418.06213     764.2854     437.5011   1418.06213     764.2854     437.5011
   1418.04688     764.3270     438.8459   1418.04688     764.3270     438.8459
   1418.03162     765.3623     440.0098   1418.03162     765.3623     440.0098
   1418.01636     766.4996     440.3437   1418.01636     766.4996     440.3437
   1418.00110     767.8109     441.5566   1418.00110     767.8109     441.5566
   1417.98584     769.4508     442.4050   1417.98584     769.4508     442.4050
   1417.97058     768.5997     442.6433   1417.97058     768.5997     442.6433
   1417.95532     770.7029     444.4298   1417.95532     770.7029     444.4298
   1417.94006     770.4700     445.3194   1417.94006     770.4700     445.3194
   1417.92480     772.5627     445.9638   1417.92480     772.5627     445.9638
   1417.90955     774.2987     447.5812   1417.90955     774.2987     447.5812
   1417.89429     773.8164     448.9115   1417.89429     773.8164     448.9115
   1417.87903     773.6137     449.4852   1417.87903     773.6137     449.4852
   1417.86377     775.1176     450.1569   1417.86377     775.1176     450.1569
   1417.84851     775.2940     450.9461   1417.84851     775.2940     450.9461
   1417.83325     777.1042     452.1345   1417.83325     777.1042     452.1345
   1417.81799     778.2124     453.4621   1417.81799     778.2124     453.4621
   1417.80273     779.2522     454.5099   1417.80273     779.2522     454.5099
   1417.78748     780.4108     455.5857   1417.78748     780.4108     455.5857
   1417.77222     781.4348     456.0374   1417.77222     781.4348     456.0374
   1417.75696     782.9850     457.3362   1417.75696     782.9850     457.3362
   1417.74170     783.6523     458.2695   1417.74170     783.6523     458.2695
   1417.72644     784.0863     459.5344   1417.72644     784.0863     459.5344
   1417.71118     784.9852     460.1996   1417.71118     784.9852     460.1996
   1417.69592     784.5382     461.4262   1417.69592     784.5382     461.4262
   1417.68066     787.0763     462.3173   1417.68066     787.0763     462.3173
   1417.66541     787.6254     463.5728   1417.66541     787.6254     463.5728
   1417.65015     787.6369     465.2112   1417.65015     787.6369     465.2112
   1417.63489     789.8288     466.0675   1417.63489     789.8288     466.0675
   1417.61963     790.8625     466.9269   1417.61963     790.8625     466.9269
   1417.60437     791.1579     468.5223   1417.60437     791.1579     468.5223
   1417.58911     791.3612     468.8469   1417.58911     791.3612     468.8469
   1417.57385     792.7529     470.0609   1417.57385     792.7529     470.0609
   1417.55859     794.6949     472.1087   1417.55859     794.6949     472.1087
   1417.54333     794.0338     472.5573   1417.54333     794.0338     472.5573
   1417.52808     794.7921     473.4980   1417.52808     794.7921     473.4980
   1417.51282     796.1865     475.0960   1417.51282     796.1865     475.0960
   1417.49756     796.7903     475.4405   1417.49756     796.7903     475.4405
   1417.48230     798.6539     477.3181   1417.48230     798.6539     477.3181
   1417.46704     798.5366     477.9357   1417.46704     798.5366     477.9357
   1417.45178     799.7365     479.7427   1417.45178     799.7365     479.7427
   1417.43652     800.0429     480.2413   1417.43652     800.0429     480.2413
   1417.42126     801.7513     480.2925   1417.42126     801.7513     480.2925
   1417.40601     801.9079     482.3568   1417.40601     801.9079     482.3568
   1417.39075     801.9661     483.7835   1417.39075     801.9661     483.7835
   1417.37549     804.3326     485.4562   1417.37549     804.3326     485.4562
   1417.36023     805.1061     486.6255   1417.36023     805.1061     486.6255
   1417.34497     804.7639     486.9826   1417.34497     804.7639     486.9826
   1417.32971     807.0198     488.1765   1417.32971     807.0198     488.1765
   1417.31445     806.0960     489.2677   1417.31445     806.0960     489.2677
   1417.29919     807.5773     490.6822   1417.29919     807.5773     490.6822
   1417.28394     807.5152     490.6620   1417.28394     807.5152     490.6620
   1417.26868     808.7484     492.1871   1417.26868     808.7484     492.1871
   1417.25342     809.8246     494.0197   1417.25342     809.8246     494.0197
   1417.23816     811.1960     495.1638   1417.23816     811.1960     495.1638
   1417.22290     811.4587     496.4665   1417.22290     811.4587     496.4665
   1417.20764     811.8616     497.2917   1417.20764     811.8616     497.2917
   1417.19238     812.3027     498.4947   1417.19238     812.3027     498.4947
   1417.17712     813.4571     499.6506   1417.17712     813.4571     499.6506
   1417.16187     813.6521     499.6372   1417.16187     813.6521     499.6372
   1417.14661     814.6520     501.6964   1417.14661     814.6520     501.6964
   1417.13135     815.3689     502.9934   1417.13135     815.3689     502.9934
   1417.11609     815.7568     503.0319   1417.11609     815.7568     503.0319
   1417.10083     816.8186     504.3474   1417.10083     816.8186     504.3474
   1417.08557     818.5925     506.2458   1417.08557     818.5925     506.2458
   1417.07031     818.8694     505.9767   1417.07031     818.8694     505.9767
   1417.05505     818.3354     507.6759   1417.05505     818.3354     507.6759
   1417.03979     820.5464     508.8351   1417.03979     820.5464     508.8351
   1417.02454     818.2940     509.1941   1417.02454     818.2940     509.1941
   1417.00928     819.6871     511.0813   1417.00928     819.6871     511.0813
   1416.99402     821.9340     512.6409   1416.99402     821.9340     512.6409
   1416.97876     822.4305     513.0246   1416.97876     822.4305     513.0246
   1416.96350     821.0816     514.9117   1416.96350     821.0816     514.9117
   1416.94824     822.5692     516.2362   1416.94824     822.5692     516.2362
   1416.93298     823.9714     516.3292   1416.93298     823.9714     516.3292
   1416.91772     823.1614     517.0938   1416.91772     823.1614     517.0938
   1416.90247     823.2079     517.3905   1416.90247     823.2079     517.3905
   1416.88721     823.9689     518.8491   1416.88721     823.9689     518.8491
   1416.87195     824.1261     519.9677   1416.87195     824.1261     519.9677
   1416.85669     825.2006     520.4158   1416.85669     825.2006     520.4158
   1416.84143     824.8323     522.0041   1416.84143     824.8323     522.0041
   1416.82617     826.0056     522.4913   1416.82617     826.0056     522.4913
   1416.81091     825.0111     523.6638   1416.81091     825.0111     523.6638
   1416.79565     826.4954     523.6631   1416.79565     826.4954     523.6631
   1416.78040     825.0919     525.6439   1416.78040     825.0919     525.6439
   1416.76514     825.8448     526.0157   1416.76514     825.8448     526.0157
   1416.74988     826.4581     526.0085   1416.74988     826.4581     526.0085
   1416.73462     826.8302     527.5188   1416.73462     826.8302     527.5188
   1416.71936     827.2148     527.5923   1416.71936     827.2148     527.5923
   1416.70410     826.7331     528.8754   1416.70410     826.7331     528.8754
   1416.68884     827.6324     529.5826   1416.68884     827.6324     529.5826
   1416.67358     827.0506     528.8087   1416.67358     827.0506     528.8087
   1416.65833     827.6329     530.9913   1416.65833     827.6329     530.9913
   1416.64307     827.9009     532.1683   1416.64307     827.9009     532.1683
   1416.62781     828.3541     531.7755   1416.62781     828.3541     531.7755
   1416.61255     828.1222     532.4274   1416.61255     828.1222     532.4274
   1416.59729     828.4279     532.9620   1416.59729     828.4279     532.9620
   1416.58203     828.0438     534.3355   1416.58203     828.0438     534.3355
   1416.56677     828.7352     534.3312   1416.56677     828.7352     534.3312
   1416.55151     827.4280     534.3805   1416.55151     827.4280     534.3805
   1416.53625     828.0331     536.0415   1416.53625     828.0331     536.0415
   1416.52100     827.2888     536.9800   1416.52100     827.2888     536.9800
   1416.50574     827.9772     536.9138   1416.50574     827.9772     536.9138
   1416.49048     827.4874     536.5034   1416.49048     827.4874     536.5034
   1416.47522     827.7432     537.1509   1416.47522     827.7432     537.1509
   1416.45996     826.9029     537.6992   1416.45996     826.9029     537.6992
   1416.44470     828.0385     537.8400   1416.44470     828.0385     537.8400
   1416.42944     826.0588     538.9691   1416.42944     826.0588     538.9691
   1416.41418     826.1713     538.4501   1416.41418     826.1713     538.4501
   1416.39893     824.7339     538.8075   1416.39893     824.7339     538.8075
   1416.38367     826.2817     538.8617   1416.38367     826.2817     538.8617
   1416.36841     825.2936     539.1033   1416.36841     825.2936     539.1033
   1416.35315     825.8347     539.7929   1416.35315     825.8347     539.7929
   1416.33789     825.6580     540.3160   1416.33789     825.6580     540.3160
   1416.32263     825.4796     540.5221   1416.32263     825.4796     540.5221
   1416.30737     824.9825     540.7706   1416.30737     824.9825     540.7706
   1416.29211     825.7031     540.3011   1416.29211     825.7031     540.3011
   1416.27686     822.7391     540.4390   1416.27686     822.7391     540.4390
   1416.26160     823.8559     540.5323   1416.26160     823.8559     540.5323
   1416.24634     824.5035     541.0205   1416.24634     824.5035     541.0205
   1416.23108     823.0321     541.3192   1416.23108     823.0321     541.3192
   1416.21582     824.4899     541.1917   1416.21582     824.4899     541.1917
   1416.20056     821.3584     540.6267   1416.20056     821.3584     540.6267
   1416.18530     820.6113     541.5544   1416.18530     820.6113     541.5544
   1416.17004     821.0054     540.4215   1416.17004     821.0054     540.4215
   1416.15479     820.3658     540.8333   1416.15479     820.3658     540.8333
   1416.13953     819.0231     541.7197   1416.13953     819.0231     541.7197
   1416.12427     818.5392     540.5115   1416.12427     818.5392     540.5115
   1416.10901     818.5917     540.5059   1416.10901     818.5917     540.5059
   1416.09375     817.0339     541.1885   1416.09375     817.0339     541.1885
   1416.07849     816.3499     540.4407   1416.07849     816.3499     540.4407
   1416.06323     816.2759     540.5283   1416.06323     816.2759     540.5283
   1416.04797     816.6180     540.4623   1416.04797     816.6180     540.4623
   1416.03271     816.3519     539.4579   1416.03271     816.3519     539.4579
   1416.01746     814.6266     541.0128   1416.01746     814.6266     541.0128
   1416.00220     814.4952     539.9139   1416.00220     814.4952     539.9139
   1415.98694     812.9365     539.4381   1415.98694     812.9365     539.4381
   1415.97168     812.9984     539.4442   1415.97168     812.9984     539.4442
   1415.95642     812.3370     539.4431   1415.95642     812.3370     539.4431
   1415.94116     811.4229     538.6809   1415.94116     811.4229     538.6809
   1415.92590     809.6003     538.9454   1415.92590     809.6003     538.9454
   1415.91064     809.4595     538.5501   1415.91064     809.4595     538.5501
   1415.89539     808.9175     538.5010   1415.89539     808.9175     538.5010
   1415.88013     807.9808     538.7938   1415.88013     807.9808     538.7938
   1415.86487     808.1670     537.7941   1415.86487     808.1670     537.7941
   1415.84961     806.6215     537.1144   1415.84961     806.6215     537.1144
   1415.83435     807.7936     537.0880   1415.83435     807.7936     537.0880
   1415.81909     805.8036     536.6671   1415.81909     805.8036     536.6671
   1415.80383     805.2181     536.1031   1415.80383     805.2181     536.1031
   1415.78857     803.1893     536.3653   1415.78857     803.1893     536.3653
   1415.77332     802.9595     535.8417   1415.77332     802.9595     535.8417
   1415.75806     800.5583     535.6177   1415.75806     800.5583     535.6177
   1415.74280     800.5716     535.1855   1415.74280     800.5716     535.1855
   1415.72754     800.1666     534.3407   1415.72754     800.1666     534.3407
   1415.71228     798.7612     534.5262   1415.71228     798.7612     534.5262
   1415.69702     797.6350     533.4937   1415.69702     797.6350     533.4937
   1415.68176     796.5870     533.4744   1415.68176     796.5870     533.4744
   1415.66650     794.6283     532.8731   1415.66650     794.6283     532.8731
   1415.65125     794.8560     532.1616   1415.65125     794.8560     532.1616
   1415.63599     794.3680     531.8434   1415.63599     794.3680     531.8434
   1415.62073     793.3773     531.3613   1415.62073     793.3773     531.3613
   1415.60547     792.7952     531.7171   1415.60547     792.7952     531.7171
   1415.59021     792.3737     530.6654   1415.59021     792.3737     530.6654
   1415.57495     789.3946     530.4012   1415.57495     789.3946     530.4012
   1415.55969     789.0919     529.3154   1415.55969     789.0919     529.3154
   1415.54443     787.8682     529.0980   1415.54443     787.8682     529.0980
   1415.52917     786.5875     528.2626   1415.52917     786.5875     528.2626
   1415.51392     785.3533     528.0033   1415.51392     785.3533     528.0033
   1415.49866     785.1641     527.0724   1415.49866     785.1641     527.0724
   1415.48340     784.2870     527.3472   1415.48340     784.2870     527.3472
   1415.46814     784.3304     527.1084   1415.46814     784.3304     527.1084
   1415.45288     783.7104     526.4799   1415.45288     783.7104     526.4799
   1415.43762     780.1207     525.7358   1415.43762     780.1207     525.7358
   1415.42236     778.3638     523.8648   1415.42236     778.3638     523.8648
   1415.40710     778.2675     523.3188   1415.40710     778.2675     523.3188
   1415.39185     777.2588     523.7401   1415.39185     777.2588     523.7401
   1415.37659     776.6982     522.2942   1415.37659     776.6982     522.2942
   1415.36133     774.0931     522.0867   1415.36133     774.0931     522.0867
   1415.34607     772.8886     521.9938   1415.34607     772.8886     521.9938
   1415.33081     771.4633     521.1318   1415.33081     771.4633     521.1318
   1415.31555     771.3024     520.5627   1415.31555     771.3024     520.5627
   1415.30029     769.3702     520.6644   1415.30029     769.3702     520.6644
   1415.28503     768.6847     519.1027   1415.28503     768.6847     519.1027
   1415.26978     767.1418     519.0522   1415.26978     767.1418     519.0522
   1415.25452     764.9085     516.6989   1415.25452     764.9085     516.6989
   1415.23926     764.4568     517.5052   1415.23926     764.4568     517.5052
   1415.22400     762.8688     516.5942   1415.22400     762.8688     516.5942
   1415.20874     761.8998     515.7355   1415.20874     761.8998     515.7355
   1415.19348     760.7613     514.7324   1415.19348     760.7613     514.7324
   1415.17822     759.9932     514.3505   1415.17822     759.9932     514.3505
   1415.16296     757.3278     513.5392   1415.16296     757.3278     513.5392
   1415.14771     756.4604     512.8098   1415.14771     756.4604     512.8098
   1415.13245     755.5244     513.0394   1415.13245     755.5244     513.0394
   1415.11719     753.2371     510.7097   1415.11719     753.2371     510.7097
   1415.10193     752.5970     511.4347   1415.10193     752.5970     511.4347
   1415.08667     750.7549     509.8985   1415.08667     750.7549     509.8985
   1415.07141     748.2496     508.5509   1415.07141     748.2496     508.5509
   1415.05615     747.1577     507.9468   1415.05615     747.1577     507.9468
   1415.04089     745.3727     507.9975   1415.04089     745.3727     507.9975
   1415.02563     743.9194     506.9858   1415.02563     743.9194     506.9858
   1415.01038     743.0561     506.1523   1415.01038     743.0561     506.1523
   1414.99512     741.4922     505.4039   1414.99512     741.4922     505.4039
   1414.97986     739.0319     504.8885   1414.97986     739.0319     504.8885
   1414.96460     738.3594     503.3750   1414.96460     738.3594     503.3750
   1414.94934     735.9293     502.2349   1414.94934     735.9293     502.2349
   1414.93408     734.5100     501.7128   1414.93408     734.5100     501.7128
   1414.91882     732.4412     500.1582   1414.91882     732.4412     500.1582
   1414.90356     731.5331     500.0939   1414.90356     731.5331     500.0939
   1414.88831     729.5524     497.9538   1414.88831     729.5524     497.9538
   1414.87305     726.9579     497.9395   1414.87305     726.9579     497.9395
   1414.85779     726.7792     496.5221   1414.85779     726.7792     496.5221
   1414.84253     724.1846     496.1724   1414.84253     724.1846     496.1724
   1414.82727     722.3538     494.7908   1414.82727     722.3538     494.7908
   1414.81201     720.7005     494.2681   1414.81201     720.7005     494.2681
   1414.79675     717.4725     492.4809   1414.79675     717.4725     492.4809
   1414.78149     716.0774     492.5207   1414.78149     716.0774     492.5207
   1414.76624     715.0043     490.6072   1414.76624     715.0043     490.6072
   1414.75098     712.7161     490.4032   1414.75098     712.7161     490.4032
   1414.73572     710.3970     488.6290   1414.73572     710.3970     488.6290
   1414.72046     709.2265     488.1801   1414.72046     709.2265     488.1801
   1414.70520     707.4903     487.2980   1414.70520     707.4903     487.2980
   1414.68994     704.3401     486.0966   1414.68994     704.3401     486.0966
   1414.67468     703.5569     484.8932   1414.67468     703.5569     484.8932
   1414.65942     701.8019     483.9644   1414.65942     701.8019     483.9644
   1414.64417     699.7607     482.9601   1414.64417     699.7607     482.9601
   1414.62891     696.7859     480.3781   1414.62891     696.7859     480.3781
   1414.61365     695.3165     479.5931   1414.61365     695.3165     479.5931
   1414.59839     692.0631     478.7878   1414.59839     692.0631     478.7878
   1414.58313     690.8156     477.5738   1414.58313     690.8156     477.5738
   1414.56787     687.3719     476.7246   1414.56787     687.3719     476.7246
   1414.55261     686.8784     475.3331   1414.55261     686.8784     475.3331
   1414.53735     684.6620     474.7709   1414.53735     684.6620     474.7709
   1414.52209     683.4747     471.8423   1414.52209     683.4747     471.8423
   1414.50684     679.7953     471.6061   1414.50684     679.7953     471.6061
   1414.49158     677.5117     470.2277   1414.49158     677.5117     470.2277
   1414.47632     675.8992     469.2946   1414.47632     675.8992     469.2946
   1414.46106     673.0629     467.9114   1414.46106     673.0629     467.9114
   1414.44580     670.4937     466.6104   1414.44580     670.4937     466.6104
   1414.43054     668.9875     465.3796   1414.43054     668.9875     465.3796
   1414.41528     667.5074     463.5563   1414.41528     667.5074     463.5563
   1414.40002     663.1575     462.0740   1414.40002     663.1575     462.0740
   1414.38477     661.8230     461.1592   1414.38477     661.8230     461.1592
   1414.36951     658.6264     459.7827   1414.36951     658.6264     459.7827
   1414.35425     657.0425     458.8413   1414.35425     657.0425     458.8413
   1414.33899     656.0281     456.9640   1414.33899     656.0281     456.9640
   1414.32373     652.5433     455.9263   1414.32373     652.5433     455.9263
   1414.30847     649.9009     454.6271   1414.30847     649.9009     454.6271
   1414.29321     647.2924     453.5977   1414.29321     647.2924     453.5977
   1414.27795     644.3692     451.5991   1414.27795     644.3692     451.5991
   1414.26270     642.6209     450.4419   1414.26270     642.6209     450.4419
   1414.24744     639.5725     447.9801   1414.24744     639.5725     447.9801
   1414.23218     637.1373     447.1236   1414.23218     637.1373     447.1236
   1414.21692     634.0319     445.4658   1414.21692     634.0319     445.4658
   1414.20166     632.0515     444.0395   1414.20166     632.0515     444.0395
   1414.18640     629.2253     442.5926   1414.18640     629.2253     442.5926
   1414.17114     627.1486     440.8889   1414.17114     627.1486     440.8889
   1414.15588     624.3025     439.4758   1414.15588     624.3025     439.4758
   1414.14062     621.3176     438.2225   1414.14062     621.3176     438.2225
   1414.12537     617.9048     436.5826   1414.12537     617.9048     436.5826
   1414.11011     615.2350     434.0000   1414.11011     615.2350     434.0000
   1414.09485     613.7705     433.1169   1414.09485     613.7705     433.1169
   1414.07959     610.3165     431.4977   1414.07959     610.3165     431.4977
   1414.06433     608.1274     429.3815   1414.06433     608.1274     429.3815
   1414.04907     605.3562     428.0914   1414.04907     605.3562     428.0914
   1414.03381     603.6939     426.9094   1414.03381     603.6939     426.9094
   1414.01855     600.8043     425.1169   1414.01855     600.8043     425.1169
   1414.00330     627.5747     432.6922   1414.00330     627.5747     432.6922
   1413.98804     596.6767     422.1205   1413.98804     596.6767     422.1205
   1413.97278     591.7887     420.9041   1413.97278     591.7887     420.9041
   1413.95752     589.3621     418.9183   1413.95752     589.3621     418.9183
   1413.94226     585.9332     417.3220   1413.94226     585.9332     417.3220
   1413.92700     583.8907     415.5295   1413.92700     583.8907     415.5295
   1413.91174     580.5942     413.6865   1413.91174     580.5942     413.6865
   1413.89648     578.0212     413.2266   1413.89648     578.0212     413.2266
   1413.88123     574.9844     410.2015   1413.88123     574.9844     410.2015
   1413.86597     571.6375     409.0204   1413.86597     571.6375     409.0204
   1413.85071     568.2562     406.5093   1413.85071     568.2562     406.5093
   1413.83545     565.7278     405.1975   1413.83545     565.7278     405.1975
   1413.82019     562.8585     403.8952   1413.82019     562.8585     403.8952
   1413.80493     560.7119     402.8098   1413.80493     560.7119     402.8098
   1413.78967     557.3499     400.8134   1413.78967     557.3499     400.8134
   1413.77441     554.2454     398.5317   1413.77441     554.2454     398.5317
   1413.75916     552.2908     396.5086   1413.75916     552.2908     396.5086
   1413.74390     548.8573     394.8111   1413.74390     548.8573     394.8111
   1413.72864     546.0323     393.2639   1413.72864     546.0323     393.2639
   1413.71338     543.6747     391.4178   1413.71338     543.6747     391.4178
   1413.69812     540.1312     389.4595   1413.69812     540.1312     389.4595
   1413.68286     538.0080     387.4665   1413.68286     538.0080     387.4665
   1413.66760     534.1240     386.4455   1413.66760     534.1240     386.4455
   1413.65234     531.8581     385.4880   1413.65234     531.8581     385.4880
   1413.63708     529.1801     383.1115   1413.63708     529.1801     383.1115
   1413.62183     526.1859     381.7813   1413.62183     526.1859     381.7813
   1413.60657     523.2050     379.4306   1413.60657     523.2050     379.4306
   1413.59131     521.0164     378.5833   1413.59131     521.0164     378.5833
   1413.57605     518.0554     376.2617   1413.57605     518.0554     376.2617
   1413.56079     514.8912     374.9742   1413.56079     514.8912     374.9742
   1413.54553     512.8223     373.2947   1413.54553     512.8223     373.2947
   1413.53027     509.4902     371.4476   1413.53027     509.4902     371.4476
   1413.51501     506.2854     369.4120   1413.51501     506.2854     369.4120
   1413.49976     504.1035     368.3496   1413.49976     504.1035     368.3496
   1413.48450     500.4692     365.7902   1413.48450     500.4692     365.7902
   1413.46924     497.8791     364.8931   1413.46924     497.8791     364.8931
   1413.45398     495.4239     363.4082   1413.45398     495.4239     363.4082
   1413.43872     492.6015     361.0187   1413.43872     492.6015     361.0187
   1413.42346     489.7923     359.8775   1413.42346     489.7923     359.8775
   1413.40820     487.5551     358.4746   1413.40820     487.5551     358.4746
   1413.39294     484.0235     356.7846   1413.39294     484.0235     356.7846
   1413.37769     481.6284     355.2471   1413.37769     481.6284     355.2471
   1413.36243     479.0464     353.6087   1413.36243     479.0464     353.6087
   1413.34717     475.8617     352.0395   1413.34717     475.8617     352.0395
   1413.33191     474.3468     351.1196   1413.33191     474.3468     351.1196
   1413.31665     470.8058     349.1346   1413.31665     470.8058     349.1346
   1413.30139     467.4001     347.3053   1413.30139     467.4001     347.3053
   1413.28613     465.6173     345.9164   1413.28613     465.6173     345.9164
   1413.27087     462.2248     344.6142   1413.27087     462.2248     344.6142
   1413.25562     461.0661     343.7491   1413.25562     461.0661     343.7491
   1413.24036     457.7672     341.5121   1413.24036     457.7672     341.5121
   1413.22510     455.6994     340.5172   1413.22510     455.6994     340.5172
   1413.20984     453.2135     338.9866   1413.20984     453.2135     338.9866
   1413.19458     450.1654     337.6898   1413.19458     450.1654     337.6898
   1413.17932     448.6415     336.4636   1413.17932     448.6415     336.4636
   1413.16406     445.8568     335.2800   1413.16406     445.8568     335.2800
   1413.14880     442.3914     333.7551   1413.14880     442.3914     333.7551
   1413.13354     441.1628     332.6638   1413.13354     441.1628     332.6638
   1413.11829     439.4218     330.9882   1413.11829     439.4218     330.9882
   1413.10303     436.2014     329.5785   1413.10303     436.2014     329.5785
   1413.08777     434.2089     329.1858   1413.08777     434.2089     329.1858
   1413.07251     431.8961     328.0962   1413.07251     431.8961     328.0962
   1413.05725     429.3790     326.3072   1413.05725     429.3790     326.3072
   1413.04199     427.9957     324.9619   1413.04199     427.9957     324.9619
   1413.02673     425.8597     324.7387   1413.02673     425.8597     324.7387
   1413.01147     423.6174     323.1857   1413.01147     423.6174     323.1857
   1412.99622     421.5887     321.7690   1412.99622     421.5887     321.7690
   1412.98096     419.5509     321.3087   1412.98096     419.5509     321.3087
   1412.96570     417.8335     319.9528   1412.96570     417.8335     319.9528
   1412.95044     415.4276     318.5430   1412.95044     415.4276     318.5430
   1412.93518     414.4313     318.6943   1412.93518     414.4313     318.6943
   1412.91992     411.7759     317.3211   1412.91992     411.7759     317.3211
   1412.90466     410.0627     316.5699   1412.90466     410.0627     316.5699
   1412.88940     408.6602     315.7457   1412.88940     408.6602     315.7457
   1412.87415     406.8096     314.9273   1412.87415     406.8096     314.9273
   1412.85889     405.5558     313.8472   1412.85889     405.5558     313.8472
   1412.84363     403.3156     313.7785   1412.84363     403.3156     313.7785
   1412.82837     401.9085     312.7813   1412.82837     401.9085     312.7813
   1412.81311     400.4620     312.3431   1412.81311     400.4620     312.3431
   1412.79785     398.6534     312.0927   1412.79785     398.6534     312.0927
   1412.78259     396.9985     311.1470   1412.78259     396.9985     311.1470
   1412.76733     396.4673     311.1461   1412.76733     396.4673     311.1461
   1412.75208     394.0839     309.7991   1412.75208     394.0839     309.7991
   1412.73682     392.7305     309.9227   1412.73682     392.7305     309.9227
   1412.72156     391.4857     309.2171   1412.72156     391.4857     309.2171
   1412.70630     390.8062     308.9981   1412.70630     390.8062     308.9981
   1412.69104     388.9207     307.9082   1412.69104     388.9207     307.9082
   1412.67578     387.9144     308.5533   1412.67578     387.9144     308.5533
   1412.66052     386.8601     307.7614   1412.66052     386.8601     307.7614
   1412.64526     386.1719     307.4355   1412.64526     386.1719     307.4355
   1412.63000     384.9325     307.6431   1412.63000     384.9325     307.6431
   1412.61475     384.6205     307.5158   1412.61475     384.6205     307.5158
   1412.59949     383.0625     307.4677   1412.59949     383.0625     307.4677
   1412.58423     382.2167     307.7492   1412.58423     382.2167     307.7492
   1412.56897     381.4458     307.2138   1412.56897     381.4458     307.2138
   1412.55371     380.8457     307.5446   1412.55371     380.8457     307.5446
   1412.53845     380.7084     307.2927   1412.53845     380.7084     307.2927
   1412.52319     379.8708     307.8918   1412.52319     379.8708     307.8918
   1412.50793     379.0467     307.7242   1412.50793     379.0467     307.7242
   1412.49268     378.0261     308.3396   1412.49268     378.0261     308.3396
   1412.47742     377.6734     308.3399   1412.47742     377.6734     308.3399
   1412.46216     377.6714     308.6115   1412.46216     377.6714     308.6115
   1412.44690     376.8162     308.5534   1412.44690     376.8162     308.5534
   1412.43164     376.7574     309.5044   1412.43164     376.7574     309.5044
   1412.41638     376.3852     309.3640   1412.41638     376.3852     309.3640
   1412.40112     376.3832     310.6677   1412.40112     376.3832     310.6677
   1412.38586     376.3444     310.3373   1412.38586     376.3444     310.3373
   1412.37061     376.0128     311.1294   1412.37061     376.0128     311.1294
   1412.35535     375.9900     311.9930   1412.35535     375.9900     311.9930
   1412.34009     376.6946     312.0932   1412.34009     376.6946     312.0932
   1412.32483     375.5478     313.4202   1412.32483     375.5478     313.4202
   1412.30957     376.3462     314.0192   1412.30957     376.3462     314.0192
   1412.29431     376.4637     314.8210   1412.29431     376.4637     314.8210
   1412.27905     377.3037     315.4415   1412.27905     377.3037     315.4415
   1412.26379     377.2564     316.6232   1412.26379     377.2564     316.6232
   1412.24854     377.8122     317.3214   1412.24854     377.8122     317.3214
   1412.23328     377.9972     318.1578   1412.23328     377.9972     318.1578
   1412.21802     378.1728     319.4890   1412.21802     378.1728     319.4890
   1412.20276     379.3152     320.1079   1412.20276     379.3152     320.1079