#     FILENAME=!Skynet_57528_lach-cc-188_20582_21011.cyb.fits
#     BASENAME=Skynet_57528_lach-cc-188_20582_21011
#     SRC_NAME=lach-cc-188
#     OBSERVER=ccmadison16_9505
#     DATE_OBS=2016-05-20T18:56:14.560
#        OBSID=20582
#      SCANNUM=21011
#          MJD=57528.7901
#          UTC=68263
#     SCANTYPE=track
#     DATAMODE=HIRES
#     TUNEFREQ=1420.0000
# Actual_FREQ1=1420.0000
# Actual_FREQ2=1420.0000
#    LO1Tuning=6870.000
#     RFFILTER=1355_1435
#        OBSBW=-15.6250
#        NCHAN=1024 
#        FOCUS=37.0709
#           RA=06:03:32.51
#          DEC=22:02:04.47
#      RA(hrs)=6.059000
#     DEC(deg)=22.034600
#    AZIM(deg)=154.401
#    ELEV(deg)=72.089
#     IFattens=11.00, 10.00
#      WARNING=None
#    TCAL_XL1=7.9635
#    TCAL_YR1=9.1340
#    TCAL_XL2=7.9635
#    TCAL_YR2=9.1340
#     TRX_XL1=11.7060
#     TRX_YR1=11.7060
#     TRX_XL2=11.7060
#     TRX_YR2=11.7060
#        TAVE=1.0000
#Freq1(MHz)          XL1          YR1  Freq2(MHz)          XL2          YR2 

   1427.81250     302.7231     283.4285   1427.81250     302.7231     283.4285
   1427.79724     302.6935     284.7186   1427.79724     302.6935     284.7186
   1427.78198     303.1536     285.6848   1427.78198     303.1536     285.6848
   1427.76672     304.0536     286.8615   1427.76672     304.0536     286.8615
   1427.75146     304.7214     288.0187   1427.75146     304.7214     288.0187
   1427.73621     305.5000     289.3225   1427.73621     305.5000     289.3225
   1427.72095     306.6895     290.4937   1427.72095     306.6895     290.4937
   1427.70569     307.2371     291.6444   1427.70569     307.2371     291.6444
   1427.69043     307.3585     292.9589   1427.69043     307.3585     292.9589
   1427.67517     308.8680     294.2536   1427.67517     308.8680     294.2536
   1427.65991     309.4463     295.4115   1427.65991     309.4463     295.4115
   1427.64465     310.5895     296.7304   1427.64465     310.5895     296.7304
   1427.62939     310.7985     298.4646   1427.62939     310.7985     298.4646
   1427.61414     311.9565     299.1402   1427.61414     311.9565     299.1402
   1427.59888     313.3950     300.5560   1427.59888     313.3950     300.5560
   1427.58362     314.3020     302.3979   1427.58362     314.3020     302.3979
   1427.56836     315.3899     303.9961   1427.56836     315.3899     303.9961
   1427.55310     316.5737     305.0720   1427.55310     316.5737     305.0720
   1427.53784     317.9211     306.2588   1427.53784     317.9211     306.2588
   1427.52258     319.1541     308.1114   1427.52258     319.1541     308.1114
   1427.50732     319.7734     309.5530   1427.50732     319.7734     309.5530
   1427.49207     321.0229     311.0372   1427.49207     321.0229     311.0372
   1427.47681     322.9017     313.0545   1427.47681     322.9017     313.0545
   1427.46155     324.0513     314.3753   1427.46155     324.0513     314.3753
   1427.44629     325.6926     316.2475   1427.44629     325.6926     316.2475
   1427.43103     326.9858     317.5235   1427.43103     326.9858     317.5235
   1427.41577     328.6440     319.3886   1427.41577     328.6440     319.3886
   1427.40051     330.1945     321.1180   1427.40051     330.1945     321.1180
   1427.38525     331.4153     323.2382   1427.38525     331.4153     323.2382
   1427.37000     333.3574     323.9003   1427.37000     333.3574     323.9003
   1427.35474     335.1335     326.1579   1427.35474     335.1335     326.1579
   1427.33948     336.3919     327.5628   1427.33948     336.3919     327.5628
   1427.32422     338.0326     329.0486   1427.32422     338.0326     329.0486
   1427.30896     340.0016     331.3771   1427.30896     340.0016     331.3771
   1427.29370     341.7714     332.9882   1427.29370     341.7714     332.9882
   1427.27844     343.5504     335.0493   1427.27844     343.5504     335.0493
   1427.26318     345.0109     336.3422   1427.26318     345.0109     336.3422
   1427.24792     347.1888     338.4432   1427.24792     347.1888     338.4432
   1427.23267     348.7021     339.3116   1427.23267     348.7021     339.3116
   1427.21741     350.5468     342.0572   1427.21741     350.5468     342.0572
   1427.20215     353.0983     343.9937   1427.20215     353.0983     343.9937
   1427.18689     354.8615     345.5126   1427.18689     354.8615     345.5126
   1427.17163     356.3873     347.4775   1427.17163     356.3873     347.4775
   1427.15637     358.4888     348.6098   1427.15637     358.4888     348.6098
   1427.14111     360.7643     351.2853   1427.14111     360.7643     351.2853
   1427.12585     363.1418     352.4064   1427.12585     363.1418     352.4064
   1427.11060     364.6418     354.2278   1427.11060     364.6418     354.2278
   1427.09534     367.2054     356.1709   1427.09534     367.2054     356.1709
   1427.08008     369.2645     358.4399   1427.08008     369.2645     358.4399
   1427.06482     371.2559     360.0682   1427.06482     371.2559     360.0682
   1427.04956     373.3735     361.8585   1427.04956     373.3735     361.8585
   1427.03430     375.7431     364.0533   1427.03430     375.7431     364.0533
   1427.01904     377.8439     365.1134   1427.01904     377.8439     365.1134
   1427.00378     379.7876     368.0671   1427.00378     379.7876     368.0671
   1426.98853     382.4930     369.1031   1426.98853     382.4930     369.1031
   1426.97327     384.7230     371.6613   1426.97327     384.7230     371.6613
   1426.95801     386.9257     373.1917   1426.95801     386.9257     373.1917
   1426.94275     389.3310     374.8664   1426.94275     389.3310     374.8664
   1426.92749     391.3911     376.7287   1426.92749     391.3911     376.7287
   1426.91223     393.8148     378.5544   1426.91223     393.8148     378.5544
   1426.89697     396.2099     380.5149   1426.89697     396.2099     380.5149
   1426.88171     398.3170     382.4611   1426.88171     398.3170     382.4611
   1426.86646     400.3239     383.9682   1426.86646     400.3239     383.9682
   1426.85120     403.6639     386.1442   1426.85120     403.6639     386.1442
   1426.83594     406.4102     388.3021   1426.83594     406.4102     388.3021
   1426.82068     408.5330     389.9159   1426.82068     408.5330     389.9159
   1426.80542     410.3994     392.1541   1426.80542     410.3994     392.1541
   1426.79016     413.1549     393.6523   1426.79016     413.1549     393.6523
   1426.77490     415.7348     395.5396   1426.77490     415.7348     395.5396
   1426.75964     418.2129     397.1852   1426.75964     418.2129     397.1852
   1426.74438     420.6703     399.2855   1426.74438     420.6703     399.2855
   1426.72913     422.9659     400.9223   1426.72913     422.9659     400.9223
   1426.71387     425.3304     402.4894   1426.71387     425.3304     402.4894
   1426.69861     427.8419     404.3799   1426.69861     427.8419     404.3799
   1426.68335     430.5919     406.2093   1426.68335     430.5919     406.2093
   1426.66809     432.0894     407.5645   1426.66809     432.0894     407.5645
   1426.65283     435.2893     409.8227   1426.65283     435.2893     409.8227
   1426.63757     438.1495     411.7459   1426.63757     438.1495     411.7459
   1426.62231     441.2243     414.6335   1426.62231     441.2243     414.6335
   1426.60706     442.9486     414.7748   1426.60706     442.9486     414.7748
   1426.59180     445.2980     415.9249   1426.59180     445.2980     415.9249
   1426.57654     447.7852     418.8472   1426.57654     447.7852     418.8472
   1426.56128     450.6129     419.5353   1426.56128     450.6129     419.5353
   1426.54602     453.2127     421.5233   1426.54602     453.2127     421.5233
   1426.53076     455.3174     423.4085   1426.53076     455.3174     423.4085
   1426.51550     457.5384     424.9232   1426.51550     457.5384     424.9232
   1426.50024     459.5661     426.9212   1426.50024     459.5661     426.9212
   1426.48499     463.5081     428.2134   1426.48499     463.5081     428.2134
   1426.46973     465.4689     430.1652   1426.46973     465.4689     430.1652
   1426.45447     467.6740     431.5212   1426.45447     467.6740     431.5212
   1426.43921     470.2480     434.1111   1426.43921     470.2480     434.1111
   1426.42395     472.7992     435.6192   1426.42395     472.7992     435.6192
   1426.40869     475.6331     436.5124   1426.40869     475.6331     436.5124
   1426.39343     477.7738     439.2001   1426.39343     477.7738     439.2001
   1426.37817     479.7253     440.1480   1426.37817     479.7253     440.1480
   1426.36292     482.2598     440.9631   1426.36292     482.2598     440.9631
   1426.34766     485.3185     442.6683   1426.34766     485.3185     442.6683
   1426.33240     487.4348     444.2178   1426.33240     487.4348     444.2178
   1426.31714     490.2783     446.2668   1426.31714     490.2783     446.2668
   1426.30188     492.1603     447.7007   1426.30188     492.1603     447.7007
   1426.28662     494.3647     448.9324   1426.28662     494.3647     448.9324
   1426.27136     496.6513     450.8391   1426.27136     496.6513     450.8391
   1426.25610     499.6845     452.2963   1426.25610     499.6845     452.2963
   1426.24084     500.9627     454.2360   1426.24084     500.9627     454.2360
   1426.22559     503.3185     455.6517   1426.22559     503.3185     455.6517
   1426.21033     506.0157     456.7897   1426.21033     506.0157     456.7897
   1426.19507     508.8959     458.4462   1426.19507     508.8959     458.4462
   1426.17981     510.5070     459.7958   1426.17981     510.5070     459.7958
   1426.16455     512.9065     460.2682   1426.16455     512.9065     460.2682
   1426.14929     514.8114     462.1866   1426.14929     514.8114     462.1866
   1426.13403     517.6160     464.8190   1426.13403     517.6160     464.8190
   1426.11877     519.6454     464.1655   1426.11877     519.6454     464.1655
   1426.10352     521.3497     466.9406   1426.10352     521.3497     466.9406
   1426.08826     523.7802     467.9984   1426.08826     523.7802     467.9984
   1426.07300     525.8054     469.1140   1426.07300     525.8054     469.1140
   1426.05774     527.8292     470.2937   1426.05774     527.8292     470.2937
   1426.04248     529.9576     472.3978   1426.04248     529.9576     472.3978
   1426.02722     532.5407     473.3059   1426.02722     532.5407     473.3059
   1426.01196     534.6345     474.4424   1426.01196     534.6345     474.4424
   1425.99670     536.3199     475.3830   1425.99670     536.3199     475.3830
   1425.98145     539.5150     476.8762   1425.98145     539.5150     476.8762
   1425.96619     541.4598     477.8911   1425.96619     541.4598     477.8911
   1425.95093     542.1695     479.8270   1425.95093     542.1695     479.8270
   1425.93567     544.1647     480.8234   1425.93567     544.1647     480.8234
   1425.92041     546.1801     481.7914   1425.92041     546.1801     481.7914
   1425.90515     547.5966     483.1534   1425.90515     547.5966     483.1534
   1425.88989     549.6426     484.4102   1425.88989     549.6426     484.4102
   1425.87463     552.2255     485.7201   1425.87463     552.2255     485.7201
   1425.85938     553.6280     485.7572   1425.85938     553.6280     485.7572
   1425.84412     555.9191     487.7606   1425.84412     555.9191     487.7606
   1425.82886     557.7837     488.7936   1425.82886     557.7837     488.7936
   1425.81360     558.9909     489.5776   1425.81360     558.9909     489.5776
   1425.79834     561.0937     490.8734   1425.79834     561.0937     490.8734
   1425.78308     561.6967     490.9969   1425.78308     561.6967     490.9969
   1425.76782     565.3522     492.2858   1425.76782     565.3522     492.2858
   1425.75256     565.7300     494.5869   1425.75256     565.7300     494.5869
   1425.73730     568.0342     494.6702   1425.73730     568.0342     494.6702
   1425.72205     568.8281     496.1320   1425.72205     568.8281     496.1320
   1425.70679     570.3387     496.8565   1425.70679     570.3387     496.8565
   1425.69153     572.3922     498.4689   1425.69153     572.3922     498.4689
   1425.67627     574.2857     499.2201   1425.67627     574.2857     499.2201
   1425.66101     575.4896     499.8864   1425.66101     575.4896     499.8864
   1425.64575     577.4926     501.4412   1425.64575     577.4926     501.4412
   1425.63049     577.8168     501.4948   1425.63049     577.8168     501.4948
   1425.61523     579.8619     502.5627   1425.61523     579.8619     502.5627
   1425.59998     582.3380     502.5500   1425.59998     582.3380     502.5500
   1425.58472     582.5659     504.3763   1425.58472     582.5659     504.3763
   1425.56946     583.5667     504.7985   1425.56946     583.5667     504.7985
   1425.55420     585.5125     505.7875   1425.55420     585.5125     505.7875
   1425.53894     586.2784     506.4575   1425.53894     586.2784     506.4575
   1425.52368     587.3614     507.2812   1425.52368     587.3614     507.2812
   1425.50842     588.5502     507.6940   1425.50842     588.5502     507.6940
   1425.49316     590.4320     508.6429   1425.49316     590.4320     508.6429
   1425.47791     591.7782     509.0366   1425.47791     591.7782     509.0366
   1425.46265     592.6829     510.0490   1425.46265     592.6829     510.0490
   1425.44739     594.0604     510.8862   1425.44739     594.0604     510.8862
   1425.43213     595.8723     511.1704   1425.43213     595.8723     511.1704
   1425.41687     595.9873     512.1275   1425.41687     595.9873     512.1275
   1425.40161     597.2578     512.9715   1425.40161     597.2578     512.9715
   1425.38635     598.1910     512.8600   1425.38635     598.1910     512.8600
   1425.37109     598.8645     514.1392   1425.37109     598.8645     514.1392
   1425.35583     600.0352     514.0939   1425.35583     600.0352     514.0939
   1425.34058     601.2563     514.8082   1425.34058     601.2563     514.8082
   1425.32532     601.7872     515.9343   1425.32532     601.7872     515.9343
   1425.31006     602.6429     515.5970   1425.31006     602.6429     515.5970
   1425.29480     604.4426     516.3995   1425.29480     604.4426     516.3995
   1425.27954     605.2182     516.6080   1425.27954     605.2182     516.6080
   1425.26428     605.4202     517.7166   1425.26428     605.4202     517.7166
   1425.24902     607.0291     519.0740   1425.24902     607.0291     519.0740
   1425.23376     606.5434     518.8380   1425.23376     606.5434     518.8380
   1425.21851     607.8495     518.7158   1425.21851     607.8495     518.7158
   1425.20325     608.1921     519.9127   1425.20325     608.1921     519.9127
   1425.18799     609.9659     519.6563   1425.18799     609.9659     519.6563
   1425.17273     610.5039     520.7622   1425.17273     610.5039     520.7622
   1425.15747     611.5983     520.5821   1425.15747     611.5983     520.5821
   1425.14221     612.0287     521.1833   1425.14221     612.0287     521.1833
   1425.12695     612.2669     521.3992   1425.12695     612.2669     521.3992
   1425.11169     611.9112     521.9981   1425.11169     611.9112     521.9981
   1425.09644     612.6617     521.8509   1425.09644     612.6617     521.8509
   1425.08118     613.7712     522.9597   1425.08118     613.7712     522.9597
   1425.06592     614.8763     522.7202   1425.06592     614.8763     522.7202
   1425.05066     615.0576     522.6077   1425.05066     615.0576     522.6077
   1425.03540     616.0272     523.8679   1425.03540     616.0272     523.8679
   1425.02014     616.5701     523.7510   1425.02014     616.5701     523.7510
   1425.00488     616.6170     524.1685   1425.00488     616.6170     524.1685
   1424.98962     616.7977     523.7100   1424.98962     616.7977     523.7100
   1424.97437     617.6564     524.4824   1424.97437     617.6564     524.4824
   1424.95911     618.3026     524.6760   1424.95911     618.3026     524.6760
   1424.94385     618.8875     524.9417   1424.94385     618.8875     524.9417
   1424.92859     618.3076     525.1521   1424.92859     618.3076     525.1521
   1424.91333     619.2404     526.0847   1424.91333     619.2404     526.0847
   1424.89807     619.2054     524.4001   1424.89807     619.2054     524.4001
   1424.88281     619.5666     525.4964   1424.88281     619.5666     525.4964
   1424.86755     620.0670     525.5314   1424.86755     620.0670     525.5314
   1424.85229     620.3158     526.2153   1424.85229     620.3158     526.2153
   1424.83704     620.4808     525.5384   1424.83704     620.4808     525.5384
   1424.82178     620.2405     526.0155   1424.82178     620.2405     526.0155
   1424.80652     620.0740     526.0579   1424.80652     620.0740     526.0579
   1424.79126     620.6388     525.2960   1424.79126     620.6388     525.2960
   1424.77600     621.1446     525.6022   1424.77600     621.1446     525.6022
   1424.76074     621.5749     526.4199   1424.76074     621.5749     526.4199
   1424.74548     621.1486     527.1719   1424.74548     621.1486     527.1719
   1424.73022     621.2512     526.6971   1424.73022     621.2512     526.6971
   1424.71497     621.2876     526.1150   1424.71497     621.2876     526.1150
   1424.69971     622.6705     525.5893   1424.69971     622.6705     525.5893
   1424.68445     621.7029     525.6487   1424.68445     621.7029     525.6487
   1424.66919     621.5570     524.9385   1424.66919     621.5570     524.9385
   1424.65393     621.7213     525.8604   1424.65393     621.7213     525.8604
   1424.63867     621.9313     525.4831   1424.63867     621.9313     525.4831
   1424.62341     621.6263     525.0677   1424.62341     621.6263     525.0677
   1424.60815     620.9799     525.5703   1424.60815     620.9799     525.5703
   1424.59290     621.9127     525.4487   1424.59290     621.9127     525.4487
   1424.57764     621.6893     526.1196   1424.57764     621.6893     526.1196
   1424.56238     622.1352     525.2924   1424.56238     622.1352     525.2924
   1424.54712     621.8893     523.4437   1424.54712     621.8893     523.4437
   1424.53186     621.8447     524.2598   1424.53186     621.8447     524.2598
   1424.51660     620.7636     525.4666   1424.51660     620.7636     525.4666
   1424.50134     621.3552     523.5053   1424.50134     621.3552     523.5053
   1424.48608     621.1306     524.6178   1424.48608     621.1306     524.6178
   1424.47083     621.1616     524.9445   1424.47083     621.1616     524.9445
   1424.45557     620.9571     523.6155   1424.45557     620.9571     523.6155
   1424.44031     620.7702     522.8773   1424.44031     620.7702     522.8773
   1424.42505     620.7355     523.4113   1424.42505     620.7355     523.4113
   1424.40979     621.6281     523.2245   1424.40979     621.6281     523.2245
   1424.39453     620.2334     522.5649   1424.39453     620.2334     522.5649
   1424.37927     619.3577     521.9617   1424.37927     619.3577     521.9617
   1424.36401     619.2057     523.0205   1424.36401     619.2057     523.0205
   1424.34875     618.1334     522.3303   1424.34875     618.1334     522.3303
   1424.33350     618.9516     522.0342   1424.33350     618.9516     522.0342
   1424.31824     618.9564     521.1774   1424.31824     618.9564     521.1774
   1424.30298     618.4413     521.0678   1424.30298     618.4413     521.0678
   1424.28772     619.5175     520.5959   1424.28772     619.5175     520.5959
   1424.27246     618.4653     520.8069   1424.27246     618.4653     520.8069
   1424.25720     618.7042     519.8247   1424.25720     618.7042     519.8247
   1424.24194     616.5845     520.2932   1424.24194     616.5845     520.2932
   1424.22668     618.2338     519.1649   1424.22668     618.2338     519.1649
   1424.21143     616.4498     519.1064   1424.21143     616.4498     519.1064
   1424.19617     617.6400     518.2573   1424.19617     617.6400     518.2573
   1424.18091     616.2831     517.8293   1424.18091     616.2831     517.8293
   1424.16565     616.3731     517.9695   1424.16565     616.3731     517.9695
   1424.15039     615.6844     517.4416   1424.15039     615.6844     517.4416
   1424.13513     614.4933     517.0680   1424.13513     614.4933     517.0680
   1424.11987     615.1219     516.7616   1424.11987     615.1219     516.7616
   1424.10461     614.8180     515.7249   1424.10461     614.8180     515.7249
   1424.08936     615.0476     515.9187   1424.08936     615.0476     515.9187
   1424.07410     613.2086     514.9382   1424.07410     613.2086     514.9382
   1424.05884     614.0910     514.1821   1424.05884     614.0910     514.1821
   1424.04358     613.2965     513.8389   1424.04358     613.2965     513.8389
   1424.02832     613.5721     513.6380   1424.02832     613.5721     513.6380
   1424.01306     612.5720     514.2687   1424.01306     612.5720     514.2687
   1423.99780     611.7480     512.8174   1423.99780     611.7480     512.8174
   1423.98254     612.9778     512.0633   1423.98254     612.9778     512.0633
   1423.96729     611.3506     511.2293   1423.96729     611.3506     511.2293
   1423.95203     612.0820     510.9760   1423.95203     612.0820     510.9760
   1423.93677     609.6239     509.7412   1423.93677     609.6239     509.7412
   1423.92151     609.5779     510.1730   1423.92151     609.5779     510.1730
   1423.90625     610.2642     509.2154   1423.90625     610.2642     509.2154
   1423.89099     609.8669     508.6487   1423.89099     609.8669     508.6487
   1423.87573     609.6950     507.8882   1423.87573     609.6950     507.8882
   1423.86047     607.4678     507.5105   1423.86047     607.4678     507.5105
   1423.84521     608.4617     506.5508   1423.84521     608.4617     506.5508
   1423.82996     608.1640     506.3655   1423.82996     608.1640     506.3655
   1423.81470     607.0585     506.0530   1423.81470     607.0585     506.0530
   1423.79944     606.8091     504.4690   1423.79944     606.8091     504.4690
   1423.78418     607.3222     504.5889   1423.78418     607.3222     504.5889
   1423.76892     606.2318     503.6478   1423.76892     606.2318     503.6478
   1423.75366     606.1580     503.5100   1423.75366     606.1580     503.5100
   1423.73840     605.6416     503.1884   1423.73840     605.6416     503.1884
   1423.72314     605.3020     501.8790   1423.72314     605.3020     501.8790
   1423.70789     604.1036     501.4723   1423.70789     604.1036     501.4723
   1423.69263     603.4610     500.3549   1423.69263     603.4610     500.3549
   1423.67737     603.8622     500.0836   1423.67737     603.8622     500.0836
   1423.66211     603.3147     499.3933   1423.66211     603.3147     499.3933
   1423.64685     602.9869     499.2083   1423.64685     602.9869     499.2083
   1423.63159     602.1732     497.7775   1423.63159     602.1732     497.7775
   1423.61633     600.8814     498.0493   1423.61633     600.8814     498.0493
   1423.60107     601.3276     496.5801   1423.60107     601.3276     496.5801
   1423.58582     600.9538     495.7541   1423.58582     600.9538     495.7541
   1423.57056     601.4692     494.7410   1423.57056     601.4692     494.7410
   1423.55530     601.5103     494.3270   1423.55530     601.5103     494.3270
   1423.54004     599.6991     493.5635   1423.54004     599.6991     493.5635
   1423.52478     599.1498     494.0800   1423.52478     599.1498     494.0800
   1423.50952     599.9664     493.5795   1423.50952     599.9664     493.5795
   1423.49426     599.0215     492.2204   1423.49426     599.0215     492.2204
   1423.47900     599.2036     491.1090   1423.47900     599.2036     491.1090
   1423.46375     598.4687     490.3521   1423.46375     598.4687     490.3521
   1423.44849     598.6262     490.1942   1423.44849     598.6262     490.1942
   1423.43323     598.0945     489.2469   1423.43323     598.0945     489.2469
   1423.41797     597.3798     488.1000   1423.41797     597.3798     488.1000
   1423.40271     596.9255     487.8470   1423.40271     596.9255     487.8470
   1423.38745     596.9339     486.8985   1423.38745     596.9339     486.8985
   1423.37219     595.6036     486.0229   1423.37219     595.6036     486.0229
   1423.35693     595.9935     485.4056   1423.35693     595.9935     485.4056
   1423.34167     595.1802     485.0423   1423.34167     595.1802     485.0423
   1423.32642     596.4199     483.9812   1423.32642     596.4199     483.9812
   1423.31116     595.6275     482.8205   1423.31116     595.6275     482.8205
   1423.29590     594.2296     482.2831   1423.29590     594.2296     482.2831
   1423.28064     593.8076     481.5558   1423.28064     593.8076     481.5558
   1423.26538     591.4327     481.2386   1423.26538     591.4327     481.2386
   1423.25012     593.5699     479.9420   1423.25012     593.5699     479.9420
   1423.23486     592.8169     479.6842   1423.23486     592.8169     479.6842
   1423.21960     592.9846     478.5915   1423.21960     592.9846     478.5915
   1423.20435     592.5080     478.7849   1423.20435     592.5080     478.7849
   1423.18909     592.6609     477.7338   1423.18909     592.6609     477.7338
   1423.17383     589.8999     476.4642   1423.17383     589.8999     476.4642
   1423.15857     590.7501     475.8275   1423.15857     590.7501     475.8275
   1423.14331     590.0253     475.2043   1423.14331     590.0253     475.2043
   1423.12805     590.6459     474.4261   1423.12805     590.6459     474.4261
   1423.11279     590.6592     473.1465   1423.11279     590.6592     473.1465
   1423.09753     589.8547     472.5675   1423.09753     589.8547     472.5675
   1423.08228     588.6049     471.7792   1423.08228     588.6049     471.7792
   1423.06702     589.0670     470.8657   1423.06702     589.0670     470.8657
   1423.05176     589.0328     470.2868   1423.05176     589.0328     470.2868
   1423.03650     589.3118     469.1327   1423.03650     589.3118     469.1327
   1423.02124     588.7841     468.4469   1423.02124     588.7841     468.4469
   1423.00598     587.5764     468.3615   1423.00598     587.5764     468.3615
   1422.99072     588.8010     467.2543   1422.99072     588.8010     467.2543
   1422.97546     587.7318     466.2874   1422.97546     587.7318     466.2874
   1422.96021     587.2745     465.3146   1422.96021     587.2745     465.3146
   1422.94495     587.1817     465.1535   1422.94495     587.1817     465.1535
   1422.92969     586.5383     463.4860   1422.92969     586.5383     463.4860
   1422.91443     586.7499     463.2253   1422.91443     586.7499     463.2253
   1422.89917     586.2150     462.2989   1422.89917     586.2150     462.2989
   1422.88391     585.8466     461.7303   1422.88391     585.8466     461.7303
   1422.86865     586.2974     461.1484   1422.86865     586.2974     461.1484
   1422.85339     585.1775     459.5365   1422.85339     585.1775     459.5365
   1422.83813     585.2484     458.9258   1422.83813     585.2484     458.9258
   1422.82288     585.0386     458.2631   1422.82288     585.0386     458.2631
   1422.80762     583.9147     458.3870   1422.80762     583.9147     458.3870
   1422.79236     584.8849     456.8283   1422.79236     584.8849     456.8283
   1422.77710     584.0789     456.0258   1422.77710     584.0789     456.0258
   1422.76184     583.8571     456.1012   1422.76184     583.8571     456.1012
   1422.74658     584.2755     454.3943   1422.74658     584.2755     454.3943
   1422.73132     584.1444     453.5482   1422.73132     584.1444     453.5482
   1422.71606     584.1971     452.9735   1422.71606     584.1971     452.9735
   1422.70081     583.2695     453.1552   1422.70081     583.2695     453.1552
   1422.68555     583.1273     451.8165   1422.68555     583.1273     451.8165
   1422.67029     582.7037     450.2796   1422.67029     582.7037     450.2796
   1422.65503     582.2214     450.4859   1422.65503     582.2214     450.4859
   1422.63977     582.6752     449.1471   1422.63977     582.6752     449.1471
   1422.62451     581.5462     448.4228   1422.62451     581.5462     448.4228
   1422.60925     581.8793     446.6458   1422.60925     581.8793     446.6458
   1422.59399     582.0568     446.8235   1422.59399     582.0568     446.8235
   1422.57874     580.6439     445.5029   1422.57874     580.6439     445.5029
   1422.56348     580.5745     445.3103   1422.56348     580.5745     445.3103
   1422.54822     581.4086     444.6039   1422.54822     581.4086     444.6039
   1422.53296     581.1671     443.6356   1422.53296     581.1671     443.6356
   1422.51770     580.5267     442.2413   1422.51770     580.5267     442.2413
   1422.50244     579.3873     441.8102   1422.50244     579.3873     441.8102
   1422.48718     580.1920     440.5251   1422.48718     580.1920     440.5251
   1422.47192     579.4348     440.4724   1422.47192     579.4348     440.4724
   1422.45667     580.1852     439.1682   1422.45667     580.1852     439.1682
   1422.44141     580.2496     437.6869   1422.44141     580.2496     437.6869
   1422.42615     579.8331     437.9507   1422.42615     579.8331     437.9507
   1422.41089     579.5901     436.8278   1422.41089     579.5901     436.8278
   1422.39563     579.7199     436.3780   1422.39563     579.7199     436.3780
   1422.38037     578.6172     436.1387   1422.38037     578.6172     436.1387
   1422.36511     578.1749     434.8971   1422.36511     578.1749     434.8971
   1422.34985     578.9919     434.6218   1422.34985     578.9919     434.6218
   1422.33459     579.2293     433.1476   1422.33459     579.2293     433.1476
   1422.31934     577.5674     432.4913   1422.31934     577.5674     432.4913
   1422.30408     578.8886     432.3055   1422.30408     578.8886     432.3055
   1422.28882     577.6621     431.3710   1422.28882     577.6621     431.3710
   1422.27356     577.2001     430.3416   1422.27356     577.2001     430.3416
   1422.25830     578.8387     429.5128   1422.25830     578.8387     429.5128
   1422.24304     578.0723     428.6122   1422.24304     578.0723     428.6122
   1422.22778     576.5182     428.7042   1422.22778     576.5182     428.7042
   1422.21252     578.3783     427.1544   1422.21252     578.3783     427.1544
   1422.19727     577.3008     426.3417   1422.19727     577.3008     426.3417
   1422.18201     576.5455     425.9813   1422.18201     576.5455     425.9813
   1422.16675     578.0556     425.3306   1422.16675     578.0556     425.3306
   1422.15149     576.0260     423.7328   1422.15149     576.0260     423.7328
   1422.13623     578.0440     422.6913   1422.13623     578.0440     422.6913
   1422.12097     576.2750     422.5342   1422.12097     576.2750     422.5342
   1422.10571     576.1863     421.5980   1422.10571     576.1863     421.5980
   1422.09045     576.5009     420.9123   1422.09045     576.5009     420.9123
   1422.07520     575.8246     420.0804   1422.07520     575.8246     420.0804
   1422.05994     576.2496     418.6724   1422.05994     576.2496     418.6724
   1422.04468     576.0339     418.1035   1422.04468     576.0339     418.1035
   1422.02942     575.5670     417.9563   1422.02942     575.5670     417.9563
   1422.01416     575.7283     417.3228   1422.01416     575.7283     417.3228
   1421.99890     576.2077     416.8925   1421.99890     576.2077     416.8925
   1421.98364     575.3764     415.3821   1421.98364     575.3764     415.3821
   1421.96838     575.7494     414.9389   1421.96838     575.7494     414.9389
   1421.95312     574.8708     414.3862   1421.95312     574.8708     414.3862
   1421.93787     574.7253     413.3745   1421.93787     574.7253     413.3745
   1421.92261     574.8081     412.2581   1421.92261     574.8081     412.2581
   1421.90735     575.3237     411.9704   1421.90735     575.3237     411.9704
   1421.89209     575.3939     410.8262   1421.89209     575.3939     410.8262
   1421.87683     574.1532     409.6918   1421.87683     574.1532     409.6918
   1421.86157     574.6625     409.8420   1421.86157     574.6625     409.8420
   1421.84631     574.5526     408.6164   1421.84631     574.5526     408.6164
   1421.83105     573.4467     408.0051   1421.83105     573.4467     408.0051
   1421.81580     574.5140     407.3547   1421.81580     574.5140     407.3547
   1421.80054     573.0580     406.7270   1421.80054     573.0580     406.7270
   1421.78528     573.1781     405.1957   1421.78528     573.1781     405.1957
   1421.77002     573.0974     405.0879   1421.77002     573.0974     405.0879
   1421.75476     572.9534     404.2238   1421.75476     572.9534     404.2238
   1421.73950     573.6080     402.9998   1421.73950     573.6080     402.9998
   1421.72424     572.6006     403.2795   1421.72424     572.6006     403.2795
   1421.70898     572.4316     401.9937   1421.70898     572.4316     401.9937
   1421.69373     573.7138     400.7671   1421.69373     573.7138     400.7671
   1421.67847     573.2278     400.1541   1421.67847     573.2278     400.1541
   1421.66321     571.9931     400.3868   1421.66321     571.9931     400.3868
   1421.64795     572.8819     399.0547   1421.64795     572.8819     399.0547
   1421.63269     572.1368     398.5895   1421.63269     572.1368     398.5895
   1421.61743     572.3975     397.7866   1421.61743     572.3975     397.7866
   1421.60217     572.4787     396.7558   1421.60217     572.4787     396.7558
   1421.58691     572.0278     396.4922   1421.58691     572.0278     396.4922
   1421.57166     571.6410     395.5286   1421.57166     571.6410     395.5286
   1421.55640     571.9265     393.6179   1421.55640     571.9265     393.6179
   1421.54114     571.4100     393.3073   1421.54114     571.4100     393.3073
   1421.52588     571.0695     393.1267   1421.52588     571.0695     393.1267
   1421.51062     571.4444     391.6616   1421.51062     571.4444     391.6616
   1421.49536     570.7249     392.5353   1421.49536     570.7249     392.5353
   1421.48010     570.7950     391.1981   1421.48010     570.7950     391.1981
   1421.46484     570.5751     389.5717   1421.46484     570.5751     389.5717
   1421.44958     570.1881     389.3945   1421.44958     570.1881     389.3945
   1421.43433     570.3491     388.7746   1421.43433     570.3491     388.7746
   1421.41907     569.9968     388.4285   1421.41907     569.9968     388.4285
   1421.40381     570.8607     387.0876   1421.40381     570.8607     387.0876
   1421.38855     570.0685     386.1195   1421.38855     570.0685     386.1195
   1421.37329     569.9730     386.1010   1421.37329     569.9730     386.1010
   1421.35803     569.6805     384.4354   1421.35803     569.6805     384.4354
   1421.34277     569.5297     384.3581   1421.34277     569.5297     384.3581
   1421.32751     570.0433     383.6059   1421.32751     570.0433     383.6059
   1421.31226     568.9662     382.8201   1421.31226     568.9662     382.8201
   1421.29700     568.7690     381.4086   1421.29700     568.7690     381.4086
   1421.28174     568.6833     381.9404   1421.28174     568.6833     381.9404
   1421.26648     567.8133     380.8362   1421.26648     567.8133     380.8362
   1421.25122     567.4212     379.4806   1421.25122     567.4212     379.4806
   1421.23596     568.5992     379.1862   1421.23596     568.5992     379.1862
   1421.22070     567.6529     378.3871   1421.22070     567.6529     378.3871
   1421.20544     567.0292     377.6448   1421.20544     567.0292     377.6448
   1421.19019     566.5281     376.7944   1421.19019     566.5281     376.7944
   1421.17493     567.6934     376.3503   1421.17493     567.6934     376.3503
   1421.15967     567.4299     375.9038   1421.15967     567.4299     375.9038
   1421.14441     566.8748     374.5730   1421.14441     566.8748     374.5730
   1421.12915     566.8085     374.3873   1421.12915     566.8085     374.3873
   1421.11389     566.3207     373.9255   1421.11389     566.3207     373.9255
   1421.09863     565.9957     372.7352   1421.09863     565.9957     372.7352
   1421.08337     565.0148     372.2857   1421.08337     565.0148     372.2857
   1421.06812     565.9108     371.9638   1421.06812     565.9108     371.9638
   1421.05286     565.8834     370.9855   1421.05286     565.8834     370.9855
   1421.03760     566.4517     370.3904   1421.03760     566.4517     370.3904
   1421.02234     565.6871     370.7154   1421.02234     565.6871     370.7154
   1421.00708     565.4112     369.0339   1421.00708     565.4112     369.0339
   1420.99182     565.0807     368.8212   1420.99182     565.0807     368.8212
   1420.97656     564.7257     368.2170   1420.97656     564.7257     368.2170
   1420.96130     564.9781     367.4844   1420.96130     564.9781     367.4844
   1420.94604     564.4655     366.2722   1420.94604     564.4655     366.2722
   1420.93079     564.4902     365.0555   1420.93079     564.4902     365.0555
   1420.91553     563.5923     364.8666   1420.91553     563.5923     364.8666
   1420.90027     564.8037     364.4987   1420.90027     564.8037     364.4987
   1420.88501     564.3091     363.6946   1420.88501     564.3091     363.6946
   1420.86975     564.7767     363.1714   1420.86975     564.7767     363.1714
   1420.85449     563.1672     362.5293   1420.85449     563.1672     362.5293
   1420.83923     563.3318     361.9931   1420.83923     563.3318     361.9931
   1420.82397     563.4442     361.4416   1420.82397     563.4442     361.4416
   1420.80872     563.3085     361.0495   1420.80872     563.3085     361.0495
   1420.79346     563.0222     360.2955   1420.79346     563.0222     360.2955
   1420.77820     564.0021     360.3308   1420.77820     564.0021     360.3308
   1420.76294     564.4332     359.7387   1420.76294     564.4332     359.7387
   1420.74768     564.2852     359.3480   1420.74768     564.2852     359.3480
   1420.73242     562.9999     358.6496   1420.73242     562.9999     358.6496
   1420.71716     562.6461     358.2745   1420.71716     562.6461     358.2745
   1420.70190     563.3655     357.8122   1420.70190     563.3655     357.8122
   1420.68665     563.9969     357.3497   1420.68665     563.9969     357.3497
   1420.67139     563.8222     356.7690   1420.67139     563.8222     356.7690
   1420.65613     564.1530     356.3315   1420.65613     564.1530     356.3315
   1420.64087     564.1658     355.3113   1420.64087     564.1658     355.3113
   1420.62561     562.5625     355.5103   1420.62561     562.5625     355.5103
   1420.61035     563.0958     354.8781   1420.61035     563.0958     354.8781
   1420.59509     564.0063     354.5902   1420.59509     564.0063     354.5902
   1420.57983     564.4404     354.1254   1420.57983     564.4404     354.1254
   1420.56458     564.9837     354.3803   1420.56458     564.9837     354.3803
   1420.54932     566.5435     354.1655   1420.54932     566.5435     354.1655
   1420.53406     567.8516     354.5942   1420.53406     567.8516     354.5942
   1420.51880     568.7000     355.0931   1420.51880     568.7000     355.0931
   1420.50354     570.0013     355.3167   1420.50354     570.0013     355.3167
   1420.48828     571.0293     356.1855   1420.48828     571.0293     356.1855
   1420.47302     572.8166     355.8399   1420.47302     572.8166     355.8399
   1420.45776     574.5142     356.7928   1420.45776     574.5142     356.7928
   1420.44250     577.8297     358.1458   1420.44250     577.8297     358.1458
   1420.42725     581.7538     360.3422   1420.42725     581.7538     360.3422
   1420.41199     588.3988     363.2690   1420.41199     588.3988     363.2690
   1420.39673     596.1530     368.3644   1420.39673     596.1530     368.3644
   1420.38147     611.6505     376.9174   1420.38147     611.6505     376.9174
   1420.36621     636.3017     389.7749   1420.36621     636.3017     389.7749
   1420.35095     677.9109     414.7703   1420.35095     677.9109     414.7703
   1420.33569     750.5544     456.4650   1420.33569     750.5544     456.4650
   1420.32043     877.2830     530.8705   1420.32043     877.2830     530.8705
   1420.30518    1143.7610     686.8590   1420.30518    1143.7610     686.8590
   1420.28992    1567.3047     934.5382   1420.28992    1567.3047     934.5382
   1420.27466    1971.3076    1167.4584   1420.27466    1971.3076    1167.4584
   1420.25940    2190.0088    1292.6884   1420.25940    2190.0088    1292.6884
   1420.24414    2198.6787    1300.5200   1420.24414    2198.6787    1300.5200
   1420.22888    2044.8685    1208.4822   1420.22888    2044.8685    1208.4822
   1420.21362    1739.3927    1028.1328   1420.21362    1739.3927    1028.1328
   1420.19836    1309.6536     778.5798   1420.19836    1309.6536     778.5798
   1420.18311     952.7969     569.6730   1420.18311     952.7969     569.6730
   1420.16785     749.1505     451.6863   1420.16785     749.1505     451.6863
   1420.15259     650.3083     394.1473   1420.15259     650.3083     394.1473
   1420.13733     608.2794     368.8446   1420.13733     608.2794     368.8446
   1420.12207     586.7735     355.1796   1420.12207     586.7735     355.1796
   1420.10681     574.2994     347.6875   1420.10681     574.2994     347.6875
   1420.09155     567.3757     343.6373   1420.09155     567.3757     343.6373
   1420.07629     563.0058     340.6951   1420.07629     563.0058     340.6951
   1420.06104     560.2615     338.7838   1420.06104     560.2615     338.7838
   1420.04578     557.9521     337.5735   1420.04578     557.9521     337.5735
   1420.03052     558.1593     337.2216   1420.03052     558.1593     337.2216
   1420.01526     556.4407     337.1025   1420.01526     556.4407     337.1025
   1420.00000     557.0247     337.5038   1420.00000     557.0247     337.5038
   1419.98474     557.6086     337.9051   1419.98474     557.6086     337.9051
   1419.96948     558.1487     335.5781   1419.96948     558.1487     335.5781
   1419.95422     554.1187     333.1786   1419.95422     554.1187     333.1786
   1419.93896     553.9674     333.1594   1419.93896     553.9674     333.1594
   1419.92371     554.0705     332.1379   1419.92371     554.0705     332.1379
   1419.90845     554.5276     332.0997   1419.90845     554.5276     332.0997
   1419.89319     553.3126     332.1414   1419.89319     553.3126     332.1414
   1419.87793     554.2596     331.3340   1419.87793     554.2596     331.3340
   1419.86267     552.9151     330.9524   1419.86267     552.9151     330.9524
   1419.84741     552.0883     330.1543   1419.84741     552.0883     330.1543
   1419.83215     553.0737     330.8127   1419.83215     553.0737     330.8127
   1419.81689     552.6993     329.8644   1419.81689     552.6993     329.8644
   1419.80164     553.3848     329.8156   1419.80164     553.3848     329.8156
   1419.78638     553.3708     329.3911   1419.78638     553.3708     329.3911
   1419.77112     553.0618     329.3864   1419.77112     553.0618     329.3864
   1419.75586     552.5518     328.8435   1419.75586     552.5518     328.8435
   1419.74060     552.2294     328.8493   1419.74060     552.2294     328.8493
   1419.72534     552.4653     328.6325   1419.72534     552.4653     328.6325
   1419.71008     553.0465     328.8359   1419.71008     553.0465     328.8359
   1419.69482     553.0360     328.0988   1419.69482     553.0360     328.0988
   1419.67957     552.8323     327.9551   1419.67957     552.8323     327.9551
   1419.66431     552.8541     328.1466   1419.66431     552.8541     328.1466
   1419.64905     553.1539     328.1846   1419.64905     553.1539     328.1846
   1419.63379     552.8755     327.8130   1419.63379     552.8755     327.8130
   1419.61853     553.5815     326.8716   1419.61853     553.5815     326.8716
   1419.60327     553.3230     327.1409   1419.60327     553.3230     327.1409
   1419.58801     552.5482     327.0644   1419.58801     552.5482     327.0644
   1419.57275     554.3068     327.3135   1419.57275     554.3068     327.3135
   1419.55750     553.9041     326.8415   1419.55750     553.9041     326.8415
   1419.54224     553.8936     326.9857   1419.54224     553.8936     326.9857
   1419.52698     553.8351     326.5787   1419.52698     553.8351     326.5787
   1419.51172     554.0354     327.1437   1419.51172     554.0354     327.1437
   1419.49646     554.7634     326.6805   1419.49646     554.7634     326.6805
   1419.48120     555.7228     326.3276   1419.48120     555.7228     326.3276
   1419.46594     554.3654     326.5749   1419.46594     554.3654     326.5749
   1419.45068     555.4186     327.0020   1419.45068     555.4186     327.0020
   1419.43542     555.6065     326.7534   1419.43542     555.6065     326.7534
   1419.42017     555.4141     326.5147   1419.42017     555.4141     326.5147
   1419.40491     556.0268     326.4120   1419.40491     556.0268     326.4120
   1419.38965     556.0820     327.0185   1419.38965     556.0820     327.0185
   1419.37439     556.0440     326.4543   1419.37439     556.0440     326.4543
   1419.35913     556.4252     326.1165   1419.35913     556.4252     326.1165
   1419.34387     557.0063     326.5575   1419.34387     557.0063     326.5575
   1419.32861     556.7321     326.4484   1419.32861     556.7321     326.4484
   1419.31335     557.4532     326.9283   1419.31335     557.4532     326.9283
   1419.29810     557.6555     326.8031   1419.29810     557.6555     326.8031
   1419.28284     558.0016     327.2116   1419.28284     558.0016     327.2116
   1419.26758     558.4648     327.2088   1419.26758     558.4648     327.2088
   1419.25232     558.0800     326.9457   1419.25232     558.0800     326.9457
   1419.23706     559.3124     326.9042   1419.23706     559.3124     326.9042
   1419.22180     559.4102     327.4467   1419.22180     559.4102     327.4467
   1419.20654     560.3079     327.3392   1419.20654     560.3079     327.3392
   1419.19128     560.0515     327.8312   1419.19128     560.0515     327.8312
   1419.17603     559.4062     327.5800   1419.17603     559.4062     327.5800
   1419.16077     560.1015     327.5068   1419.16077     560.1015     327.5068
   1419.14551     561.0467     327.6556   1419.14551     561.0467     327.6556
   1419.13025     561.0328     327.9752   1419.13025     561.0328     327.9752
   1419.11499     561.8915     328.7079   1419.11499     561.8915     328.7079
   1419.09973     561.6696     328.5241   1419.09973     561.6696     328.5241
   1419.08447     561.8403     328.6805   1419.08447     561.8403     328.6805
   1419.06921     562.6949     329.0018   1419.06921     562.6949     329.0018
   1419.05396     562.6011     328.8935   1419.05396     562.6011     328.8935
   1419.03870     562.7836     329.3221   1419.03870     562.7836     329.3221
   1419.02344     562.8760     329.9740   1419.02344     562.8760     329.9740
   1419.00818     563.8195     330.0296   1419.00818     563.8195     330.0296
   1418.99292     564.8905     329.9086   1418.99292     564.8905     329.9086
   1418.97766     564.8661     330.5622   1418.97766     564.8661     330.5622
   1418.96240     565.2719     330.9575   1418.96240     565.2719     330.9575
   1418.94714     565.4987     330.9572   1418.94714     565.4987     330.9572
   1418.93188     565.8173     331.3318   1418.93188     565.8173     331.3318
   1418.91663     565.4359     331.8055   1418.91663     565.4359     331.8055
   1418.90137     567.0260     331.8976   1418.90137     567.0260     331.8976
   1418.88611     567.5312     331.9907   1418.88611     567.5312     331.9907
   1418.87085     568.0809     332.4208   1418.87085     568.0809     332.4208
   1418.85559     567.6697     333.2460   1418.85559     567.6697     333.2460
   1418.84033     568.4581     333.0511   1418.84033     568.4581     333.0511
   1418.82507     569.5809     333.7268   1418.82507     569.5809     333.7268
   1418.80981     569.9518     334.2280   1418.80981     569.9518     334.2280
   1418.79456     570.1940     333.8300   1418.79456     570.1940     333.8300
   1418.77930     570.9311     334.6082   1418.77930     570.9311     334.6082
   1418.76404     571.1715     334.9555   1418.76404     571.1715     334.9555
   1418.74878     572.1254     335.3281   1418.74878     572.1254     335.3281
   1418.73352     572.4108     335.7995   1418.73352     572.4108     335.7995
   1418.71826     573.0563     336.7742   1418.71826     573.0563     336.7742
   1418.70300     574.2379     336.8861   1418.70300     574.2379     336.8861
   1418.68774     573.4584     337.0854   1418.68774     573.4584     337.0854
   1418.67249     574.5503     337.4229   1418.67249     574.5503     337.4229
   1418.65723     574.6564     338.2947   1418.65723     574.6564     338.2947
   1418.64197     575.4589     338.8605   1418.64197     575.4589     338.8605
   1418.62671     575.9739     339.2514   1418.62671     575.9739     339.2514
   1418.61145     575.9340     339.5030   1418.61145     575.9340     339.5030
   1418.59619     578.1924     339.2878   1418.59619     578.1924     339.2878
   1418.58093     577.7477     340.7589   1418.58093     577.7477     340.7589
   1418.56567     577.6845     341.0499   1418.56567     577.6845     341.0499
   1418.55042     578.3190     341.7607   1418.55042     578.3190     341.7607
   1418.53516     579.4508     342.2385   1418.53516     579.4508     342.2385
   1418.51990     580.6119     342.4463   1418.51990     580.6119     342.4463
   1418.50464     580.6518     342.9692   1418.50464     580.6518     342.9692
   1418.48938     581.7803     343.9153   1418.48938     581.7803     343.9153
   1418.47412     581.8156     344.8446   1418.47412     581.8156     344.8446
   1418.45886     582.6840     345.5511   1418.45886     582.6840     345.5511
   1418.44360     583.5836     345.2051   1418.44360     583.5836     345.2051
   1418.42834     583.6971     345.7276   1418.42834     583.6971     345.7276
   1418.41309     585.3895     347.3727   1418.41309     585.3895     347.3727
   1418.39783     586.3731     347.6135   1418.39783     586.3731     347.6135
   1418.38257     585.5803     348.3373   1418.38257     585.5803     348.3373
   1418.36731     586.0192     348.9732   1418.36731     586.0192     348.9732
   1418.35205     587.3333     348.7896   1418.35205     587.3333     348.7896
   1418.33679     588.2106     349.9831   1418.33679     588.2106     349.9831
   1418.32153     588.7407     350.9272   1418.32153     588.7407     350.9272
   1418.30627     587.8860     351.2937   1418.30627     587.8860     351.2937
   1418.29102     589.4318     352.0289   1418.29102     589.4318     352.0289
   1418.27576     589.5548     352.3689   1418.27576     589.5548     352.3689
   1418.26050     590.6960     353.5766   1418.26050     590.6960     353.5766
   1418.24524     590.8661     353.8391   1418.24524     590.8661     353.8391
   1418.22998     592.3596     354.5779   1418.22998     592.3596     354.5779
   1418.21472     593.3417     355.4009   1418.21472     593.3417     355.4009
   1418.19946     593.9657     356.2821   1418.19946     593.9657     356.2821
   1418.18420     593.6520     356.5132   1418.18420     593.6520     356.5132
   1418.16895     594.8463     357.5225   1418.16895     594.8463     357.5225
   1418.15369     596.5668     358.2906   1418.15369     596.5668     358.2906
   1418.13843     596.5382     358.8538   1418.13843     596.5382     358.8538
   1418.12317     597.3015     360.0195   1418.12317     597.3015     360.0195
   1418.10791     597.7115     360.8371   1418.10791     597.7115     360.8371
   1418.09265     597.8643     361.1054   1418.09265     597.8643     361.1054
   1418.07739     600.0010     362.2904   1418.07739     600.0010     362.2904
   1418.06213     600.0485     363.0283   1418.06213     600.0485     363.0283
   1418.04688     600.7023     363.8304   1418.04688     600.7023     363.8304
   1418.03162     601.3877     364.2765   1418.03162     601.3877     364.2765
   1418.01636     601.9402     365.6953   1418.01636     601.9402     365.6953
   1418.00110     602.5057     366.1300   1418.00110     602.5057     366.1300
   1417.98584     603.4412     366.7009   1417.98584     603.4412     366.7009
   1417.97058     604.0751     367.1136   1417.97058     604.0751     367.1136
   1417.95532     603.8740     368.5734   1417.95532     603.8740     368.5734
   1417.94006     605.1083     369.1275   1417.94006     605.1083     369.1275
   1417.92480     605.1386     370.2548   1417.92480     605.1386     370.2548
   1417.90955     607.3661     370.8546   1417.90955     607.3661     370.8546
   1417.89429     607.5696     371.4843   1417.89429     607.5696     371.4843
   1417.87903     608.1553     373.1510   1417.87903     608.1553     373.1510
   1417.86377     607.7155     374.0909   1417.86377     607.7155     374.0909
   1417.84851     609.5851     374.2540   1417.84851     609.5851     374.2540
   1417.83325     611.2602     375.9334   1417.83325     611.2602     375.9334
   1417.81799     610.1601     375.7495   1417.81799     610.1601     375.7495
   1417.80273     610.9446     377.4032   1417.80273     610.9446     377.4032
   1417.78748     612.3871     378.2035   1417.78748     612.3871     378.2035
   1417.77222     612.5918     379.0508   1417.77222     612.5918     379.0508
   1417.75696     613.9968     379.2447   1417.75696     613.9968     379.2447
   1417.74170     615.2640     380.7168   1417.74170     615.2640     380.7168
   1417.72644     615.0814     381.3161   1417.72644     615.0814     381.3161
   1417.71118     615.0675     382.4927   1417.71118     615.0675     382.4927
   1417.69592     617.6183     384.1509   1417.69592     617.6183     384.1509
   1417.68066     617.1502     384.2950   1417.68066     617.1502     384.2950
   1417.66541     618.2851     385.5052   1417.66541     618.2851     385.5052
   1417.65015     618.1042     386.1182   1417.65015     618.1042     386.1182
   1417.63489     619.7009     387.0793   1417.63489     619.7009     387.0793
   1417.61963     620.0500     388.1024   1417.61963     620.0500     388.1024
   1417.60437     620.5537     389.5875   1417.60437     620.5537     389.5875
   1417.58911     622.4675     389.4477   1417.58911     622.4675     389.4477
   1417.57385     621.8494     390.9150   1417.57385     621.8494     390.9150
   1417.55859     622.5958     391.1463   1417.55859     622.5958     391.1463
   1417.54333     623.7286     393.1404   1417.54333     623.7286     393.1404
   1417.52808     623.9500     394.1401   1417.52808     623.9500     394.1401
   1417.51282     624.8713     394.8069   1417.51282     624.8713     394.8069
   1417.49756     625.3824     396.0055   1417.49756     625.3824     396.0055
   1417.48230     625.1890     396.5372   1417.48230     625.1890     396.5372
   1417.46704     625.9860     396.7855   1417.46704     625.9860     396.7855
   1417.45178     626.2679     398.3802   1417.45178     626.2679     398.3802
   1417.43652     627.5159     399.3499   1417.43652     627.5159     399.3499
   1417.42126     628.1105     400.2171   1417.42126     628.1105     400.2171
   1417.40601     629.2067     401.1005   1417.40601     629.2067     401.1005
   1417.39075     629.6111     402.0741   1417.39075     629.6111     402.0741
   1417.37549     630.0874     402.5024   1417.37549     630.0874     402.5024
   1417.36023     629.9730     404.3302   1417.36023     629.9730     404.3302
   1417.34497     629.9557     405.3554   1417.34497     629.9557     405.3554
   1417.32971     631.4452     405.5648   1417.32971     631.4452     405.5648
   1417.31445     631.1931     407.2271   1417.31445     631.1931     407.2271
   1417.29919     633.5052     408.5676   1417.29919     633.5052     408.5676
   1417.28394     631.9626     408.8944   1417.28394     631.9626     408.8944
   1417.26868     633.6648     409.7242   1417.26868     633.6648     409.7242
   1417.25342     635.3544     410.6755   1417.25342     635.3544     410.6755
   1417.23816     634.6877     411.5267   1417.23816     634.6877     411.5267
   1417.22290     635.4870     413.2321   1417.22290     635.4870     413.2321
   1417.20764     635.6838     414.0018   1417.20764     635.6838     414.0018
   1417.19238     635.6138     414.8465   1417.19238     635.6138     414.8465
   1417.17712     635.3700     415.2613   1417.17712     635.3700     415.2613
   1417.16187     636.7830     416.2673   1417.16187     636.7830     416.2673
   1417.14661     637.9048     416.8033   1417.14661     637.9048     416.8033
   1417.13135     638.2584     418.5178   1417.13135     638.2584     418.5178
   1417.11609     638.8012     418.4570   1417.11609     638.8012     418.4570
   1417.10083     638.2838     419.8384   1417.10083     638.2838     419.8384
   1417.08557     638.7810     421.0905   1417.08557     638.7810     421.0905
   1417.07031     638.8371     421.6064   1417.07031     638.8371     421.6064
   1417.05505     640.5046     423.0475   1417.05505     640.5046     423.0475
   1417.03979     639.0908     423.0926   1417.03979     639.0908     423.0926
   1417.02454     639.2197     423.7419   1417.02454     639.2197     423.7419
   1417.00928     640.4926     424.5080   1417.00928     640.4926     424.5080
   1416.99402     639.9819     425.5688   1416.99402     639.9819     425.5688
   1416.97876     641.5287     426.3176   1416.97876     641.5287     426.3176
   1416.96350     641.5585     427.4697   1416.96350     641.5585     427.4697
   1416.94824     642.1113     427.8798   1416.94824     642.1113     427.8798
   1416.93298     642.5602     429.1375   1416.93298     642.5602     429.1375
   1416.91772     641.8865     429.7076   1416.91772     641.8865     429.7076
   1416.90247     642.3295     430.1950   1416.90247     642.3295     430.1950
   1416.88721     642.4127     430.7316   1416.88721     642.4127     430.7316
   1416.87195     641.8384     431.1634   1416.87195     641.8384     431.1634
   1416.85669     643.2136     432.7221   1416.85669     643.2136     432.7221
   1416.84143     642.1130     433.3604   1416.84143     642.1130     433.3604
   1416.82617     643.3832     433.6868   1416.82617     643.3832     433.6868
   1416.81091     642.9792     434.7489   1416.81091     642.9792     434.7489
   1416.79565     643.2413     436.0249   1416.79565     643.2413     436.0249
   1416.78040     643.5197     435.1049   1416.78040     643.5197     435.1049
   1416.76514     643.0688     436.0360   1416.76514     643.0688     436.0360
   1416.74988     644.1367     437.0359   1416.74988     644.1367     437.0359
   1416.73462     643.1066     436.7906   1416.73462     643.1066     436.7906
   1416.71936     643.4150     438.1432   1416.71936     643.4150     438.1432
   1416.70410     643.6493     438.7457   1416.70410     643.6493     438.7457
   1416.68884     644.0602     439.1092   1416.68884     644.0602     439.1092
   1416.67358     644.2484     439.9063   1416.67358     644.2484     439.9063
   1416.65833     643.1799     439.3211   1416.65833     643.1799     439.3211
   1416.64307     643.5948     441.1511   1416.64307     643.5948     441.1511
   1416.62781     644.1824     441.0909   1416.62781     644.1824     441.0909
   1416.61255     643.3962     441.4671   1416.61255     643.3962     441.4671
   1416.59729     643.2825     442.3032   1416.59729     643.2825     442.3032
   1416.58203     643.7435     442.2039   1416.58203     643.7435     442.2039
   1416.56677     643.1396     442.6218   1416.56677     643.1396     442.6218
   1416.55151     643.3412     443.4101   1416.55151     643.3412     443.4101
   1416.53625     642.7087     443.5374   1416.53625     642.7087     443.5374
   1416.52100     643.2748     443.8981   1416.52100     643.2748     443.8981
   1416.50574     642.3679     444.5171   1416.50574     642.3679     444.5171
   1416.49048     643.0410     445.2451   1416.49048     643.0410     445.2451
   1416.47522     642.3902     445.5139   1416.47522     642.3902     445.5139
   1416.45996     641.3730     445.0059   1416.45996     641.3730     445.0059
   1416.44470     641.0557     445.6669   1416.44470     641.0557     445.6669
   1416.42944     641.8176     445.9244   1416.42944     641.8176     445.9244
   1416.41418     640.8290     445.4937   1416.41418     640.8290     445.4937
   1416.39893     640.7341     446.2934   1416.39893     640.7341     446.2934
   1416.38367     640.8808     446.2723   1416.38367     640.8808     446.2723
   1416.36841     640.6059     446.6525   1416.36841     640.6059     446.6525
   1416.35315     639.7406     446.4308   1416.35315     639.7406     446.4308
   1416.33789     639.7867     448.1253   1416.33789     639.7867     448.1253
   1416.32263     638.0830     447.0207   1416.32263     638.0830     447.0207
   1416.30737     639.4127     447.2547   1416.30737     639.4127     447.2547
   1416.29211     638.9133     447.1020   1416.29211     638.9133     447.1020
   1416.27686     638.9448     447.0753   1416.27686     638.9448     447.0753
   1416.26160     638.1675     447.1317   1416.26160     638.1675     447.1317
   1416.24634     637.4948     447.3390   1416.24634     637.4948     447.3390
   1416.23108     637.4832     447.2483   1416.23108     637.4832     447.2483
   1416.21582     637.4106     447.1130   1416.21582     637.4106     447.1130
   1416.20056     636.1334     447.3128   1416.20056     636.1334     447.3128
   1416.18530     635.9083     447.5551   1416.18530     635.9083     447.5551
   1416.17004     635.3919     446.8035   1416.17004     635.3919     446.8035
   1416.15479     635.1198     447.2625   1416.15479     635.1198     447.2625
   1416.13953     634.8785     447.9711   1416.13953     634.8785     447.9711
   1416.12427     634.6737     447.6434   1416.12427     634.6737     447.6434
   1416.10901     632.9203     447.6905   1416.10901     632.9203     447.6905
   1416.09375     633.3190     446.9203   1416.09375     633.3190     446.9203
   1416.07849     630.8819     446.7504   1416.07849     630.8819     446.7504
   1416.06323     632.3634     447.5607   1416.06323     632.3634     447.5607
   1416.04797     631.7496     447.0800   1416.04797     631.7496     447.0800
   1416.03271     630.6545     447.0988   1416.03271     630.6545     447.0988
   1416.01746     630.9338     447.0394   1416.01746     630.9338     447.0394
   1416.00220     628.3387     446.5197   1416.00220     628.3387     446.5197
   1415.98694     629.9229     446.2036   1415.98694     629.9229     446.2036
   1415.97168     628.7042     446.4435   1415.97168     628.7042     446.4435
   1415.95642     628.5396     446.1049   1415.95642     628.5396     446.1049
   1415.94116     626.9449     445.7500   1415.94116     626.9449     445.7500
   1415.92590     626.2441     445.7830   1415.92590     626.2441     445.7830
   1415.91064     626.2286     445.7156   1415.91064     626.2286     445.7156
   1415.89539     626.0491     445.2091   1415.89539     626.0491     445.2091
   1415.88013     624.3658     446.0455   1415.88013     624.3658     446.0455
   1415.86487     624.1436     445.0908   1415.86487     624.1436     445.0908
   1415.84961     623.1834     445.5750   1415.84961     623.1834     445.5750
   1415.83435     623.1054     445.0052   1415.83435     623.1054     445.0052
   1415.81909     621.9499     444.7354   1415.81909     621.9499     444.7354
   1415.80383     620.2100     444.3737   1415.80383     620.2100     444.3737
   1415.78857     619.6758     444.2225   1415.78857     619.6758     444.2225
   1415.77332     619.8973     444.0764   1415.77332     619.8973     444.0764
   1415.75806     618.3505     443.1436   1415.75806     618.3505     443.1436
   1415.74280     618.1512     443.7327   1415.74280     618.1512     443.7327
   1415.72754     618.6907     443.5704   1415.72754     618.6907     443.5704
   1415.71228     617.6558     442.7141   1415.71228     617.6558     442.7141
   1415.69702     616.7103     442.7466   1415.69702     616.7103     442.7466
   1415.68176     615.8237     442.6068   1415.68176     615.8237     442.6068
   1415.66650     614.4572     441.8295   1415.66650     614.4572     441.8295
   1415.65125     614.4640     441.8521   1415.65125     614.4640     441.8521
   1415.63599     613.7243     441.1799   1415.63599     613.7243     441.1799
   1415.62073     612.9974     440.6865   1415.62073     612.9974     440.6865
   1415.60547     611.7465     440.8226   1415.60547     611.7465     440.8226
   1415.59021     611.2959     440.2308   1415.59021     611.2959     440.2308
   1415.57495     610.5165     440.2066   1415.57495     610.5165     440.2066
   1415.55969     610.1057     439.6895   1415.55969     610.1057     439.6895
   1415.54443     608.1675     440.1325   1415.54443     608.1675     440.1325
   1415.52917     608.4697     439.1881   1415.52917     608.4697     439.1881
   1415.51392     607.0484     438.6461   1415.51392     607.0484     438.6461
   1415.49866     606.2843     438.3106   1415.49866     606.2843     438.3106
   1415.48340     605.3954     437.7521   1415.48340     605.3954     437.7521
   1415.46814     604.6473     437.9164   1415.46814     604.6473     437.9164
   1415.45288     603.9407     437.6855   1415.45288     603.9407     437.6855
   1415.43762     603.1859     436.4261   1415.43762     603.1859     436.4261
   1415.42236     601.7815     436.2606   1415.42236     601.7815     436.2606
   1415.40710     600.6320     435.9349   1415.40710     600.6320     435.9349
   1415.39185     601.2162     435.7481   1415.39185     601.2162     435.7481
   1415.37659     600.1657     435.3633   1415.37659     600.1657     435.3633
   1415.36133     598.4052     434.7964   1415.36133     598.4052     434.7964
   1415.34607     597.7317     435.0036   1415.34607     597.7317     435.0036
   1415.33081     596.4733     434.7646   1415.33081     596.4733     434.7646
   1415.31555     594.8116     433.5533   1415.31555     594.8116     433.5533
   1415.30029     594.2813     432.6182   1415.30029     594.2813     432.6182
   1415.28503     593.5576     432.7993   1415.28503     593.5576     432.7993
   1415.26978     594.0976     432.3260   1415.26978     594.0976     432.3260
   1415.25452     590.9077     431.4651   1415.25452     590.9077     431.4651
   1415.23926     590.3223     431.6677   1415.23926     590.3223     431.6677
   1415.22400     590.0099     431.0215   1415.22400     590.0099     431.0215
   1415.20874     589.5333     430.3171   1415.20874     589.5333     430.3171
   1415.19348     587.5231     430.1945   1415.19348     587.5231     430.1945
   1415.17822     586.4593     429.6885   1415.17822     586.4593     429.6885
   1415.16296     585.9279     429.4256   1415.16296     585.9279     429.4256
   1415.14771     584.3878     429.1841   1415.14771     584.3878     429.1841
   1415.13245     583.8121     427.9703   1415.13245     583.8121     427.9703
   1415.11719     581.8243     427.1233   1415.11719     581.8243     427.1233
   1415.10193     581.6544     426.7826   1415.10193     581.6544     426.7826
   1415.08667     580.7396     426.3744   1415.08667     580.7396     426.3744
   1415.07141     578.5605     426.0421   1415.07141     578.5605     426.0421
   1415.05615     578.2023     425.5450   1415.05615     578.2023     425.5450
   1415.04089     576.9660     424.8261   1415.04089     576.9660     424.8261
   1415.02563     575.8482     424.3611   1415.02563     575.8482     424.3611
   1415.01038     575.0991     423.3810   1415.01038     575.0991     423.3810
   1414.99512     572.7344     423.2120   1414.99512     572.7344     423.2120
   1414.97986     570.1617     422.3502   1414.97986     570.1617     422.3502
   1414.96460     570.2756     421.8068   1414.96460     570.2756     421.8068
   1414.94934     570.0609     421.2788   1414.94934     570.0609     421.2788
   1414.93408     567.9267     420.9559   1414.93408     567.9267     420.9559
   1414.91882     566.5660     419.4684   1414.91882     566.5660     419.4684
   1414.90356     566.1469     419.1982   1414.90356     566.1469     419.1982
   1414.88831     564.4068     418.3022   1414.88831     564.4068     418.3022
   1414.87305     562.5991     417.3946   1414.87305     562.5991     417.3946
   1414.85779     562.6874     416.5328   1414.85779     562.6874     416.5328
   1414.84253     561.1029     417.2133   1414.84253     561.1029     417.2133
   1414.82727     558.7858     415.8014   1414.82727     558.7858     415.8014
   1414.81201     558.8085     414.4761   1414.81201     558.8085     414.4761
   1414.79675     556.9892     413.7102   1414.79675     556.9892     413.7102
   1414.78149     555.8655     413.0915   1414.78149     555.8655     413.0915
   1414.76624     554.2096     412.6429   1414.76624     554.2096     412.6429
   1414.75098     552.2999     411.7159   1414.75098     552.2999     411.7159
   1414.73572     551.4315     411.2165   1414.73572     551.4315     411.2165
   1414.72046     549.5650     410.5896   1414.72046     549.5650     410.5896
   1414.70520     548.3040     409.1285   1414.70520     548.3040     409.1285
   1414.68994     546.5339     409.4782   1414.68994     546.5339     409.4782
   1414.67468     544.8640     408.1405   1414.67468     544.8640     408.1405
   1414.65942     543.0306     407.6611   1414.65942     543.0306     407.6611
   1414.64417     542.3207     405.8367   1414.64417     542.3207     405.8367
   1414.62891     541.2386     405.5171   1414.62891     541.2386     405.5171
   1414.61365     538.9183     404.8029   1414.61365     538.9183     404.8029
   1414.59839     537.9789     403.8856   1414.59839     537.9789     403.8856
   1414.58313     536.0334     402.5943   1414.58313     536.0334     402.5943
   1414.56787     533.7209     401.6085   1414.56787     533.7209     401.6085
   1414.55261     532.4935     400.3514   1414.55261     532.4935     400.3514
   1414.53735     531.7579     399.4650   1414.53735     531.7579     399.4650
   1414.52209     530.0749     398.9519   1414.52209     530.0749     398.9519
   1414.50684     528.3196     397.4880   1414.50684     528.3196     397.4880
   1414.49158     526.1151     396.9266   1414.49158     526.1151     396.9266
   1414.47632     524.4427     396.3233   1414.47632     524.4427     396.3233
   1414.46106     523.5987     395.0665   1414.46106     523.5987     395.0665
   1414.44580     521.7505     394.2767   1414.44580     521.7505     394.2767
   1414.43054     520.0392     392.5350   1414.43054     520.0392     392.5350
   1414.41528     518.0890     392.0925   1414.41528     518.0890     392.0925
   1414.40002     516.6218     390.5390   1414.40002     516.6218     390.5390
   1414.38477     514.8591     389.6398   1414.38477     514.8591     389.6398
   1414.36951     512.6006     388.5654   1414.36951     512.6006     388.5654
   1414.35425     511.2449     387.4125   1414.35425     511.2449     387.4125
   1414.33899     508.5503     386.3071   1414.33899     508.5503     386.3071
   1414.32373     506.5716     385.5981   1414.32373     506.5716     385.5981
   1414.30847     505.5882     384.4423   1414.30847     505.5882     384.4423
   1414.29321     504.2644     383.0273   1414.29321     504.2644     383.0273
   1414.27795     501.7415     381.6395   1414.27795     501.7415     381.6395
   1414.26270     499.4420     381.0096   1414.26270     499.4420     381.0096
   1414.24744     497.4858     379.5296   1414.24744     497.4858     379.5296
   1414.23218     496.4117     378.7742   1414.23218     496.4117     378.7742
   1414.21692     494.5450     377.6633   1414.21692     494.5450     377.6633
   1414.20166     492.1011     376.9939   1414.20166     492.1011     376.9939
   1414.18640     491.2873     375.3205   1414.18640     491.2873     375.3205
   1414.17114     489.0057     374.1007   1414.17114     489.0057     374.1007
   1414.15588     485.7802     371.9565   1414.15588     485.7802     371.9565
   1414.14062     483.4118     371.1442   1414.14062     483.4118     371.1442
   1414.12537     482.4082     369.9704   1414.12537     482.4082     369.9704
   1414.11011     481.4324     368.7138   1414.11011     481.4324     368.7138
   1414.09485     479.0156     367.7354   1414.09485     479.0156     367.7354
   1414.07959     477.1190     366.7720   1414.07959     477.1190     366.7720
   1414.06433     475.0464     365.1656   1414.06433     475.0464     365.1656
   1414.04907     472.1912     364.2943   1414.04907     472.1912     364.2943
   1414.03381     470.5700     362.8851   1414.03381     470.5700     362.8851
   1414.01855     469.2435     361.6051   1414.01855     469.2435     361.6051
   1414.00330     487.2338     368.0039   1414.00330     487.2338     368.0039
   1413.98804     466.0204     359.0555   1413.98804     466.0204     359.0555
   1413.97278     462.0693     357.6116   1413.97278     462.0693     357.6116
   1413.95752     460.8880     356.3958   1413.95752     460.8880     356.3958
   1413.94226     458.7602     354.6149   1413.94226     458.7602     354.6149
   1413.92700     456.3809     353.4666   1413.92700     456.3809     353.4666
   1413.91174     454.1709     351.9921   1413.91174     454.1709     351.9921
   1413.89648     451.8507     350.6849   1413.89648     451.8507     350.6849
   1413.88123     450.5035     349.2946   1413.88123     450.5035     349.2946
   1413.86597     448.4119     348.1924   1413.86597     448.4119     348.1924
   1413.85071     445.5086     346.4781   1413.85071     445.5086     346.4781
   1413.83545     442.5698     345.9463   1413.83545     442.5698     345.9463
   1413.82019     441.4545     343.9104   1413.82019     441.4545     343.9104
   1413.80493     438.9894     342.7824   1413.80493     438.9894     342.7824
   1413.78967     437.0893     341.4841   1413.78967     437.0893     341.4841
   1413.77441     434.6739     339.6303   1413.77441     434.6739     339.6303
   1413.75916     432.2546     338.7092   1413.75916     432.2546     338.7092
   1413.74390     431.0311     337.3244   1413.74390     431.0311     337.3244
   1413.72864     428.0257     335.8489   1413.72864     428.0257     335.8489
   1413.71338     426.9930     334.1341   1413.71338     426.9930     334.1341
   1413.69812     424.2394     333.0105   1413.69812     424.2394     333.0105
   1413.68286     421.7104     331.2643   1413.68286     421.7104     331.2643
   1413.66760     420.0141     329.9554   1413.66760     420.0141     329.9554
   1413.65234     417.8116     329.3125   1413.65234     417.8116     329.3125
   1413.63708     415.6784     327.6449   1413.63708     415.6784     327.6449
   1413.62183     413.1170     325.9913   1413.62183     413.1170     325.9913
   1413.60657     411.3917     324.5471   1413.60657     411.3917     324.5471
   1413.59131     408.8970     322.9604   1413.59131     408.8970     322.9604
   1413.57605     407.2102     321.8931   1413.57605     407.2102     321.8931
   1413.56079     405.0839     321.0909   1413.56079     405.0839     321.0909
   1413.54553     403.3489     319.4335   1413.54553     403.3489     319.4335
   1413.53027     400.9151     317.9286   1413.53027     400.9151     317.9286
   1413.51501     398.6836     316.5098   1413.51501     398.6836     316.5098
   1413.49976     396.3799     315.1319   1413.49976     396.3799     315.1319
   1413.48450     393.9281     313.8322   1413.48450     393.9281     313.8322
   1413.46924     392.3246     312.6804   1413.46924     392.3246     312.6804
   1413.45398     390.0867     311.3952   1413.45398     390.0867     311.3952
   1413.43872     387.8637     309.6144   1413.43872     387.8637     309.6144
   1413.42346     385.6853     308.9114   1413.42346     385.6853     308.9114
   1413.40820     383.5587     307.6223   1413.40820     383.5587     307.6223
   1413.39294     381.1180     305.9168   1413.39294     381.1180     305.9168
   1413.37769     379.8878     304.3361   1413.37769     379.8878     304.3361
   1413.36243     377.6295     303.4864   1413.36243     377.6295     303.4864
   1413.34717     375.8089     302.6769   1413.34717     375.8089     302.6769
   1413.33191     374.0306     300.9750   1413.33191     374.0306     300.9750
   1413.31665     371.6218     300.2168   1413.31665     371.6218     300.2168
   1413.30139     369.3457     298.5135   1413.30139     369.3457     298.5135
   1413.28613     368.0019     297.8037   1413.28613     368.0019     297.8037
   1413.27087     365.5232     296.4222   1413.27087     365.5232     296.4222
   1413.25562     364.3599     295.3290   1413.25562     364.3599     295.3290
   1413.24036     361.5275     294.3206   1413.24036     361.5275     294.3206
   1413.22510     359.3477     292.8064   1413.22510     359.3477     292.8064
   1413.20984     358.6383     292.1315   1413.20984     358.6383     292.1315
   1413.19458     356.7698     290.9433   1413.19458     356.7698     290.9433
   1413.17932     355.2130     289.5978   1413.17932     355.2130     289.5978
   1413.16406     352.6989     288.2352   1413.16406     352.6989     288.2352
   1413.14880     350.7332     287.7064   1413.14880     350.7332     287.7064
   1413.13354     349.3419     286.3757   1413.13354     349.3419     286.3757
   1413.11829     347.9754     285.2612   1413.11829     347.9754     285.2612
   1413.10303     345.5008     284.6499   1413.10303     345.5008     284.6499
   1413.08777     343.9156     283.9671   1413.08777     343.9156     283.9671
   1413.07251     342.5592     282.4899   1413.07251     342.5592     282.4899
   1413.05725     340.7000     282.3159   1413.05725     340.7000     282.3159
   1413.04199     339.7120     280.6984   1413.04199     339.7120     280.6984
   1413.02673     337.6440     280.1079   1413.02673     337.6440     280.1079
   1413.01147     335.5980     279.0413   1413.01147     335.5980     279.0413
   1412.99622     334.1776     278.7145   1412.99622     334.1776     278.7145
   1412.98096     332.8075     277.8586   1412.98096     332.8075     277.8586
   1412.96570     330.9673     276.7890   1412.96570     330.9673     276.7890
   1412.95044     329.9430     276.2022   1412.95044     329.9430     276.2022
   1412.93518     327.7543     275.6013   1412.93518     327.7543     275.6013
   1412.91992     326.8165     275.1581   1412.91992     326.8165     275.1581
   1412.90466     325.5828     274.5782   1412.90466     325.5828     274.5782
   1412.88940     324.3740     273.3984   1412.88940     324.3740     273.3984
   1412.87415     323.3308     273.5464   1412.87415     323.3308     273.5464
   1412.85889     321.4634     272.8510   1412.85889     321.4634     272.8510
   1412.84363     320.3044     272.0318   1412.84363     320.3044     272.0318
   1412.82837     319.3071     271.5094   1412.82837     319.3071     271.5094
   1412.81311     317.8683     271.2244   1412.81311     317.8683     271.2244
   1412.79785     316.8299     270.7386   1412.79785     316.8299     270.7386
   1412.78259     315.6819     270.4805   1412.78259     315.6819     270.4805
   1412.76733     314.9753     270.4840   1412.76733     314.9753     270.4840
   1412.75208     313.4244     269.7099   1412.75208     313.4244     269.7099
   1412.73682     312.6173     269.4101   1412.73682     312.6173     269.4101
   1412.72156     311.7864     269.4912   1412.72156     311.7864     269.4912
   1412.70630     310.3946     269.4300   1412.70630     310.3946     269.4300
   1412.69104     309.5682     269.1448   1412.69104     309.5682     269.1448
   1412.67578     309.3137     268.6422   1412.67578     309.3137     268.6422
   1412.66052     308.1847     268.6709   1412.66052     308.1847     268.6709
   1412.64526     307.7591     268.6353   1412.64526     307.7591     268.6353
   1412.63000     306.4359     268.1859   1412.63000     306.4359     268.1859
   1412.61475     305.7074     268.3860   1412.61475     305.7074     268.3860
   1412.59949     305.1306     268.6986   1412.59949     305.1306     268.6986
   1412.58423     304.5215     268.7588   1412.58423     304.5215     268.7588
   1412.56897     304.2389     268.8948   1412.56897     304.2389     268.8948
   1412.55371     303.8494     269.0070   1412.55371     303.8494     269.0070
   1412.53845     302.8590     269.4728   1412.53845     302.8590     269.4728
   1412.52319     302.6317     269.4142   1412.52319     302.6317     269.4142
   1412.50793     301.8011     270.0472   1412.50793     301.8011     270.0472
   1412.49268     301.3498     269.7378   1412.49268     301.3498     269.7378
   1412.47742     301.1118     270.5744   1412.47742     301.1118     270.5744
   1412.46216     300.9922     270.9046   1412.46216     300.9922     270.9046
   1412.44690     300.4758     271.3567   1412.44690     300.4758     271.3567
   1412.43164     300.1096     271.4060   1412.43164     300.1096     271.4060
   1412.41638     299.6273     272.4569   1412.41638     299.6273     272.4569
   1412.40112     299.7576     272.9042   1412.40112     299.7576     272.9042
   1412.38586     299.7634     273.0265   1412.38586     299.7634     273.0265
   1412.37061     300.0768     273.9420   1412.37061     300.0768     273.9420
   1412.35535     300.0873     274.2617   1412.35535     300.0873     274.2617
   1412.34009     299.8835     274.9933   1412.34009     299.8835     274.9933
   1412.32483     299.6265     275.8198   1412.32483     299.6265     275.8198
   1412.30957     299.9498     276.6664   1412.30957     299.9498     276.6664
   1412.29431     299.8660     276.9962   1412.29431     299.8660     276.9962
   1412.27905     300.3445     277.7575   1412.27905     300.3445     277.7575
   1412.26379     301.1968     278.8350   1412.26379     301.1968     278.8350
   1412.24854     301.5447     279.8585   1412.24854     301.5447     279.8585
   1412.23328     301.7180     280.6637   1412.23328     301.7180     280.6637
   1412.21802     300.8732     281.8680   1412.21802     300.8732     281.8680
   1412.20276     301.8831     282.9580   1412.20276     301.8831     282.9580