#     FILENAME=!Skynet_57528_lach-cc-222_20636_21036.cyb.fits
#     BASENAME=Skynet_57528_lach-cc-222_20636_21036
#     SRC_NAME=lach-cc-222
#     OBSERVER=ccmadison16_9505
#     DATE_OBS=2016-05-20T19:48:17.870
#        OBSID=20636
#      SCANNUM=21036
#          MJD=57528.8263
#          UTC=71387
#     SCANTYPE=track
#     DATAMODE=HIRES
#     TUNEFREQ=1420.0000
# Actual_FREQ1=1420.0000
# Actual_FREQ2=1420.0000
#    LO1Tuning=6870.000
#     RFFILTER=1355_1435
#        OBSBW=-15.6250
#        NCHAN=1024 
#        FOCUS=37.0709
#           RA=07:08:04.78
#          DEC=-08:03:48.95
#      RA(hrs)=7.134700
#     DEC(deg)=-8.063600
#    AZIM(deg)=164.558
#    ELEV(deg)=42.187
#     IFattens=10.00, 9.00
#      WARNING=None
#    TCAL_XL1=7.9635
#    TCAL_YR1=9.1340
#    TCAL_XL2=7.9635
#    TCAL_YR2=9.1340
#     TRX_XL1=11.7060
#     TRX_YR1=11.7060
#     TRX_XL2=11.7060
#     TRX_YR2=11.7060
#        TAVE=1.0000
#Freq1(MHz)          XL1          YR1  Freq2(MHz)          XL2          YR2 

   1427.81250     354.7953     267.6347   1427.81250     354.7953     267.6347
   1427.79724     355.3412     268.3992   1427.79724     355.3412     268.3992
   1427.78198     356.4936     269.2220   1427.78198     356.4936     269.2220
   1427.76672     356.4731     269.9125   1427.76672     356.4731     269.9125
   1427.75146     357.0905     269.4299   1427.75146     357.0905     269.4299
   1427.73621     357.9222     270.5617   1427.73621     357.9222     270.5617
   1427.72095     358.7892     271.0355   1427.72095     358.7892     271.0355
   1427.70569     360.6913     271.9986   1427.70569     360.6913     271.9986
   1427.69043     360.7715     272.0997   1427.69043     360.7715     272.0997
   1427.67517     361.9092     273.6080   1427.67517     361.9092     273.6080
   1427.65991     363.2693     274.2475   1427.65991     363.2693     274.2475
   1427.64465     364.6446     274.9514   1427.64465     364.6446     274.9514
   1427.62939     365.7314     275.8762   1427.62939     365.7314     275.8762
   1427.61414     366.8051     276.5511   1427.61414     366.8051     276.5511
   1427.59888     368.2527     277.9279   1427.59888     368.2527     277.9279
   1427.58362     369.4339     279.1580   1427.58362     369.4339     279.1580
   1427.56836     370.9168     279.7730   1427.56836     370.9168     279.7730
   1427.55310     372.6254     280.9908   1427.55310     372.6254     280.9908
   1427.53784     374.1937     281.7753   1427.53784     374.1937     281.7753
   1427.52258     375.4985     283.1772   1427.52258     375.4985     283.1772
   1427.50732     376.4402     284.4532   1427.50732     376.4402     284.4532
   1427.49207     379.0434     285.6630   1427.49207     379.0434     285.6630
   1427.47681     380.7600     286.8398   1427.47681     380.7600     286.8398
   1427.46155     382.0636     288.2758   1427.46155     382.0636     288.2758
   1427.44629     383.7004     289.2977   1427.44629     383.7004     289.2977
   1427.43103     385.4622     290.5098   1427.43103     385.4622     290.5098
   1427.41577     387.1626     292.2413   1427.41577     387.1626     292.2413
   1427.40051     389.1989     293.9280   1427.40051     389.1989     293.9280
   1427.38525     390.8548     294.5844   1427.38525     390.8548     294.5844
   1427.37000     392.6602     296.0404   1427.37000     392.6602     296.0404
   1427.35474     395.6614     297.9982   1427.35474     395.6614     297.9982
   1427.33948     396.6191     299.6545   1427.33948     396.6191     299.6545
   1427.32422     398.7371     300.9629   1427.32422     398.7371     300.9629
   1427.30896     401.1499     302.7278   1427.30896     401.1499     302.7278
   1427.29370     403.1286     304.4217   1427.29370     403.1286     304.4217
   1427.27844     405.2383     306.0435   1427.27844     405.2383     306.0435
   1427.26318     407.5030     307.6075   1427.26318     407.5030     307.6075
   1427.24792     409.8765     309.7209   1427.24792     409.8765     309.7209
   1427.23267     412.3260     310.8549   1427.23267     412.3260     310.8549
   1427.21741     413.8111     313.3402   1427.21741     413.8111     313.3402
   1427.20215     416.3165     314.5171   1427.20215     416.3165     314.5171
   1427.18689     419.6087     316.9730   1427.18689     419.6087     316.9730
   1427.17163     421.3944     318.8757   1427.17163     421.3944     318.8757
   1427.15637     423.6338     321.1229   1427.15637     423.6338     321.1229
   1427.14111     425.5070     322.5252   1427.14111     425.5070     322.5252
   1427.12585     428.2734     324.2107   1427.12585     428.2734     324.2107
   1427.11060     431.6541     326.8806   1427.11060     431.6541     326.8806
   1427.09534     433.8537     328.2558   1427.09534     433.8537     328.2558
   1427.08008     436.0118     330.9622   1427.08008     436.0118     330.9622
   1427.06482     439.2313     332.9775   1427.06482     439.2313     332.9775
   1427.04956     440.9950     334.7977   1427.04956     440.9950     334.7977
   1427.03430     443.1112     337.0631   1427.03430     443.1112     337.0631
   1427.01904     446.5697     339.1789   1427.01904     446.5697     339.1789
   1427.00378     448.8026     341.2659   1427.00378     448.8026     341.2659
   1426.98853     450.7050     343.2409   1426.98853     450.7050     343.2409
   1426.97327     454.1886     345.6352   1426.97327     454.1886     345.6352
   1426.95801     457.3076     347.9993   1426.95801     457.3076     347.9993
   1426.94275     459.4941     350.2962   1426.94275     459.4941     350.2962
   1426.92749     462.2923     352.5531   1426.92749     462.2923     352.5531
   1426.91223     464.7709     354.5442   1426.91223     464.7709     354.5442
   1426.89697     467.7565     357.2474   1426.89697     467.7565     357.2474
   1426.88171     470.2035     359.5285   1426.88171     470.2035     359.5285
   1426.86646     473.1812     361.8427   1426.86646     473.1812     361.8427
   1426.85120     475.0186     363.6147   1426.85120     475.0186     363.6147
   1426.83594     478.3201     366.2489   1426.83594     478.3201     366.2489
   1426.82068     481.4214     368.9748   1426.82068     481.4214     368.9748
   1426.80542     483.8863     371.4074   1426.80542     483.8863     371.4074
   1426.79016     486.3725     373.5276   1426.79016     486.3725     373.5276
   1426.77490     489.3663     375.7477   1426.77490     489.3663     375.7477
   1426.75964     491.9419     377.9568   1426.75964     491.9419     377.9568
   1426.74438     494.8366     380.6954   1426.74438     494.8366     380.6954
   1426.72913     497.3034     383.3481   1426.72913     497.3034     383.3481
   1426.71387     500.4345     385.5228   1426.71387     500.4345     385.5228
   1426.69861     502.6579     387.9052   1426.69861     502.6579     387.9052
   1426.68335     506.0705     390.0013   1426.68335     506.0705     390.0013
   1426.66809     507.9869     392.7157   1426.66809     507.9869     392.7157
   1426.65283     510.8745     395.3977   1426.65283     510.8745     395.3977
   1426.63757     514.0161     398.4490   1426.63757     514.0161     398.4490
   1426.62231     519.9152     401.6572   1426.62231     519.9152     401.6572
   1426.60706     520.0728     402.4713   1426.60706     520.0728     402.4713
   1426.59180     521.7606     405.3287   1426.59180     521.7606     405.3287
   1426.57654     525.0029     408.1098   1426.57654     525.0029     408.1098
   1426.56128     528.2059     410.1630   1426.56128     528.2059     410.1630
   1426.54602     529.7679     412.5350   1426.54602     529.7679     412.5350
   1426.53076     533.6348     416.0740   1426.53076     533.6348     416.0740
   1426.51550     536.2610     417.9623   1426.51550     536.2610     417.9623
   1426.50024     539.2956     420.8632   1426.50024     539.2956     420.8632
   1426.48499     542.2213     423.8938   1426.48499     542.2213     423.8938
   1426.46973     543.7928     425.5202   1426.46973     543.7928     425.5202
   1426.45447     546.5886     427.7920   1426.45447     546.5886     427.7920
   1426.43921     549.6179     430.8810   1426.43921     549.6179     430.8810
   1426.42395     552.4547     433.4166   1426.42395     552.4547     433.4166
   1426.40869     554.6161     435.8420   1426.40869     554.6161     435.8420
   1426.39343     558.6351     438.4343   1426.39343     558.6351     438.4343
   1426.37817     560.9366     440.9768   1426.37817     560.9366     440.9768
   1426.36292     562.8552     444.0195   1426.36292     562.8552     444.0195
   1426.34766     565.6985     445.7267   1426.34766     565.6985     445.7267
   1426.33240     566.4523     448.0362   1426.33240     566.4523     448.0362
   1426.31714     570.6776     450.9550   1426.31714     570.6776     450.9550
   1426.30188     572.6545     453.7528   1426.30188     572.6545     453.7528
   1426.28662     574.9526     456.6513   1426.28662     574.9526     456.6513
   1426.27136     577.6028     458.9880   1426.27136     577.6028     458.9880
   1426.25610     579.5021     461.9727   1426.25610     579.5021     461.9727
   1426.24084     582.8775     464.9680   1426.24084     582.8775     464.9680
   1426.22559     585.4407     466.5046   1426.22559     585.4407     466.5046
   1426.21033     588.0269     469.6874   1426.21033     588.0269     469.6874
   1426.19507     590.7004     471.6092   1426.19507     590.7004     471.6092
   1426.17981     592.8229     474.6086   1426.17981     592.8229     474.6086
   1426.16455     594.2847     476.7310   1426.16455     594.2847     476.7310
   1426.14929     596.5038     479.5249   1426.14929     596.5038     479.5249
   1426.13403     600.5966     481.8340   1426.13403     600.5966     481.8340
   1426.11877     601.4149     484.5250   1426.11877     601.4149     484.5250
   1426.10352     603.2292     486.1240   1426.10352     603.2292     486.1240
   1426.08826     606.2877     488.7602   1426.08826     606.2877     488.7602
   1426.07300     608.2792     490.6935   1426.07300     608.2792     490.6935
   1426.05774     610.5636     493.6700   1426.05774     610.5636     493.6700
   1426.04248     612.0516     496.1528   1426.04248     612.0516     496.1528
   1426.02722     614.1591     499.1701   1426.02722     614.1591     499.1701
   1426.01196     617.0134     501.5082   1426.01196     617.0134     501.5082
   1425.99670     618.1650     503.1581   1425.99670     618.1650     503.1581
   1425.98145     620.7776     505.5506   1425.98145     620.7776     505.5506
   1425.96619     622.6191     508.9797   1425.96619     622.6191     508.9797
   1425.95093     624.0648     511.1758   1425.95093     624.0648     511.1758
   1425.93567     627.9144     512.4404   1425.93567     627.9144     512.4404
   1425.92041     629.4665     515.0807   1425.92041     629.4665     515.0807
   1425.90515     630.5949     517.3486   1425.90515     630.5949     517.3486
   1425.88989     633.3314     519.7434   1425.88989     633.3314     519.7434
   1425.87463     635.5243     521.7838   1425.87463     635.5243     521.7838
   1425.85938     636.1552     524.8898   1425.85938     636.1552     524.8898
   1425.84412     638.7236     526.0883   1425.84412     638.7236     526.0883
   1425.82886     640.5076     528.1627   1425.82886     640.5076     528.1627
   1425.81360     642.6245     532.1080   1425.81360     642.6245     532.1080
   1425.79834     643.8949     533.2812   1425.79834     643.8949     533.2812
   1425.78308     644.7985     536.4354   1425.78308     644.7985     536.4354
   1425.76782     647.3285     538.4545   1425.76782     647.3285     538.4545
   1425.75256     649.6943     539.9340   1425.75256     649.6943     539.9340
   1425.73730     650.6129     541.9350   1425.73730     650.6129     541.9350
   1425.72205     653.3130     544.5541   1425.72205     653.3130     544.5541
   1425.70679     655.1489     546.8200   1425.70679     655.1489     546.8200
   1425.69153     655.6262     548.2321   1425.69153     655.6262     548.2321
   1425.67627     656.1791     550.6854   1425.67627     656.1791     550.6854
   1425.66101     658.6385     552.9798   1425.66101     658.6385     552.9798
   1425.64575     659.4301     554.4951   1425.64575     659.4301     554.4951
   1425.63049     660.9861     556.9783   1425.63049     660.9861     556.9783
   1425.61523     663.2241     558.5135   1425.61523     663.2241     558.5135
   1425.59998     664.3317     561.4583   1425.59998     664.3317     561.4583
   1425.58472     665.2881     562.3873   1425.58472     665.2881     562.3873
   1425.56946     666.6302     564.5842   1425.56946     666.6302     564.5842
   1425.55420     668.2070     566.9207   1425.55420     668.2070     566.9207
   1425.53894     669.1920     568.6611   1425.53894     669.1920     568.6611
   1425.52368     670.6492     570.6249   1425.52368     670.6492     570.6249
   1425.50842     671.2875     572.9823   1425.50842     671.2875     572.9823
   1425.49316     672.8574     575.0107   1425.49316     672.8574     575.0107
   1425.47791     674.0865     575.7972   1425.47791     674.0865     575.7972
   1425.46265     676.1533     577.3032   1425.46265     676.1533     577.3032
   1425.44739     677.1146     580.2118   1425.44739     677.1146     580.2118
   1425.43213     678.1481     582.2729   1425.43213     678.1481     582.2729
   1425.41687     679.5034     584.6774   1425.41687     679.5034     584.6774
   1425.40161     680.1079     584.9545   1425.40161     680.1079     584.9545
   1425.38635     681.0183     587.3758   1425.38635     681.0183     587.3758
   1425.37109     681.8343     588.9479   1425.37109     681.8343     588.9479
   1425.35583     682.8672     589.5386   1425.35583     682.8672     589.5386
   1425.34058     682.1688     592.2141   1425.34058     682.1688     592.2141
   1425.32532     685.0593     594.1692   1425.32532     685.0593     594.1692
   1425.31006     685.3781     594.7791   1425.31006     685.3781     594.7791
   1425.29480     686.8560     597.0597   1425.29480     686.8560     597.0597
   1425.27954     687.2914     598.8298   1425.27954     687.2914     598.8298
   1425.26428     687.8716     600.2725   1425.26428     687.8716     600.2725
   1425.24902     689.8350     602.3600   1425.24902     689.8350     602.3600
   1425.23376     689.9720     603.7911   1425.23376     689.9720     603.7911
   1425.21851     691.3386     604.5035   1425.21851     691.3386     604.5035
   1425.20325     691.6675     606.7346   1425.20325     691.6675     606.7346
   1425.18799     692.0002     608.5994   1425.18799     692.0002     608.5994
   1425.17273     691.8196     609.9947   1425.17273     691.8196     609.9947
   1425.15747     693.3691     611.8391   1425.15747     693.3691     611.8391
   1425.14221     694.4095     611.9920   1425.14221     694.4095     611.9920
   1425.12695     694.7885     614.4314   1425.12695     694.7885     614.4314
   1425.11169     695.8698     615.4672   1425.11169     695.8698     615.4672
   1425.09644     695.4269     616.3020   1425.09644     695.4269     616.3020
   1425.08118     696.5616     616.8414   1425.08118     696.5616     616.8414
   1425.06592     697.9946     619.4155   1425.06592     697.9946     619.4155
   1425.05066     698.1923     621.2872   1425.05066     698.1923     621.2872
   1425.03540     697.4772     622.2401   1425.03540     697.4772     622.2401
   1425.02014     698.6973     623.2316   1425.02014     698.6973     623.2316
   1425.00488     697.8674     624.7800   1425.00488     697.8674     624.7800
   1424.98962     700.1808     626.1586   1424.98962     700.1808     626.1586
   1424.97437     699.9550     627.4379   1424.97437     699.9550     627.4379
   1424.95911     700.4707     629.1912   1424.95911     700.4707     629.1912
   1424.94385     700.2664     628.8645   1424.94385     700.2664     628.8645
   1424.92859     701.0161     630.3278   1424.92859     701.0161     630.3278
   1424.91333     701.9727     631.7875   1424.91333     701.9727     631.7875
   1424.89807     702.3297     632.1034   1424.89807     702.3297     632.1034
   1424.88281     702.7000     633.2007   1424.88281     702.7000     633.2007
   1424.86755     702.6390     635.3023   1424.86755     702.6390     635.3023
   1424.85229     703.5844     637.1090   1424.85229     703.5844     637.1090
   1424.83704     703.6599     637.1755   1424.83704     703.6599     637.1755
   1424.82178     703.5039     638.2496   1424.82178     703.5039     638.2496
   1424.80652     703.0632     638.9167   1424.80652     703.0632     638.9167
   1424.79126     703.8876     640.4986   1424.79126     703.8876     640.4986
   1424.77600     703.6791     641.4782   1424.77600     703.6791     641.4782
   1424.76074     703.9062     642.0734   1424.76074     703.9062     642.0734
   1424.74548     704.6349     642.4716   1424.74548     704.6349     642.4716
   1424.73022     703.8875     644.0345   1424.73022     703.8875     644.0345
   1424.71497     704.9319     644.9478   1424.71497     704.9319     644.9478
   1424.69971     705.3284     645.5192   1424.69971     705.3284     645.5192
   1424.68445     706.2389     648.1249   1424.68445     706.2389     648.1249
   1424.66919     705.0574     648.0079   1424.66919     705.0574     648.0079
   1424.65393     706.1926     648.1592   1424.65393     706.1926     648.1592
   1424.63867     706.5043     648.4825   1424.63867     706.5043     648.4825
   1424.62341     705.2169     649.8302   1424.62341     705.2169     649.8302
   1424.60815     706.1492     650.6589   1424.60815     706.1492     650.6589
   1424.59290     705.2241     652.0474   1424.59290     705.2241     652.0474
   1424.57764     707.1340     651.3247   1424.57764     707.1340     651.3247
   1424.56238     706.4771     653.2372   1424.56238     706.4771     653.2372
   1424.54712     707.0850     653.8208   1424.54712     707.0850     653.8208
   1424.53186     705.1360     653.8638   1424.53186     705.1360     653.8638
   1424.51660     706.7177     654.3545   1424.51660     706.7177     654.3545
   1424.50134     706.8267     656.5614   1424.50134     706.8267     656.5614
   1424.48608     705.9365     655.2096   1424.48608     705.9365     655.2096
   1424.47083     707.1157     656.9532   1424.47083     707.1157     656.9532
   1424.45557     705.5881     655.9396   1424.45557     705.5881     655.9396
   1424.44031     706.5312     657.7823   1424.44031     706.5312     657.7823
   1424.42505     706.2193     657.7357   1424.42505     706.2193     657.7357
   1424.40979     707.6516     658.0391   1424.40979     707.6516     658.0391
   1424.39453     706.1715     658.8684   1424.39453     706.1715     658.8684
   1424.37927     706.7610     659.3029   1424.37927     706.7610     659.3029
   1424.36401     705.4077     660.1172   1424.36401     705.4077     660.1172
   1424.34875     706.8735     659.9820   1424.34875     706.8735     659.9820
   1424.33350     705.2085     659.9371   1424.33350     705.2085     659.9371
   1424.31824     705.5972     659.5978   1424.31824     705.5972     659.5978
   1424.30298     704.7587     660.4863   1424.30298     704.7587     660.4863
   1424.28772     705.5036     662.1221   1424.28772     705.5036     662.1221
   1424.27246     705.7948     661.8748   1424.27246     705.7948     661.8748
   1424.25720     705.8995     662.0798   1424.25720     705.8995     662.0798
   1424.24194     705.2823     661.9147   1424.24194     705.2823     661.9147
   1424.22668     705.1906     662.5038   1424.22668     705.1906     662.5038
   1424.21143     704.0381     662.6921   1424.21143     704.0381     662.6921
   1424.19617     705.6155     663.7330   1424.19617     705.6155     663.7330
   1424.18091     704.5747     662.8727   1424.18091     704.5747     662.8727
   1424.16565     703.8091     664.3354   1424.16565     703.8091     664.3354
   1424.15039     704.7032     663.5163   1424.15039     704.7032     663.5163
   1424.13513     704.4406     664.2637   1424.13513     704.4406     664.2637
   1424.11987     703.9451     664.0649   1424.11987     703.9451     664.0649
   1424.10461     704.0923     664.5389   1424.10461     704.0923     664.5389
   1424.08936     705.0674     664.7975   1424.08936     705.0674     664.7975
   1424.07410     703.1846     664.6966   1424.07410     703.1846     664.6966
   1424.05884     704.2006     664.7502   1424.05884     704.2006     664.7502
   1424.04358     704.8678     664.9503   1424.04358     704.8678     664.9503
   1424.02832     703.9156     664.0663   1424.02832     703.9156     664.0663
   1424.01306     703.7594     664.7459   1424.01306     703.7594     664.7459
   1423.99780     702.7867     664.6146   1423.99780     702.7867     664.6146
   1423.98254     703.2155     663.9917   1423.98254     703.2155     663.9917
   1423.96729     702.7677     664.2099   1423.96729     702.7677     664.2099
   1423.95203     701.9454     663.5007   1423.95203     701.9454     663.5007
   1423.93677     702.8557     663.4581   1423.93677     702.8557     663.4581
   1423.92151     702.0795     663.1081   1423.92151     702.0795     663.1081
   1423.90625     701.3645     663.3263   1423.90625     701.3645     663.3263
   1423.89099     702.2667     663.9665   1423.89099     702.2667     663.9665
   1423.87573     701.5298     663.8522   1423.87573     701.5298     663.8522
   1423.86047     700.5298     664.5267   1423.86047     700.5298     664.5267
   1423.84521     701.5689     663.4082   1423.84521     701.5689     663.4082
   1423.82996     701.5640     661.8032   1423.82996     701.5640     661.8032
   1423.81470     700.7448     662.0945   1423.81470     700.7448     662.0945
   1423.79944     700.7539     660.6929   1423.79944     700.7539     660.6929
   1423.78418     700.5889     662.0859   1423.78418     700.5889     662.0859
   1423.76892     698.4910     662.5203   1423.76892     698.4910     662.5203
   1423.75366     699.9449     661.2962   1423.75366     699.9449     661.2962
   1423.73840     700.1269     661.0960   1423.73840     700.1269     661.0960
   1423.72314     699.9030     659.8000   1423.72314     699.9030     659.8000
   1423.70789     699.5884     660.4836   1423.70789     699.5884     660.4836
   1423.69263     699.2084     658.9026   1423.69263     699.2084     658.9026
   1423.67737     698.1699     658.9225   1423.67737     698.1699     658.9225
   1423.66211     699.7132     658.0358   1423.66211     699.7132     658.0358
   1423.64685     699.0922     659.5887   1423.64685     699.0922     659.5887
   1423.63159     697.7708     657.6758   1423.63159     697.7708     657.6758
   1423.61633     697.9166     657.0402   1423.61633     697.9166     657.0402
   1423.60107     697.6023     656.3375   1423.60107     697.6023     656.3375
   1423.58582     697.6126     655.9415   1423.58582     697.6126     655.9415
   1423.57056     696.9626     655.5989   1423.57056     696.9626     655.5989
   1423.55530     696.5739     654.2762   1423.55530     696.5739     654.2762
   1423.54004     697.5696     654.6343   1423.54004     697.5696     654.6343
   1423.52478     697.8923     653.0807   1423.52478     697.8923     653.0807
   1423.50952     697.1370     653.1760   1423.50952     697.1370     653.1760
   1423.49426     698.1708     652.9374   1423.49426     698.1708     652.9374
   1423.47900     695.6793     650.5513   1423.47900     695.6793     650.5513
   1423.46375     696.3326     651.6220   1423.46375     696.3326     651.6220
   1423.44849     696.4340     650.5118   1423.44849     696.4340     650.5118
   1423.43323     694.7651     649.5945   1423.43323     694.7651     649.5945
   1423.41797     695.7828     649.1276   1423.41797     695.7828     649.1276
   1423.40271     695.0788     648.9015   1423.40271     695.0788     648.9015
   1423.38745     694.9393     648.1109   1423.38745     694.9393     648.1109
   1423.37219     695.2868     647.6358   1423.37219     695.2868     647.6358
   1423.35693     695.4578     645.5578   1423.35693     695.4578     645.5578
   1423.34167     693.6582     645.3597   1423.34167     693.6582     645.3597
   1423.32642     694.8412     644.8548   1423.32642     694.8412     644.8548
   1423.31116     693.9206     645.0177   1423.31116     693.9206     645.0177
   1423.29590     693.8812     643.6797   1423.29590     693.8812     643.6797
   1423.28064     692.5271     642.4935   1423.28064     692.5271     642.4935
   1423.26538     692.7568     641.5627   1423.26538     692.7568     641.5627
   1423.25012     693.6508     640.2948   1423.25012     693.6508     640.2948
   1423.23486     693.1722     639.7452   1423.23486     693.1722     639.7452
   1423.21960     691.9419     639.1641   1423.21960     691.9419     639.1641
   1423.20435     692.3461     637.6469   1423.20435     692.3461     637.6469
   1423.18909     691.7705     637.1708   1423.18909     691.7705     637.1708
   1423.17383     692.5493     636.6882   1423.17383     692.5493     636.6882
   1423.15857     691.7746     634.9755   1423.15857     691.7746     634.9755
   1423.14331     691.8849     635.0150   1423.14331     691.8849     635.0150
   1423.12805     691.8994     634.0303   1423.12805     691.8994     634.0303
   1423.11279     691.0177     632.3077   1423.11279     691.0177     632.3077
   1423.09753     690.4341     633.1054   1423.09753     690.4341     633.1054
   1423.08228     690.6713     630.4049   1423.08228     690.6713     630.4049
   1423.06702     690.4291     629.4053   1423.06702     690.4291     629.4053
   1423.05176     690.8104     627.7152   1423.05176     690.8104     627.7152
   1423.03650     690.3730     627.9008   1423.03650     690.3730     627.9008
   1423.02124     688.9731     626.1180   1423.02124     688.9731     626.1180
   1423.00598     689.1873     625.5159   1423.00598     689.1873     625.5159
   1422.99072     689.8751     623.6910   1422.99072     689.8751     623.6910
   1422.97546     688.3949     624.7222   1422.97546     688.3949     624.7222
   1422.96021     689.4979     622.2513   1422.96021     689.4979     622.2513
   1422.94495     689.7112     622.2052   1422.94495     689.7112     622.2052
   1422.92969     689.5694     620.3415   1422.92969     689.5694     620.3415
   1422.91443     688.5793     619.3671   1422.91443     688.5793     619.3671
   1422.89917     687.5994     617.4731   1422.89917     687.5994     617.4731
   1422.88391     687.9944     616.5942   1422.88391     687.9944     616.5942
   1422.86865     687.8457     614.7404   1422.86865     687.8457     614.7404
   1422.85339     687.5622     614.6907   1422.85339     687.5622     614.6907
   1422.83813     687.6439     613.6238   1422.83813     687.6439     613.6238
   1422.82288     687.4243     611.9275   1422.82288     687.4243     611.9275
   1422.80762     687.4338     611.9590   1422.80762     687.4338     611.9590
   1422.79236     688.1485     610.3817   1422.79236     688.1485     610.3817
   1422.77710     686.6650     610.2302   1422.77710     686.6650     610.2302
   1422.76184     686.6297     607.8546   1422.76184     686.6297     607.8546
   1422.74658     685.9023     606.2457   1422.74658     685.9023     606.2457
   1422.73132     686.8839     604.8380   1422.73132     686.8839     604.8380
   1422.71606     686.9523     603.9380   1422.71606     686.9523     603.9380
   1422.70081     686.0872     603.1546   1422.70081     686.0872     603.1546
   1422.68555     684.8434     602.2598   1422.68555     684.8434     602.2598
   1422.67029     684.9133     599.8529   1422.67029     684.9133     599.8529
   1422.65503     685.2019     599.2495   1422.65503     685.2019     599.2495
   1422.63977     684.1831     598.0310   1422.63977     684.1831     598.0310
   1422.62451     683.8718     596.4583   1422.62451     683.8718     596.4583
   1422.60925     683.6111     596.7999   1422.60925     683.6111     596.7999
   1422.59399     683.8156     593.8677   1422.59399     683.8156     593.8677
   1422.57874     683.8750     593.4991   1422.57874     683.8750     593.4991
   1422.56348     683.6395     591.6433   1422.56348     683.6395     591.6433
   1422.54822     683.8050     591.6804   1422.54822     683.8050     591.6804
   1422.53296     682.4424     589.6529   1422.53296     682.4424     589.6529
   1422.51770     682.4249     588.6757   1422.51770     682.4249     588.6757
   1422.50244     683.4117     586.5484   1422.50244     683.4117     586.5484
   1422.48718     683.2375     586.3198   1422.48718     683.2375     586.3198
   1422.47192     682.6050     585.4666   1422.47192     682.6050     585.4666
   1422.45667     682.0579     584.1527   1422.45667     682.0579     584.1527
   1422.44141     681.6772     582.6984   1422.44141     681.6772     582.6984
   1422.42615     681.4620     580.9602   1422.42615     681.4620     580.9602
   1422.41089     681.3102     579.5377   1422.41089     681.3102     579.5377
   1422.39563     681.6571     578.3072   1422.39563     681.6571     578.3072
   1422.38037     681.5819     577.0258   1422.38037     681.5819     577.0258
   1422.36511     682.2473     574.2796   1422.36511     682.2473     574.2796
   1422.34985     680.1108     574.5159   1422.34985     680.1108     574.5159
   1422.33459     681.0637     572.8040   1422.33459     681.0637     572.8040
   1422.31934     680.0173     571.7971   1422.31934     680.0173     571.7971
   1422.30408     679.4073     570.9798   1422.30408     679.4073     570.9798
   1422.28882     680.3922     569.3561   1422.28882     680.3922     569.3561
   1422.27356     679.7458     568.0462   1422.27356     679.7458     568.0462
   1422.25830     679.5098     566.7421   1422.25830     679.5098     566.7421
   1422.24304     680.8016     565.7680   1422.24304     680.8016     565.7680
   1422.22778     680.2095     563.7780   1422.22778     680.2095     563.7780
   1422.21252     679.3933     562.2197   1422.21252     679.3933     562.2197
   1422.19727     678.7676     561.1952   1422.19727     678.7676     561.1952
   1422.18201     678.6180     560.0807   1422.18201     678.6180     560.0807
   1422.16675     678.2953     559.4961   1422.16675     678.2953     559.4961
   1422.15149     678.0779     557.8477   1422.15149     678.0779     557.8477
   1422.13623     678.2106     556.9984   1422.13623     678.2106     556.9984
   1422.12097     678.0723     555.7563   1422.12097     678.0723     555.7563
   1422.10571     676.9366     553.6155   1422.10571     676.9366     553.6155
   1422.09045     676.4043     552.5520   1422.09045     676.4043     552.5520
   1422.07520     677.3859     551.2419   1422.07520     677.3859     551.2419
   1422.05994     676.9683     549.6240   1422.05994     676.9683     549.6240
   1422.04468     676.9384     548.8047   1422.04468     676.9384     548.8047
   1422.02942     677.1843     547.5120   1422.02942     677.1843     547.5120
   1422.01416     675.8265     545.8516   1422.01416     675.8265     545.8516
   1421.99890     676.9260     544.4292   1421.99890     676.9260     544.4292
   1421.98364     675.3644     543.5016   1421.98364     675.3644     543.5016
   1421.96838     675.4972     542.0588   1421.96838     675.4972     542.0588
   1421.95312     676.6217     539.8900   1421.95312     676.6217     539.8900
   1421.93787     674.8103     539.4622   1421.93787     674.8103     539.4622
   1421.92261     674.5117     538.4147   1421.92261     674.5117     538.4147
   1421.90735     674.5537     536.2278   1421.90735     674.5537     536.2278
   1421.89209     674.4507     535.0859   1421.89209     674.4507     535.0859
   1421.87683     675.2109     533.7828   1421.87683     675.2109     533.7828
   1421.86157     673.8090     533.0309   1421.86157     673.8090     533.0309
   1421.84631     673.6398     531.6006   1421.84631     673.6398     531.6006
   1421.83105     673.5203     530.0284   1421.83105     673.5203     530.0284
   1421.81580     672.7243     528.8673   1421.81580     672.7243     528.8673
   1421.80054     673.5693     527.8343   1421.80054     673.5693     527.8343
   1421.78528     673.6071     526.7148   1421.78528     673.6071     526.7148
   1421.77002     672.1215     525.7660   1421.77002     672.1215     525.7660
   1421.75476     673.4982     523.9114   1421.75476     673.4982     523.9114
   1421.73950     672.7265     523.0433   1421.73950     672.7265     523.0433
   1421.72424     672.1832     521.6316   1421.72424     672.1832     521.6316
   1421.70898     671.7822     519.8378   1421.70898     671.7822     519.8378
   1421.69373     671.4730     518.0540   1421.69373     671.4730     518.0540
   1421.67847     670.5422     517.6960   1421.67847     670.5422     517.6960
   1421.66321     671.8083     516.6906   1421.66321     671.8083     516.6906
   1421.64795     671.1636     514.5902   1421.64795     671.1636     514.5902
   1421.63269     669.7363     513.9172   1421.63269     669.7363     513.9172
   1421.61743     671.1307     512.9297   1421.61743     671.1307     512.9297
   1421.60217     670.6118     510.8204   1421.60217     670.6118     510.8204
   1421.58691     669.7276     510.4770   1421.58691     669.7276     510.4770
   1421.57166     670.4432     509.0334   1421.57166     670.4432     509.0334
   1421.55640     669.4036     507.8973   1421.55640     669.4036     507.8973
   1421.54114     669.1179     506.9131   1421.54114     669.1179     506.9131
   1421.52588     669.0334     505.3058   1421.52588     669.0334     505.3058
   1421.51062     668.9797     503.9135   1421.51062     668.9797     503.9135
   1421.49536     669.8531     502.6531   1421.49536     669.8531     502.6531
   1421.48010     669.2367     502.0296   1421.48010     669.2367     502.0296
   1421.46484     669.2461     499.7592   1421.46484     669.2461     499.7592
   1421.44958     668.4509     499.2121   1421.44958     668.4509     499.2121
   1421.43433     667.9670     497.8994   1421.43433     667.9670     497.8994
   1421.41907     668.5536     497.1636   1421.41907     668.5536     497.1636
   1421.40381     666.1601     495.2236   1421.40381     666.1601     495.2236
   1421.38855     666.4384     494.6558   1421.38855     666.4384     494.6558
   1421.37329     666.3375     493.2560   1421.37329     666.3375     493.2560
   1421.35803     666.0494     492.3582   1421.35803     666.0494     492.3582
   1421.34277     666.1564     490.8667   1421.34277     666.1564     490.8667
   1421.32751     667.0089     490.0680   1421.32751     667.0089     490.0680
   1421.31226     665.6097     489.1003   1421.31226     665.6097     489.1003
   1421.29700     665.0481     487.6868   1421.29700     665.0481     487.6868
   1421.28174     664.6506     486.6625   1421.28174     664.6506     486.6625
   1421.26648     664.5047     484.8725   1421.26648     664.5047     484.8725
   1421.25122     664.5692     484.4490   1421.25122     664.5692     484.4490
   1421.23596     664.5756     482.9523   1421.23596     664.5756     482.9523
   1421.22070     662.9489     482.5016   1421.22070     662.9489     482.5016
   1421.20544     663.2996     479.7404   1421.20544     663.2996     479.7404
   1421.19019     663.5855     479.3713   1421.19019     663.5855     479.3713
   1421.17493     663.3402     478.8690   1421.17493     663.3402     478.8690
   1421.15967     663.1989     477.9453   1421.15967     663.1989     477.9453
   1421.14441     663.1226     477.0478   1421.14441     663.1226     477.0478
   1421.12915     662.0966     474.5634   1421.12915     662.0966     474.5634
   1421.11389     661.5515     474.1935   1421.11389     661.5515     474.1935
   1421.09863     662.5766     472.5843   1421.09863     662.5766     472.5843
   1421.08337     660.9807     471.7246   1421.08337     660.9807     471.7246
   1421.06812     661.0582     470.3811   1421.06812     661.0582     470.3811
   1421.05286     661.1234     470.2405   1421.05286     661.1234     470.2405
   1421.03760     660.8179     469.0769   1421.03760     660.8179     469.0769
   1421.02234     660.7318     468.7336   1421.02234     660.7318     468.7336
   1421.00708     660.5725     467.0979   1421.00708     660.5725     467.0979
   1420.99182     660.2610     465.8228   1420.99182     660.2610     465.8228
   1420.97656     660.4592     464.7707   1420.97656     660.4592     464.7707
   1420.96130     660.2436     463.4302   1420.96130     660.2436     463.4302
   1420.94604     659.6461     462.7227   1420.94604     659.6461     462.7227
   1420.93079     659.5982     461.6681   1420.93079     659.5982     461.6681
   1420.91553     660.3417     460.2935   1420.91553     660.3417     460.2935
   1420.90027     658.7111     459.5434   1420.90027     658.7111     459.5434
   1420.88501     659.0519     458.7868   1420.88501     659.0519     458.7868
   1420.86975     659.2242     457.5228   1420.86975     659.2242     457.5228
   1420.85449     658.6546     457.3963   1420.85449     658.6546     457.3963
   1420.83923     657.5520     455.9584   1420.83923     657.5520     455.9584
   1420.82397     659.3826     455.3552   1420.82397     659.3826     455.3552
   1420.80872     659.1897     454.9393   1420.80872     659.1897     454.9393
   1420.79346     659.3436     453.0011   1420.79346     659.3436     453.0011
   1420.77820     659.0511     452.5934   1420.77820     659.0511     452.5934
   1420.76294     659.6293     451.6547   1420.76294     659.6293     451.6547
   1420.74768     658.9451     450.7839   1420.74768     658.9451     450.7839
   1420.73242     659.0383     450.3835   1420.73242     659.0383     450.3835
   1420.71716     658.5590     449.5687   1420.71716     658.5590     449.5687
   1420.70190     658.6472     448.1993   1420.70190     658.6472     448.1993
   1420.68665     658.5618     447.6490   1420.68665     658.5618     447.6490
   1420.67139     657.9285     447.0919   1420.67139     657.9285     447.0919
   1420.65613     658.2461     445.7463   1420.65613     658.2461     445.7463
   1420.64087     658.1306     444.6888   1420.64087     658.1306     444.6888
   1420.62561     657.0223     444.1032   1420.62561     657.0223     444.1032
   1420.61035     657.5874     443.7554   1420.61035     657.5874     443.7554
   1420.59509     657.3910     442.8706   1420.59509     657.3910     442.8706
   1420.57983     658.0280     442.6350   1420.57983     658.0280     442.6350
   1420.56458     659.9612     442.7283   1420.56458     659.9612     442.7283
   1420.54932     659.5944     441.9055   1420.54932     659.5944     441.9055
   1420.53406     661.9843     442.5651   1420.53406     661.9843     442.5651
   1420.51880     663.5115     443.3518   1420.51880     663.5115     443.3518
   1420.50354     663.6599     442.1281   1420.50354     663.6599     442.1281
   1420.48828     662.5569     439.9967   1420.48828     662.5569     439.9967
   1420.47302     659.9996     438.1990   1420.47302     659.9996     438.1990
   1420.45776     659.2955     438.4625   1420.45776     659.2955     438.4625
   1420.44250     659.0607     437.3416   1420.44250     659.0607     437.3416
   1420.42725     658.9333     436.1065   1420.42725     658.9333     436.1065
   1420.41199     658.5105     434.8404   1420.41199     658.5105     434.8404
   1420.39673     658.9532     434.9097   1420.39673     658.9532     434.9097
   1420.38147     659.6426     433.5589   1420.38147     659.6426     433.5589
   1420.36621     659.8613     433.5151   1420.36621     659.8613     433.5151
   1420.35095     661.1185     433.2929   1420.35095     661.1185     433.2929
   1420.33569     662.0987     434.1216   1420.33569     662.0987     434.1216
   1420.32043     663.6342     434.4347   1420.32043     663.6342     434.4347
   1420.30518     668.3042     436.9678   1420.30518     668.3042     436.9678
   1420.28992     678.0760     441.0510   1420.28992     678.0760     441.0510
   1420.27466     693.8026     450.8461   1420.27466     693.8026     450.8461
   1420.25940     729.1066     472.6357   1420.25940     729.1066     472.6357
   1420.24414     850.4052     548.3716   1420.24414     850.4052     548.3716
   1420.22888    1174.6527     749.3448   1420.22888    1174.6527     749.3448
   1420.21362    1226.4412     778.9238   1420.21362    1226.4412     778.9238
   1420.19836    1079.5413     688.0241   1420.19836    1079.5413     688.0241
   1420.18311    1051.5149     671.3132   1420.18311    1051.5149     671.3132
   1420.16785    1257.1906     798.5374   1420.16785    1257.1906     798.5374
   1420.15259    1731.0392    1092.3381   1420.15259    1731.0392    1092.3381
   1420.13733    1778.2623    1115.9513   1420.13733    1778.2623    1115.9513
   1420.12207    1524.9131     961.6579   1420.12207    1524.9131     961.6579
   1420.10681    1373.6637     863.5773   1420.10681    1373.6637     863.5773
   1420.09155    1167.3293     735.9086   1420.09155    1167.3293     735.9086
   1420.07629    1155.0184     727.4132   1420.07629    1155.0184     727.4132
   1420.06104    1291.4443     810.1093   1420.06104    1291.4443     810.1093
   1420.04578    1366.1075     854.8995   1420.04578    1366.1075     854.8995
   1420.03052    1297.9894     813.0002   1420.03052    1297.9894     813.0002
   1420.01526    1290.2539     804.2625   1420.01526    1290.2539     804.2625
   1420.00000    1481.1952     922.4282   1420.00000    1481.1952     922.4282
   1419.98474    1672.1365    1040.5939   1419.98474    1672.1365    1040.5939
   1419.96948    1687.8268    1044.4501   1419.96948    1687.8268    1044.4501
   1419.95422    1592.8806     985.6180   1419.95422    1592.8806     985.6180
   1419.93896    1445.1174     897.0466   1419.93896    1445.1174     897.0466
   1419.92371    1354.7391     841.4294   1419.92371    1354.7391     841.4294
   1419.90845    1142.1454     711.1637   1419.90845    1142.1454     711.1637
   1419.89319     951.6402     594.3220   1419.89319     951.6402     594.3220
   1419.87793     837.9515     524.4441   1419.87793     837.9515     524.4441
   1419.86267     773.0089     483.4425   1419.86267     773.0089     483.4425
   1419.84741     732.7732     459.0478   1419.84741     732.7732     459.0478
   1419.83215     710.5404     445.0848   1419.83215     710.5404     445.0848
   1419.81689     696.8966     436.0705   1419.81689     696.8966     436.0705
   1419.80164     690.3408     431.0901   1419.80164     690.3408     431.0901
   1419.78638     684.3143     427.0913   1419.78638     684.3143     427.0913
   1419.77112     680.5251     424.0640   1419.77112     680.5251     424.0640
   1419.75586     675.8000     420.7799   1419.75586     675.8000     420.7799
   1419.74060     670.4056     417.4800   1419.74060     670.4056     417.4800
   1419.72534     664.6578     413.3868   1419.72534     664.6578     413.3868
   1419.71008     661.1135     411.3253   1419.71008     661.1135     411.3253
   1419.69482     659.3798     409.5319   1419.69482     659.3798     409.5319
   1419.67957     657.2440     408.4505   1419.67957     657.2440     408.4505
   1419.66431     656.8395     406.5716   1419.66431     656.8395     406.5716
   1419.64905     655.9855     406.2517   1419.64905     655.9855     406.2517
   1419.63379     655.9758     405.6034   1419.63379     655.9758     405.6034
   1419.61853     655.3802     406.1081   1419.61853     655.3802     406.1081
   1419.60327     655.3382     404.6017   1419.60327     655.3382     404.6017
   1419.58801     655.6115     404.7476   1419.58801     655.6115     404.7476
   1419.57275     656.1546     404.7419   1419.57275     656.1546     404.7419
   1419.55750     656.0745     403.5367   1419.55750     656.0745     403.5367
   1419.54224     655.3320     403.5901   1419.54224     655.3320     403.5901
   1419.52698     656.2146     402.3997   1419.52698     656.2146     402.3997
   1419.51172     655.5707     403.1551   1419.51172     655.5707     403.1551
   1419.49646     655.5817     402.0584   1419.49646     655.5817     402.0584
   1419.48120     656.0599     402.0532   1419.48120     656.0599     402.0532
   1419.46594     655.1987     401.0155   1419.46594     655.1987     401.0155
   1419.45068     655.7281     401.0636   1419.45068     655.7281     401.0636
   1419.43542     657.6027     400.8325   1419.43542     657.6027     400.8325
   1419.42017     655.7085     401.2515   1419.42017     655.7085     401.2515
   1419.40491     656.9550     401.0762   1419.40491     656.9550     401.0762
   1419.38965     657.3308     401.3575   1419.38965     657.3308     401.3575
   1419.37439     656.8754     401.0148   1419.37439     656.8754     401.0148
   1419.35913     658.3284     400.9389   1419.35913     658.3284     400.9389
   1419.34387     659.2164     400.3112   1419.34387     659.2164     400.3112
   1419.32861     658.1264     399.9379   1419.32861     658.1264     399.9379
   1419.31335     659.8151     400.4670   1419.31335     659.8151     400.4670
   1419.29810     660.1651     401.0021   1419.29810     660.1651     401.0021
   1419.28284     660.3985     400.7616   1419.28284     660.3985     400.7616
   1419.26758     660.2324     401.5673   1419.26758     660.2324     401.5673
   1419.25232     660.7497     401.1048   1419.25232     660.7497     401.1048
   1419.23706     661.0716     400.0382   1419.23706     661.0716     400.0382
   1419.22180     662.2261     400.6418   1419.22180     662.2261     400.6418
   1419.20654     662.4767     400.5136   1419.20654     662.4767     400.5136
   1419.19128     663.4290     400.2006   1419.19128     663.4290     400.2006
   1419.17603     663.3624     401.1256   1419.17603     663.3624     401.1256
   1419.16077     663.8715     400.3647   1419.16077     663.8715     400.3647
   1419.14551     663.5772     400.6805   1419.14551     663.5772     400.6805
   1419.13025     665.0320     400.9905   1419.13025     665.0320     400.9905
   1419.11499     666.4264     401.0264   1419.11499     666.4264     401.0264
   1419.09973     664.6826     401.3786   1419.09973     664.6826     401.3786
   1419.08447     665.9992     401.1880   1419.08447     665.9992     401.1880
   1419.06921     666.5253     401.3214   1419.06921     666.5253     401.3214
   1419.05396     668.1846     401.1645   1419.05396     668.1846     401.1645
   1419.03870     668.4620     401.4963   1419.03870     668.4620     401.4963
   1419.02344     668.8661     402.0423   1419.02344     668.8661     402.0423
   1419.00818     670.2226     401.5084   1419.00818     670.2226     401.5084
   1418.99292     669.9607     402.1439   1418.99292     669.9607     402.1439
   1418.97766     671.4788     401.9980   1418.97766     671.4788     401.9980
   1418.96240     671.0900     401.5959   1418.96240     671.0900     401.5959
   1418.94714     673.3269     403.4538   1418.94714     673.3269     403.4538
   1418.93188     673.5432     402.6572   1418.93188     673.5432     402.6572
   1418.91663     674.0098     403.5426   1418.91663     674.0098     403.5426
   1418.90137     673.9501     403.2635   1418.90137     673.9501     403.2635
   1418.88611     674.7626     403.6420   1418.88611     674.7626     403.6420
   1418.87085     675.0200     403.6110   1418.87085     675.0200     403.6110
   1418.85559     677.3958     404.4724   1418.85559     677.3958     404.4724
   1418.84033     677.1645     404.2136   1418.84033     677.1645     404.2136
   1418.82507     678.2855     404.3027   1418.82507     678.2855     404.3027
   1418.80981     678.4670     404.5921   1418.80981     678.4670     404.5921
   1418.79456     679.4042     405.4208   1418.79456     679.4042     405.4208
   1418.77930     680.3214     405.4827   1418.77930     680.3214     405.4827
   1418.76404     682.3412     405.6751   1418.76404     682.3412     405.6751
   1418.74878     682.8633     406.1835   1418.74878     682.8633     406.1835
   1418.73352     683.0972     406.5802   1418.73352     683.0972     406.5802
   1418.71826     682.9144     406.7750   1418.71826     682.9144     406.7750
   1418.70300     683.8635     406.9299   1418.70300     683.8635     406.9299
   1418.68774     685.9543     407.2467   1418.68774     685.9543     407.2467
   1418.67249     685.8359     408.0191   1418.67249     685.8359     408.0191
   1418.65723     686.6080     408.1759   1418.65723     686.6080     408.1759
   1418.64197     687.9202     408.8317   1418.64197     687.9202     408.8317
   1418.62671     688.8636     408.7684   1418.62671     688.8636     408.7684
   1418.61145     690.7568     408.8736   1418.61145     690.7568     408.8736
   1418.59619     690.6208     409.5858   1418.59619     690.6208     409.5858
   1418.58093     689.9058     410.6176   1418.58093     689.9058     410.6176
   1418.56567     692.0723     410.3839   1418.56567     692.0723     410.3839
   1418.55042     692.9156     411.0696   1418.55042     692.9156     411.0696
   1418.53516     693.1666     411.8383   1418.53516     693.1666     411.8383
   1418.51990     695.5304     411.3647   1418.51990     695.5304     411.3647
   1418.50464     695.4670     413.1884   1418.50464     695.4670     413.1884
   1418.48938     695.6586     412.7551   1418.48938     695.6586     412.7551
   1418.47412     697.6145     412.6632   1418.47412     697.6145     412.6632
   1418.45886     698.4081     413.1779   1418.45886     698.4081     413.1779
   1418.44360     700.4637     413.6139   1418.44360     700.4637     413.6139
   1418.42834     700.9337     414.0365   1418.42834     700.9337     414.0365
   1418.41309     701.1461     414.8789   1418.41309     701.1461     414.8789
   1418.39783     703.6305     415.1220   1418.39783     703.6305     415.1220
   1418.38257     703.0844     416.0377   1418.38257     703.0844     416.0377
   1418.36731     703.9919     416.2016   1418.36731     703.9919     416.2016
   1418.35205     705.1652     417.7365   1418.35205     705.1652     417.7365
   1418.33679     706.2158     416.9303   1418.33679     706.2158     416.9303
   1418.32153     707.9888     417.7162   1418.32153     707.9888     417.7162
   1418.30627     708.6604     418.8374   1418.30627     708.6604     418.8374
   1418.29102     710.2639     418.7830   1418.29102     710.2639     418.7830
   1418.27576     709.4869     419.0295   1418.27576     709.4869     419.0295
   1418.26050     711.2322     419.8372   1418.26050     711.2322     419.8372
   1418.24524     711.8636     420.9386   1418.24524     711.8636     420.9386
   1418.22998     713.5193     420.9447   1418.22998     713.5193     420.9447
   1418.21472     714.8148     421.9479   1418.21472     714.8148     421.9479
   1418.19946     716.0466     421.9340   1418.19946     716.0466     421.9340
   1418.18420     716.4633     423.0465   1418.18420     716.4633     423.0465
   1418.16895     717.6258     423.5550   1418.16895     717.6258     423.5550
   1418.15369     718.9472     423.9352   1418.15369     718.9472     423.9352
   1418.13843     720.6410     424.2008   1418.13843     720.6410     424.2008
   1418.12317     720.7388     425.5789   1418.12317     720.7388     425.5789
   1418.10791     721.7444     426.1620   1418.10791     721.7444     426.1620
   1418.09265     722.8227     426.7625   1418.09265     722.8227     426.7625
   1418.07739     725.0260     427.7197   1418.07739     725.0260     427.7197
   1418.06213     725.4702     427.0197   1418.06213     725.4702     427.0197
   1418.04688     726.3108     428.6021   1418.04688     726.3108     428.6021
   1418.03162     726.4919     428.8107   1418.03162     726.4919     428.8107
   1418.01636     728.7382     429.8321   1418.01636     728.7382     429.8321
   1418.00110     729.9037     430.2168   1418.00110     729.9037     430.2168
   1417.98584     731.4044     430.2477   1417.98584     731.4044     430.2477
   1417.97058     731.3249     431.9700   1417.97058     731.3249     431.9700
   1417.95532     732.8081     431.7990   1417.95532     732.8081     431.7990
   1417.94006     735.0544     432.2860   1417.94006     735.0544     432.2860
   1417.92480     735.8689     433.8792   1417.92480     735.8689     433.8792
   1417.90955     735.5131     434.2939   1417.90955     735.5131     434.2939
   1417.89429     737.5986     434.3034   1417.89429     737.5986     434.3034
   1417.87903     738.6801     435.2526   1417.87903     738.6801     435.2526
   1417.86377     740.4381     435.3582   1417.86377     740.4381     435.3582
   1417.84851     741.2118     436.3493   1417.84851     741.2118     436.3493
   1417.83325     741.9086     436.6055   1417.83325     741.9086     436.6055
   1417.81799     742.0545     438.5273   1417.81799     742.0545     438.5273
   1417.80273     744.0909     437.5497   1417.80273     744.0909     437.5497
   1417.78748     744.9358     439.2400   1417.78748     744.9358     439.2400
   1417.77222     746.1264     439.8314   1417.77222     746.1264     439.8314
   1417.75696     747.4686     440.0557   1417.75696     747.4686     440.0557
   1417.74170     748.4949     441.7152   1417.74170     748.4949     441.7152
   1417.72644     750.1542     442.5060   1417.72644     750.1542     442.5060
   1417.71118     750.9314     443.0135   1417.71118     750.9314     443.0135
   1417.69592     752.3115     442.9540   1417.69592     752.3115     442.9540
   1417.68066     753.4953     443.7480   1417.68066     753.4953     443.7480
   1417.66541     753.6971     444.9388   1417.66541     753.6971     444.9388
   1417.65015     754.5992     444.6471   1417.65015     754.5992     444.6471
   1417.63489     757.0754     446.3786   1417.63489     757.0754     446.3786
   1417.61963     758.2123     446.1855   1417.61963     758.2123     446.1855
   1417.60437     759.0853     447.4374   1417.60437     759.0853     447.4374
   1417.58911     760.5049     447.4875   1417.58911     760.5049     447.4875
   1417.57385     760.5576     448.8587   1417.57385     760.5576     448.8587
   1417.55859     761.7103     449.3263   1417.55859     761.7103     449.3263
   1417.54333     763.8184     450.4619   1417.54333     763.8184     450.4619
   1417.52808     763.7023     450.4845   1417.52808     763.7023     450.4845
   1417.51282     765.4668     451.0018   1417.51282     765.4668     451.0018
   1417.49756     765.2169     451.3709   1417.49756     765.2169     451.3709
   1417.48230     766.2975     453.4490   1417.48230     766.2975     453.4490
   1417.46704     768.0184     454.3847   1417.46704     768.0184     454.3847
   1417.45178     770.7499     453.9610   1417.45178     770.7499     453.9610
   1417.43652     770.7465     455.0563   1417.43652     770.7465     455.0563
   1417.42126     770.6691     454.9013   1417.42126     770.6691     454.9013
   1417.40601     772.9850     455.7668   1417.40601     772.9850     455.7668
   1417.39075     773.1244     457.0042   1417.39075     773.1244     457.0042
   1417.37549     774.9335     457.8702   1417.37549     774.9335     457.8702
   1417.36023     775.1495     458.5007   1417.36023     775.1495     458.5007
   1417.34497     776.0002     458.9837   1417.34497     776.0002     458.9837
   1417.32971     776.3240     459.3322   1417.32971     776.3240     459.3322
   1417.31445     777.8456     459.5309   1417.31445     777.8456     459.5309
   1417.29919     779.0691     461.0324   1417.29919     779.0691     461.0324
   1417.28394     780.6747     461.2648   1417.28394     780.6747     461.2648
   1417.26868     781.7587     462.1369   1417.26868     781.7587     462.1369
   1417.25342     782.0792     462.7800   1417.25342     782.0792     462.7800
   1417.23816     783.3517     463.0742   1417.23816     783.3517     463.0742
   1417.22290     784.2948     464.9912   1417.22290     784.2948     464.9912
   1417.20764     785.2944     464.6040   1417.20764     785.2944     464.6040
   1417.19238     785.3564     464.9025   1417.19238     785.3564     464.9025
   1417.17712     785.9446     466.3154   1417.17712     785.9446     466.3154
   1417.16187     786.7173     466.2655   1417.16187     786.7173     466.2655
   1417.14661     787.8705     466.6300   1417.14661     787.8705     466.6300
   1417.13135     788.7992     467.4679   1417.13135     788.7992     467.4679
   1417.11609     789.5732     467.8223   1417.11609     789.5732     467.8223
   1417.10083     790.7728     468.7118   1417.10083     790.7728     468.7118
   1417.08557     789.9818     468.5903   1417.08557     789.9818     468.5903
   1417.07031     792.4841     469.4075   1417.07031     792.4841     469.4075
   1417.05505     793.0872     470.4054   1417.05505     793.0872     470.4054
   1417.03979     792.8558     470.0872   1417.03979     792.8558     470.0872
   1417.02454     794.3104     471.3836   1417.02454     794.3104     471.3836
   1417.00928     793.6597     471.8378   1417.00928     793.6597     471.8378
   1416.99402     796.0608     471.8832   1416.99402     796.0608     471.8832
   1416.97876     797.2812     473.5334   1416.97876     797.2812     473.5334
   1416.96350     796.4417     473.3187   1416.96350     796.4417     473.3187
   1416.94824     798.7665     473.9542   1416.94824     798.7665     473.9542
   1416.93298     797.7103     473.4817   1416.93298     797.7103     473.4817
   1416.91772     798.9998     474.2302   1416.91772     798.9998     474.2302
   1416.90247     799.7977     474.8988   1416.90247     799.7977     474.8988
   1416.88721     800.8473     476.0042   1416.88721     800.8473     476.0042
   1416.87195     801.1743     475.8745   1416.87195     801.1743     475.8745
   1416.85669     801.7487     476.4998   1416.85669     801.7487     476.4998
   1416.84143     802.8902     476.7849   1416.84143     802.8902     476.7849
   1416.82617     801.9762     476.9854   1416.82617     801.9762     476.9854
   1416.81091     803.1172     478.1919   1416.81091     803.1172     478.1919
   1416.79565     803.7992     478.0726   1416.79565     803.7992     478.0726
   1416.78040     803.4966     478.7366   1416.78040     803.4966     478.7366
   1416.76514     804.0132     478.5142   1416.76514     804.0132     478.5142
   1416.74988     804.7007     478.5739   1416.74988     804.7007     478.5739
   1416.73462     804.3625     479.7428   1416.73462     804.3625     479.7428
   1416.71936     806.2239     479.6391   1416.71936     806.2239     479.6391
   1416.70410     804.8399     480.5716   1416.70410     804.8399     480.5716
   1416.68884     806.1562     480.1035   1416.68884     806.1562     480.1035
   1416.67358     806.6696     480.7482   1416.67358     806.6696     480.7482
   1416.65833     806.1733     480.0688   1416.65833     806.1733     480.0688
   1416.64307     806.7593     481.2453   1416.64307     806.7593     481.2453
   1416.62781     807.3302     481.4891   1416.62781     807.3302     481.4891
   1416.61255     807.6028     481.5809   1416.61255     807.6028     481.5809
   1416.59729     805.7081     482.0764   1416.59729     805.7081     482.0764
   1416.58203     807.5034     481.5664   1416.58203     807.5034     481.5664
   1416.56677     807.7980     481.7552   1416.56677     807.7980     481.7552
   1416.55151     808.9816     482.3604   1416.55151     808.9816     482.3604
   1416.53625     807.5370     482.4485   1416.53625     807.5370     482.4485
   1416.52100     808.0542     482.6684   1416.52100     808.0542     482.6684
   1416.50574     808.0786     482.9762   1416.50574     808.0786     482.9762
   1416.49048     808.4612     482.7579   1416.49048     808.4612     482.7579
   1416.47522     807.8418     482.9140   1416.47522     807.8418     482.9140
   1416.45996     808.6596     482.7000   1416.45996     808.6596     482.7000
   1416.44470     807.5654     482.6680   1416.44470     807.5654     482.6680
   1416.42944     808.0171     483.2072   1416.42944     808.0171     483.2072
   1416.41418     808.3319     482.4778   1416.41418     808.3319     482.4778
   1416.39893     808.5446     483.9443   1416.39893     808.5446     483.9443
   1416.38367     808.0099     483.5592   1416.38367     808.0099     483.5592
   1416.36841     808.6848     482.9377   1416.36841     808.6848     482.9377
   1416.35315     807.7438     483.3233   1416.35315     807.7438     483.3233
   1416.33789     806.3998     483.0070   1416.33789     806.3998     483.0070
   1416.32263     806.8283     483.6644   1416.32263     806.8283     483.6644
   1416.30737     807.0287     483.3549   1416.30737     807.0287     483.3549
   1416.29211     805.9595     482.9521   1416.29211     805.9595     482.9521
   1416.27686     806.8503     482.9617   1416.27686     806.8503     482.9617
   1416.26160     807.1166     483.2209   1416.26160     807.1166     483.2209
   1416.24634     805.9622     482.8085   1416.24634     805.9622     482.8085
   1416.23108     807.3698     482.9341   1416.23108     807.3698     482.9341
   1416.21582     806.3564     482.4755   1416.21582     806.3564     482.4755
   1416.20056     805.9729     482.6590   1416.20056     805.9729     482.6590
   1416.18530     804.8005     482.7053   1416.18530     804.8005     482.7053
   1416.17004     804.3644     482.7711   1416.17004     804.3644     482.7711
   1416.15479     803.6080     481.9948   1416.15479     803.6080     481.9948
   1416.13953     803.5455     482.9464   1416.13953     803.5455     482.9464
   1416.12427     803.0793     482.5227   1416.12427     803.0793     482.5227
   1416.10901     803.5087     481.8567   1416.10901     803.5087     481.8567
   1416.09375     801.7369     482.3781   1416.09375     801.7369     482.3781
   1416.07849     802.0487     481.6032   1416.07849     802.0487     481.6032
   1416.06323     801.1877     482.4325   1416.06323     801.1877     482.4325
   1416.04797     801.3330     482.1458   1416.04797     801.3330     482.1458
   1416.03271     801.6246     482.5220   1416.03271     801.6246     482.5220
   1416.01746     799.9545     481.6716   1416.01746     799.9545     481.6716
   1416.00220     799.3017     482.0131   1416.00220     799.3017     482.0131
   1415.98694     800.4001     481.0938   1415.98694     800.4001     481.0938
   1415.97168     799.5994     481.8347   1415.97168     799.5994     481.8347
   1415.95642     797.9102     481.0457   1415.95642     797.9102     481.0457
   1415.94116     797.8168     480.9924   1415.94116     797.8168     480.9924
   1415.92590     797.6216     480.7817   1415.92590     797.6216     480.7817
   1415.91064     795.2947     480.3972   1415.91064     795.2947     480.3972
   1415.89539     794.8735     481.1708   1415.89539     794.8735     481.1708
   1415.88013     794.6989     480.2663   1415.88013     794.6989     480.2663
   1415.86487     795.5116     481.0078   1415.86487     795.5116     481.0078
   1415.84961     792.9814     480.2309   1415.84961     792.9814     480.2309
   1415.83435     793.4005     480.8296   1415.83435     793.4005     480.8296
   1415.81909     792.6410     479.2994   1415.81909     792.6410     479.2994
   1415.80383     790.8724     479.3814   1415.80383     790.8724     479.3814
   1415.78857     790.8978     479.7412   1415.78857     790.8978     479.7412
   1415.77332     790.7688     479.2102   1415.77332     790.7688     479.2102
   1415.75806     788.7981     478.7705   1415.75806     788.7981     478.7705
   1415.74280     788.6332     478.8963   1415.74280     788.6332     478.8963
   1415.72754     788.3619     478.9206   1415.72754     788.3619     478.9206
   1415.71228     785.9324     478.5215   1415.71228     785.9324     478.5215
   1415.69702     786.3381     478.5748   1415.69702     786.3381     478.5748
   1415.68176     785.3232     477.7059   1415.68176     785.3232     477.7059
   1415.66650     784.4053     478.0173   1415.66650     784.4053     478.0173
   1415.65125     782.3250     477.3987   1415.65125     782.3250     477.3987
   1415.63599     783.4381     477.8437   1415.63599     783.4381     477.8437
   1415.62073     781.4020     477.3203   1415.62073     781.4020     477.3203
   1415.60547     781.3456     477.1926   1415.60547     781.3456     477.1926
   1415.59021     779.2499     476.3309   1415.59021     779.2499     476.3309
   1415.57495     779.9035     477.3810   1415.57495     779.9035     477.3810
   1415.55969     776.9173     476.6540   1415.55969     776.9173     476.6540
   1415.54443     776.0518     476.2213   1415.54443     776.0518     476.2213
   1415.52917     776.3345     474.8131   1415.52917     776.3345     474.8131
   1415.51392     774.1083     475.1726   1415.51392     774.1083     475.1726
   1415.49866     773.3500     474.9075   1415.49866     773.3500     474.9075
   1415.48340     771.3079     474.9426   1415.48340     771.3079     474.9426
   1415.46814     772.3541     474.0790   1415.46814     772.3541     474.0790
   1415.45288     771.2349     474.8221   1415.45288     771.2349     474.8221
   1415.43762     769.2073     473.3901   1415.43762     769.2073     473.3901
   1415.42236     767.3867     472.9709   1415.42236     767.3867     472.9709
   1415.40710     767.2283     472.7836   1415.40710     767.2283     472.7836
   1415.39185     765.4318     473.3634   1415.39185     765.4318     473.3634
   1415.37659     765.7538     472.8907   1415.37659     765.7538     472.8907
   1415.36133     763.9852     472.5771   1415.36133     763.9852     472.5771
   1415.34607     761.6115     471.6089   1415.34607     761.6115     471.6089
   1415.33081     762.2629     471.6500   1415.33081     762.2629     471.6500
   1415.31555     759.3429     470.5515   1415.31555     759.3429     470.5515
   1415.30029     759.2220     470.8690   1415.30029     759.2220     470.8690
   1415.28503     757.9073     469.9822   1415.28503     757.9073     469.9822
   1415.26978     755.9244     470.5544   1415.26978     755.9244     470.5544
   1415.25452     756.3610     469.2803   1415.25452     756.3610     469.2803
   1415.23926     753.4932     468.6899   1415.23926     753.4932     468.6899
   1415.22400     750.8980     468.3007   1415.22400     750.8980     468.3007
   1415.20874     750.3401     467.7719   1415.20874     750.3401     467.7719
   1415.19348     750.1823     466.6724   1415.19348     750.1823     466.6724
   1415.17822     746.9666     466.6829   1415.17822     746.9666     466.6829
   1415.16296     746.4738     466.4847   1415.16296     746.4738     466.4847
   1415.14771     745.3691     466.4072   1415.14771     745.3691     466.4072
   1415.13245     742.7401     465.6226   1415.13245     742.7401     465.6226
   1415.11719     740.9462     465.0370   1415.11719     740.9462     465.0370
   1415.10193     740.1580     464.5381   1415.10193     740.1580     464.5381
   1415.08667     737.9437     464.4796   1415.08667     737.9437     464.4796
   1415.07141     737.2023     463.6920   1415.07141     737.2023     463.6920
   1415.05615     736.0876     463.0667   1415.05615     736.0876     463.0667
   1415.04089     735.0204     462.8039   1415.04089     735.0204     462.8039
   1415.02563     733.6151     461.6682   1415.02563     733.6151     461.6682
   1415.01038     730.2572     461.6154   1415.01038     730.2572     461.6154
   1414.99512     728.4143     460.0746   1414.99512     728.4143     460.0746
   1414.97986     727.7266     459.9189   1414.97986     727.7266     459.9189
   1414.96460     725.2219     459.0145   1414.96460     725.2219     459.0145
   1414.94934     725.0172     459.2845   1414.94934     725.0172     459.2845
   1414.93408     721.1662     457.8830   1414.93408     721.1662     457.8830
   1414.91882     720.7271     458.2232   1414.91882     720.7271     458.2232
   1414.90356     718.1823     456.7936   1414.90356     718.1823     456.7936
   1414.88831     716.3878     455.6777   1414.88831     716.3878     455.6777
   1414.87305     714.1688     456.3113   1414.87305     714.1688     456.3113
   1414.85779     712.8213     455.0923   1414.85779     712.8213     455.0923
   1414.84253     711.7739     454.0242   1414.84253     711.7739     454.0242
   1414.82727     708.9093     453.3094   1414.82727     708.9093     453.3094
   1414.81201     707.4812     452.7080   1414.81201     707.4812     452.7080
   1414.79675     705.1329     451.7123   1414.79675     705.1329     451.7123
   1414.78149     703.3745     450.9047   1414.78149     703.3745     450.9047
   1414.76624     700.9368     449.6643   1414.76624     700.9368     449.6643
   1414.75098     698.1489     449.0104   1414.75098     698.1489     449.0104
   1414.73572     697.8059     448.6684   1414.73572     697.8059     448.6684
   1414.72046     694.2079     449.0322   1414.72046     694.2079     449.0322
   1414.70520     692.9594     446.2606   1414.70520     692.9594     446.2606
   1414.68994     691.5108     445.9855   1414.68994     691.5108     445.9855
   1414.67468     688.8591     445.1322   1414.67468     688.8591     445.1322
   1414.65942     686.5179     445.0925   1414.65942     686.5179     445.0925
   1414.64417     684.3713     443.2370   1414.64417     684.3713     443.2370
   1414.62891     682.8207     442.8322   1414.62891     682.8207     442.8322
   1414.61365     680.3948     442.0330   1414.61365     680.3948     442.0330
   1414.59839     678.3118     440.6390   1414.59839     678.3118     440.6390
   1414.58313     674.7256     440.6266   1414.58313     674.7256     440.6266
   1414.56787     672.2272     438.9437   1414.56787     672.2272     438.9437
   1414.55261     670.2281     437.6847   1414.55261     670.2281     437.6847
   1414.53735     668.4167     437.3297   1414.53735     668.4167     437.3297
   1414.52209     666.0753     435.8698   1414.52209     666.0753     435.8698
   1414.50684     663.5231     435.8251   1414.50684     663.5231     435.8251
   1414.49158     661.3210     434.0707   1414.49158     661.3210     434.0707
   1414.47632     658.4004     433.0077   1414.47632     658.4004     433.0077
   1414.46106     656.7255     431.6938   1414.46106     656.7255     431.6938
   1414.44580     654.4725     430.6754   1414.44580     654.4725     430.6754
   1414.43054     650.9128     429.8518   1414.43054     650.9128     429.8518
   1414.41528     648.2059     428.4527   1414.41528     648.2059     428.4527
   1414.40002     646.5754     427.4932   1414.40002     646.5754     427.4932
   1414.38477     644.0663     427.0513   1414.38477     644.0663     427.0513
   1414.36951     640.0579     424.9409   1414.36951     640.0579     424.9409
   1414.35425     639.2766     423.8026   1414.35425     639.2766     423.8026
   1414.33899     635.9954     423.3553   1414.33899     635.9954     423.3553
   1414.32373     634.4308     421.8169   1414.32373     634.4308     421.8169
   1414.30847     630.8070     420.7460   1414.30847     630.8070     420.7460
   1414.29321     628.0565     419.6509   1414.29321     628.0565     419.6509
   1414.27795     625.0223     417.6682   1414.27795     625.0223     417.6682
   1414.26270     623.2101     417.5394   1414.26270     623.2101     417.5394
   1414.24744     620.5601     415.7174   1414.24744     620.5601     415.7174
   1414.23218     616.8727     413.8107   1414.23218     616.8727     413.8107
   1414.21692     614.5681     413.1560   1414.21692     614.5681     413.1560
   1414.20166     611.7407     411.7655   1414.20166     611.7407     411.7655
   1414.18640     609.6624     410.2158   1414.18640     609.6624     410.2158
   1414.17114     605.8690     409.3899   1414.17114     605.8690     409.3899
   1414.15588     604.3397     407.6698   1414.15588     604.3397     407.6698
   1414.14062     600.5396     406.2516   1414.14062     600.5396     406.2516
   1414.12537     597.5458     405.2255   1414.12537     597.5458     405.2255
   1414.11011     594.5800     403.0943   1414.11011     594.5800     403.0943
   1414.09485     591.9583     402.4283   1414.09485     591.9583     402.4283
   1414.07959     589.7825     400.3508   1414.07959     589.7825     400.3508
   1414.06433     586.4808     399.7444   1414.06433     586.4808     399.7444
   1414.04907     583.8133     398.6991   1414.04907     583.8133     398.6991
   1414.03381     581.4774     396.5681   1414.03381     581.4774     396.5681
   1414.01855     579.0460     395.3012   1414.01855     579.0460     395.3012
   1414.00330     600.3981     400.2407   1414.00330     600.3981     400.2407
   1413.98804     573.3253     392.8502   1413.98804     573.3253     392.8502
   1413.97278     569.5126     391.5108   1413.97278     569.5126     391.5108
   1413.95752     565.8336     389.2039   1413.95752     565.8336     389.2039
   1413.94226     562.2286     388.1765   1413.94226     562.2286     388.1765
   1413.92700     560.1252     386.3865   1413.92700     560.1252     386.3865
   1413.91174     557.6708     385.4401   1413.91174     557.6708     385.4401
   1413.89648     555.0350     383.7111   1413.89648     555.0350     383.7111
   1413.88123     550.8885     381.6685   1413.88123     550.8885     381.6685
   1413.86597     547.6881     380.3669   1413.86597     547.6881     380.3669
   1413.85071     545.3915     379.0827   1413.85071     545.3915     379.0827
   1413.83545     542.3855     377.7117   1413.83545     542.3855     377.7117
   1413.82019     539.5098     375.1537   1413.82019     539.5098     375.1537
   1413.80493     536.7147     374.4268   1413.80493     536.7147     374.4268
   1413.78967     533.4902     372.6988   1413.78967     533.4902     372.6988
   1413.77441     529.6460     371.2203   1413.77441     529.6460     371.2203
   1413.75916     526.4869     369.4235   1413.75916     526.4869     369.4235
   1413.74390     523.7999     368.3744   1413.74390     523.7999     368.3744
   1413.72864     521.5925     366.1776   1413.72864     521.5925     366.1776
   1413.71338     517.7164     365.3068   1413.71338     517.7164     365.3068
   1413.69812     515.2339     363.5015   1413.69812     515.2339     363.5015
   1413.68286     512.4334     361.3340   1413.68286     512.4334     361.3340
   1413.66760     508.8913     359.9581   1413.66760     508.8913     359.9581
   1413.65234     506.0379     358.4538   1413.65234     506.0379     358.4538
   1413.63708     502.7764     356.6300   1413.63708     502.7764     356.6300
   1413.62183     499.8212     355.3191   1413.62183     499.8212     355.3191
   1413.60657     497.8414     353.5539   1413.60657     497.8414     353.5539
   1413.59131     494.3235     352.2373   1413.59131     494.3235     352.2373
   1413.57605     492.0266     350.5245   1413.57605     492.0266     350.5245
   1413.56079     488.2457     348.6593   1413.56079     488.2457     348.6593
   1413.54553     485.5225     347.5012   1413.54553     485.5225     347.5012
   1413.53027     482.2017     345.5045   1413.53027     482.2017     345.5045
   1413.51501     479.5339     344.4647   1413.51501     479.5339     344.4647
   1413.49976     476.0167     342.7820   1413.49976     476.0167     342.7820
   1413.48450     473.9775     340.7807   1413.48450     473.9775     340.7807
   1413.46924     471.0724     339.4903   1413.46924     471.0724     339.4903
   1413.45398     467.8217     338.2754   1413.45398     467.8217     338.2754
   1413.43872     464.7891     335.7777   1413.43872     464.7891     335.7777
   1413.42346     462.7189     334.3584   1413.42346     462.7189     334.3584
   1413.40820     459.5356     333.0796   1413.40820     459.5356     333.0796
   1413.39294     456.7081     331.6477   1413.39294     456.7081     331.6477
   1413.37769     453.5207     329.8899   1413.37769     453.5207     329.8899
   1413.36243     451.0651     328.3047   1413.36243     451.0651     328.3047
   1413.34717     448.5294     326.8008   1413.34717     448.5294     326.8008
   1413.33191     445.3908     325.4388   1413.33191     445.3908     325.4388
   1413.31665     443.3125     323.6993   1413.31665     443.3125     323.6993
   1413.30139     441.3423     321.6462   1413.30139     441.3423     321.6462
   1413.28613     438.2084     321.0430   1413.28613     438.2084     321.0430
   1413.27087     435.3351     319.0731   1413.27087     435.3351     319.0731
   1413.25562     432.7969     317.5344   1413.25562     432.7969     317.5344
   1413.24036     429.9541     316.1758   1413.24036     429.9541     316.1758
   1413.22510     427.7287     314.5702   1413.22510     427.7287     314.5702
   1413.20984     425.1147     312.8999   1413.20984     425.1147     312.8999
   1413.19458     422.3585     311.5084   1413.19458     422.3585     311.5084
   1413.17932     419.8313     310.2122   1413.17932     419.8313     310.2122
   1413.16406     418.5322     309.4090   1413.16406     418.5322     309.4090
   1413.14880     415.7151     307.0798   1413.14880     415.7151     307.0798
   1413.13354     413.9612     306.3051   1413.13354     413.9612     306.3051
   1413.11829     411.3084     304.4696   1413.11829     411.3084     304.4696
   1413.10303     408.3861     303.0598   1413.10303     408.3861     303.0598
   1413.08777     406.3893     301.4714   1413.08777     406.3893     301.4714
   1413.07251     403.5561     300.6364   1413.07251     403.5561     300.6364
   1413.05725     401.8513     299.1262   1413.05725     401.8513     299.1262
   1413.04199     400.2600     297.6523   1413.04199     400.2600     297.6523
   1413.02673     397.7592     296.7281   1413.02673     397.7592     296.7281
   1413.01147     395.4238     295.0268   1413.01147     395.4238     295.0268
   1412.99622     393.5292     294.2973   1412.99622     393.5292     294.2973
   1412.98096     391.6789     292.6102   1412.98096     391.6789     292.6102
   1412.96570     389.8225     291.5695   1412.96570     389.8225     291.5695
   1412.95044     388.4313     290.4774   1412.95044     388.4313     290.4774
   1412.93518     385.4594     289.2164   1412.93518     385.4594     289.2164
   1412.91992     383.7080     288.2367   1412.91992     383.7080     288.2367
   1412.90466     382.3436     286.8540   1412.90466     382.3436     286.8540
   1412.88940     380.6925     286.0605   1412.88940     380.6925     286.0605
   1412.87415     378.0829     284.3339   1412.87415     378.0829     284.3339
   1412.85889     376.9867     283.5016   1412.85889     376.9867     283.5016
   1412.84363     374.8430     282.7845   1412.84363     374.8430     282.7845
   1412.82837     374.0186     281.5951   1412.82837     374.0186     281.5951
   1412.81311     372.0851     280.7076   1412.81311     372.0851     280.7076
   1412.79785     371.3240     279.6403   1412.79785     371.3240     279.6403
   1412.78259     369.1880     278.3694   1412.78259     369.1880     278.3694
   1412.76733     368.1289     277.8993   1412.76733     368.1289     277.8993
   1412.75208     367.1526     277.5439   1412.75208     367.1526     277.5439
   1412.73682     365.9886     275.8056   1412.73682     365.9886     275.8056
   1412.72156     364.8884     275.5843   1412.72156     364.8884     275.5843
   1412.70630     362.8210     274.7205   1412.70630     362.8210     274.7205
   1412.69104     361.9675     274.1119   1412.69104     361.9675     274.1119
   1412.67578     361.4023     273.3278   1412.67578     361.4023     273.3278
   1412.66052     360.0285     272.1730   1412.66052     360.0285     272.1730
   1412.64526     359.1248     271.8183   1412.64526     359.1248     271.8183
   1412.63000     358.4230     271.5331   1412.63000     358.4230     271.5331
   1412.61475     357.5298     270.1485   1412.61475     357.5298     270.1485
   1412.59949     356.8038     270.2961   1412.59949     356.8038     270.2961
   1412.58423     355.7528     268.8838   1412.58423     355.7528     268.8838
   1412.56897     355.2928     268.3726   1412.56897     355.2928     268.3726
   1412.55371     354.2963     268.3304   1412.55371     354.2963     268.3304
   1412.53845     353.5889     267.9051   1412.53845     353.5889     267.9051
   1412.52319     353.0602     267.7978   1412.52319     353.0602     267.7978
   1412.50793     353.1361     267.0767   1412.50793     353.1361     267.0767
   1412.49268     352.6405     267.1959   1412.49268     352.6405     267.1959
   1412.47742     351.7689     266.6737   1412.47742     351.7689     266.6737
   1412.46216     351.2656     266.3191   1412.46216     351.2656     266.3191
   1412.44690     351.5126     266.2039   1412.44690     351.5126     266.2039
   1412.43164     351.0821     266.0330   1412.43164     351.0821     266.0330
   1412.41638     350.5899     265.7444   1412.41638     350.5899     265.7444
   1412.40112     350.6017     265.7396   1412.40112     350.6017     265.7396
   1412.38586     351.2131     265.8296   1412.38586     351.2131     265.8296
   1412.37061     350.5105     265.4894   1412.37061     350.5105     265.4894
   1412.35535     350.7429     265.4923   1412.35535     350.7429     265.4923
   1412.34009     350.5120     265.9656   1412.34009     350.5120     265.9656
   1412.32483     350.9013     265.3692   1412.32483     350.9013     265.3692
   1412.30957     351.0318     265.2594   1412.30957     351.0318     265.2594
   1412.29431     351.6170     265.6746   1412.29431     351.6170     265.6746
   1412.27905     351.2782     266.0463   1412.27905     351.2782     266.0463
   1412.26379     352.1882     266.3383   1412.26379     352.1882     266.3383
   1412.24854     352.0867     266.5524   1412.24854     352.0867     266.5524
   1412.23328     352.7521     267.1083   1412.23328     352.7521     267.1083
   1412.21802     353.0903     267.1572   1412.21802     353.0903     267.1572
   1412.20276     353.4047     267.6073   1412.20276     353.4047     267.6073