#     FILENAME=!Skynet_57533_lach-hhg-192-2_20790_21211.cyb.fits
#     BASENAME=Skynet_57533_lach-hhg-192-2_20790_21211
#     SRC_NAME=lach-hhg-192-2
#     OBSERVER=ccmadison16_9505
#     DATE_OBS=2016-05-25T18:39:52.180
#        OBSID=20790
#      SCANNUM=21211
#          MJD=57533.7787
#          UTC=67282
#     SCANTYPE=track
#     DATAMODE=HIRES
#     TUNEFREQ=1420.0000
# Actual_FREQ1=1420.0000
# Actual_FREQ2=1420.0000
#    LO1Tuning=6870.000
#     RFFILTER=1355_1435
#        OBSBW=-15.6250
#        NCHAN=1024 
#        FOCUS=37.0709
#           RA=06:11:50.09
#          DEC=18:32:23.54
#      RA(hrs)=6.197200
#     DEC(deg)=18.539900
#    AZIM(deg)=154.808
#    ELEV(deg)=68.399
#     IFattens=10.00, 9.00
#      WARNING=None
#    TCAL_XL1=7.9635
#    TCAL_YR1=9.1340
#    TCAL_XL2=7.9635
#    TCAL_YR2=9.1340
#     TRX_XL1=11.7060
#     TRX_YR1=11.7060
#     TRX_XL2=11.7060
#     TRX_YR2=11.7060
#        TAVE=1.0000
#Freq1(MHz)          XL1          YR1  Freq2(MHz)          XL2          YR2 

   1427.81250     368.9533     267.8054   1427.81250     368.9533     267.8054
   1427.79724     369.5623     268.4236   1427.79724     369.5623     268.4236
   1427.78198     369.1610     269.3945   1427.78198     369.1610     269.3945
   1427.76672     369.7295     270.3257   1427.76672     369.7295     270.3257
   1427.75146     370.6337     271.8473   1427.75146     370.6337     271.8473
   1427.73621     371.7069     272.4312   1427.73621     371.7069     272.4312
   1427.72095     372.3179     273.1395   1427.72095     372.3179     273.1395
   1427.70569     373.4901     274.6359   1427.70569     373.4901     274.6359
   1427.69043     374.3788     275.4058   1427.69043     374.3788     275.4058
   1427.67517     375.0257     276.7482   1427.67517     375.0257     276.7482
   1427.65991     376.5464     277.8503   1427.65991     376.5464     277.8503
   1427.64465     377.7773     278.7672   1427.64465     377.7773     278.7672
   1427.62939     378.3872     279.9684   1427.62939     378.3872     279.9684
   1427.61414     379.7894     280.9361   1427.61414     379.7894     280.9361
   1427.59888     380.5634     283.3146   1427.59888     380.5634     283.3146
   1427.58362     381.7623     284.1616   1427.58362     381.7623     284.1616
   1427.56836     383.8517     284.8381   1427.56836     383.8517     284.8381
   1427.55310     385.4396     286.8525   1427.55310     385.4396     286.8525
   1427.53784     386.3358     287.9998   1427.53784     386.3358     287.9998
   1427.52258     387.8802     289.4546   1427.52258     387.8802     289.4546
   1427.50732     390.1736     290.7260   1427.50732     390.1736     290.7260
   1427.49207     391.4911     292.5446   1427.49207     391.4911     292.5446
   1427.47681     393.5100     293.9151   1427.47681     393.5100     293.9151
   1427.46155     394.9333     295.7603   1427.46155     394.9333     295.7603
   1427.44629     396.6342     296.5881   1427.44629     396.6342     296.5881
   1427.43103     398.8332     298.7153   1427.43103     398.8332     298.7153
   1427.41577     400.4127     300.6425   1427.41577     400.4127     300.6425
   1427.40051     402.2070     300.9257   1427.40051     402.2070     300.9257
   1427.38525     404.4148     303.1479   1427.38525     404.4148     303.1479
   1427.37000     406.0030     305.1964   1427.37000     406.0030     305.1964
   1427.35474     408.3955     306.6565   1427.35474     408.3955     306.6565
   1427.33948     410.7694     308.0211   1427.33948     410.7694     308.0211
   1427.32422     411.8777     309.6163   1427.32422     411.8777     309.6163
   1427.30896     415.3284     311.2437   1427.30896     415.3284     311.2437
   1427.29370     417.1349     313.5540   1427.29370     417.1349     313.5540
   1427.27844     419.5698     315.4995   1427.27844     419.5698     315.4995
   1427.26318     421.7180     316.7627   1427.26318     421.7180     316.7627
   1427.24792     424.5999     318.6779   1427.24792     424.5999     318.6779
   1427.23267     426.4180     320.4254   1427.23267     426.4180     320.4254
   1427.21741     429.5042     322.0377   1427.21741     429.5042     322.0377
   1427.20215     432.0326     323.5486   1427.20215     432.0326     323.5486
   1427.18689     433.7163     325.7596   1427.18689     433.7163     325.7596
   1427.17163     437.2933     327.4817   1427.17163     437.2933     327.4817
   1427.15637     439.9767     328.8125   1427.15637     439.9767     328.8125
   1427.14111     441.4980     330.7814   1427.14111     441.4980     330.7814
   1427.12585     444.8795     333.2480   1427.12585     444.8795     333.2480
   1427.11060     448.4162     334.6468   1427.11060     448.4162     334.6468
   1427.09534     450.5844     337.1918   1427.09534     450.5844     337.1918
   1427.08008     453.9158     338.3619   1427.08008     453.9158     338.3619
   1427.06482     455.7673     340.8144   1427.06482     455.7673     340.8144
   1427.04956     459.1064     342.0809   1427.04956     459.1064     342.0809
   1427.03430     462.3838     344.9481   1427.03430     462.3838     344.9481
   1427.01904     464.5283     346.1688   1427.01904     464.5283     346.1688
   1427.00378     468.1150     348.0587   1427.00378     468.1150     348.0587
   1426.98853     471.7246     349.7032   1426.98853     471.7246     349.7032
   1426.97327     473.7700     351.7391   1426.97327     473.7700     351.7391
   1426.95801     477.1075     353.6144   1426.95801     477.1075     353.6144
   1426.94275     480.6112     355.3098   1426.94275     480.6112     355.3098
   1426.92749     483.1484     357.6857   1426.92749     483.1484     357.6857
   1426.91223     486.8526     359.6945   1426.91223     486.8526     359.6945
   1426.89697     489.5670     361.3210   1426.89697     489.5670     361.3210
   1426.88171     492.8941     363.3730   1426.88171     492.8941     363.3730
   1426.86646     496.1013     364.9208   1426.86646     496.1013     364.9208
   1426.85120     499.6320     367.0629   1426.85120     499.6320     367.0629
   1426.83594     501.8397     369.5674   1426.83594     501.8397     369.5674
   1426.82068     505.7036     370.2566   1426.82068     505.7036     370.2566
   1426.80542     508.5163     372.6227   1426.80542     508.5163     372.6227
   1426.79016     512.3026     374.6018   1426.79016     512.3026     374.6018
   1426.77490     515.7328     376.3940   1426.77490     515.7328     376.3940
   1426.75964     519.4628     378.8554   1426.75964     519.4628     378.8554
   1426.74438     521.8149     380.0719   1426.74438     521.8149     380.0719
   1426.72913     525.8989     382.0641   1426.72913     525.8989     382.0641
   1426.71387     528.5208     383.9865   1426.71387     528.5208     383.9865
   1426.69861     531.9583     385.6371   1426.69861     531.9583     385.6371
   1426.68335     535.9222     387.5246   1426.68335     535.9222     387.5246
   1426.66809     539.4586     389.2957   1426.66809     539.4586     389.2957
   1426.65283     543.2531     390.8849   1426.65283     543.2531     390.8849
   1426.63757     545.9104     393.1229   1426.63757     545.9104     393.1229
   1426.62231     551.3317     395.8770   1426.62231     551.3317     395.8770
   1426.60706     553.5741     398.3409   1426.60706     553.5741     398.3409
   1426.59180     555.9260     398.3164   1426.59180     555.9260     398.3164
   1426.57654     559.1458     400.4188   1426.57654     559.1458     400.4188
   1426.56128     562.6891     401.3990   1426.56128     562.6891     401.3990
   1426.54602     564.9568     403.6319   1426.54602     564.9568     403.6319
   1426.53076     569.8196     404.9431   1426.53076     569.8196     404.9431
   1426.51550     573.1759     407.2293   1426.51550     573.1759     407.2293
   1426.50024     576.0958     408.7006   1426.50024     576.0958     408.7006
   1426.48499     578.4219     410.2497   1426.48499     578.4219     410.2497
   1426.46973     583.3896     412.1407   1426.46973     583.3896     412.1407
   1426.45447     586.4797     413.5962   1426.45447     586.4797     413.5962
   1426.43921     589.3331     415.3315   1426.43921     589.3331     415.3315
   1426.42395     592.6196     416.2455   1426.42395     592.6196     416.2455
   1426.40869     596.3626     418.1477   1426.40869     596.3626     418.1477
   1426.39343     599.8586     420.4182   1426.39343     599.8586     420.4182
   1426.37817     602.9823     422.1847   1426.37817     602.9823     422.1847
   1426.36292     606.7246     423.1819   1426.36292     606.7246     423.1819
   1426.34766     610.1749     425.3157   1426.34766     610.1749     425.3157
   1426.33240     613.3381     426.5334   1426.33240     613.3381     426.5334
   1426.31714     616.2910     428.3094   1426.31714     616.2910     428.3094
   1426.30188     618.9813     429.6805   1426.30188     618.9813     429.6805
   1426.28662     622.1850     431.1325   1426.28662     622.1850     431.1325
   1426.27136     625.6478     432.3601   1426.27136     625.6478     432.3601
   1426.25610     630.1165     433.4847   1426.25610     630.1165     433.4847
   1426.24084     632.5513     435.3438   1426.24084     632.5513     435.3438
   1426.22559     636.3407     436.6381   1426.22559     636.3407     436.6381
   1426.21033     638.6772     437.5812   1426.21033     638.6772     437.5812
   1426.19507     641.4124     439.9300   1426.19507     641.4124     439.9300
   1426.17981     646.2463     441.3143   1426.17981     646.2463     441.3143
   1426.16455     648.5458     442.8378   1426.16455     648.5458     442.8378
   1426.14929     652.2738     443.5656   1426.14929     652.2738     443.5656
   1426.13403     654.3372     445.3360   1426.13403     654.3372     445.3360
   1426.11877     656.9664     447.3373   1426.11877     656.9664     447.3373
   1426.10352     661.2158     447.9895   1426.10352     661.2158     447.9895
   1426.08826     662.8112     449.2747   1426.08826     662.8112     449.2747
   1426.07300     666.3050     450.9142   1426.07300     666.3050     450.9142
   1426.05774     669.8989     451.2642   1426.05774     669.8989     451.2642
   1426.04248     671.7586     452.4782   1426.04248     671.7586     452.4782
   1426.02722     674.5270     454.2663   1426.02722     674.5270     454.2663
   1426.01196     677.0911     454.7602   1426.01196     677.0911     454.7602
   1425.99670     680.5276     455.8769   1425.99670     680.5276     455.8769
   1425.98145     682.6866     457.7262   1425.98145     682.6866     457.7262
   1425.96619     685.3295     458.9978   1425.96619     685.3295     458.9978
   1425.95093     689.3450     459.8548   1425.95093     689.3450     459.8548
   1425.93567     691.8679     460.6476   1425.93567     691.8679     460.6476
   1425.92041     695.2925     462.2158   1425.92041     695.2925     462.2158
   1425.90515     697.2131     463.3474   1425.90515     697.2131     463.3474
   1425.88989     698.7509     464.8911   1425.88989     698.7509     464.8911
   1425.87463     701.3994     465.2986   1425.87463     701.3994     465.2986
   1425.85938     703.4689     466.4606   1425.85938     703.4689     466.4606
   1425.84412     707.9054     467.0775   1425.84412     707.9054     467.0775
   1425.82886     709.0636     468.6847   1425.82886     709.0636     468.6847
   1425.81360     711.6573     469.5151   1425.81360     711.6573     469.5151
   1425.79834     714.4248     470.1385   1425.79834     714.4248     470.1385
   1425.78308     715.3307     471.4485   1425.78308     715.3307     471.4485
   1425.76782     719.5327     472.6750   1425.76782     719.5327     472.6750
   1425.75256     720.2332     473.4340   1425.75256     720.2332     473.4340
   1425.73730     723.3892     473.9568   1425.73730     723.3892     473.9568
   1425.72205     726.0107     475.1830   1425.72205     726.0107     475.1830
   1425.70679     727.5768     475.9784   1425.70679     727.5768     475.9784
   1425.69153     729.5752     476.6273   1425.69153     729.5752     476.6273
   1425.67627     732.2766     477.3955   1425.67627     732.2766     477.3955
   1425.66101     734.1400     478.5182   1425.66101     734.1400     478.5182
   1425.64575     735.8500     479.4160   1425.64575     735.8500     479.4160
   1425.63049     739.1094     480.9094   1425.63049     739.1094     480.9094
   1425.61523     739.7876     480.9624   1425.61523     739.7876     480.9624
   1425.59998     741.3356     482.4984   1425.59998     741.3356     482.4984
   1425.58472     745.2956     482.9304   1425.58472     745.2956     482.9304
   1425.56946     745.8609     483.8334   1425.56946     745.8609     483.8334
   1425.55420     748.7620     484.8860   1425.55420     748.7620     484.8860
   1425.53894     748.7589     485.2031   1425.53894     748.7589     485.2031
   1425.52368     751.4121     485.5334   1425.52368     751.4121     485.5334
   1425.50842     752.8563     486.8813   1425.50842     752.8563     486.8813
   1425.49316     754.4237     488.1267   1425.49316     754.4237     488.1267
   1425.47791     756.0997     488.2396   1425.47791     756.0997     488.2396
   1425.46265     758.0027     488.4398   1425.46265     758.0027     488.4398
   1425.44739     760.1340     489.5311   1425.44739     760.1340     489.5311
   1425.43213     761.3448     489.8242   1425.43213     761.3448     489.8242
   1425.41687     762.1616     490.8229   1425.41687     762.1616     490.8229
   1425.40161     763.3723     490.8648   1425.40161     763.3723     490.8648
   1425.38635     765.3921     491.7399   1425.38635     765.3921     491.7399
   1425.37109     767.6431     492.9260   1425.37109     767.6431     492.9260
   1425.35583     768.1297     493.5683   1425.35583     768.1297     493.5683
   1425.34058     769.0670     494.3013   1425.34058     769.0670     494.3013
   1425.32532     769.9215     493.7775   1425.32532     769.9215     493.7775
   1425.31006     771.4492     495.5814   1425.31006     771.4492     495.5814
   1425.29480     773.2664     495.7701   1425.29480     773.2664     495.7701
   1425.27954     774.1345     496.2947   1425.27954     774.1345     496.2947
   1425.26428     773.7813     496.6025   1425.26428     773.7813     496.6025
   1425.24902     776.1862     496.9847   1425.24902     776.1862     496.9847
   1425.23376     776.6885     497.4622   1425.23376     776.6885     497.4622
   1425.21851     778.1997     498.5283   1425.21851     778.1997     498.5283
   1425.20325     779.6970     498.7936   1425.20325     779.6970     498.7936
   1425.18799     779.4742     499.3016   1425.18799     779.4742     499.3016
   1425.17273     781.3640     500.0426   1425.17273     781.3640     500.0426
   1425.15747     781.7314     500.2984   1425.15747     781.7314     500.2984
   1425.14221     781.8658     500.8242   1425.14221     781.8658     500.8242
   1425.12695     782.6962     501.3900   1425.12695     782.6962     501.3900
   1425.11169     783.5634     502.5467   1425.11169     783.5634     502.5467
   1425.09644     785.0385     502.9427   1425.09644     785.0385     502.9427
   1425.08118     786.3984     503.1835   1425.08118     786.3984     503.1835
   1425.06592     786.8892     503.7959   1425.06592     786.8892     503.7959
   1425.05066     787.6560     504.0617   1425.05066     787.6560     504.0617
   1425.03540     787.3931     503.6882   1425.03540     787.3931     503.6882
   1425.02014     788.1287     504.5643   1425.02014     788.1287     504.5643
   1425.00488     788.1589     505.1343   1425.00488     788.1589     505.1343
   1424.98962     788.2659     505.9579   1424.98962     788.2659     505.9579
   1424.97437     789.7604     504.8629   1424.97437     789.7604     504.8629
   1424.95911     789.9658     506.6334   1424.95911     789.9658     506.6334
   1424.94385     790.8465     506.6277   1424.94385     790.8465     506.6277
   1424.92859     789.0402     507.4919   1424.92859     789.0402     507.4919
   1424.91333     790.2139     506.9925   1424.91333     790.2139     506.9925
   1424.89807     790.8049     507.5916   1424.89807     790.8049     507.5916
   1424.88281     791.0984     508.0730   1424.88281     791.0984     508.0730
   1424.86755     792.1048     509.2542   1424.86755     792.1048     509.2542
   1424.85229     792.8188     509.2083   1424.85229     792.8188     509.2083
   1424.83704     791.7890     509.7936   1424.83704     791.7890     509.7936
   1424.82178     793.0131     509.5069   1424.82178     793.0131     509.5069
   1424.80652     792.4092     509.9916   1424.80652     792.4092     509.9916
   1424.79126     792.8604     510.3026   1424.79126     792.8604     510.3026
   1424.77600     793.8490     510.4872   1424.77600     793.8490     510.4872
   1424.76074     792.4465     510.9564   1424.76074     792.4465     510.9564
   1424.74548     795.1226     511.2148   1424.74548     795.1226     511.2148
   1424.73022     793.2653     510.9406   1424.73022     793.2653     510.9406
   1424.71497     790.9446     511.9037   1424.71497     790.9446     511.9037
   1424.69971     794.0532     511.7535   1424.69971     794.0532     511.7535
   1424.68445     793.9789     512.0681   1424.68445     793.9789     512.0681
   1424.66919     793.1020     512.9627   1424.66919     793.1020     512.9627
   1424.65393     791.7382     513.3088   1424.65393     791.7382     513.3088
   1424.63867     792.2261     513.3211   1424.63867     792.2261     513.3211
   1424.62341     791.5361     513.5353   1424.62341     791.5361     513.5353
   1424.60815     791.5699     513.6843   1424.60815     791.5699     513.6843
   1424.59290     791.4865     513.9782   1424.59290     791.4865     513.9782
   1424.57764     791.0388     513.6510   1424.57764     791.0388     513.6510
   1424.56238     792.0530     514.4497   1424.56238     792.0530     514.4497
   1424.54712     790.5555     514.4085   1424.54712     790.5555     514.4085
   1424.53186     789.6133     515.0993   1424.53186     789.6133     515.0993
   1424.51660     790.5389     515.3931   1424.51660     790.5389     515.3931
   1424.50134     790.5217     514.6790   1424.50134     790.5217     514.6790
   1424.48608     789.5914     515.4202   1424.48608     789.5914     515.4202
   1424.47083     788.7805     515.9860   1424.47083     788.7805     515.9860
   1424.45557     789.6705     516.1245   1424.45557     789.6705     516.1245
   1424.44031     787.9949     516.4225   1424.44031     787.9949     516.4225
   1424.42505     788.9077     515.6109   1424.42505     788.9077     515.6109
   1424.40979     786.7567     516.4048   1424.40979     786.7567     516.4048
   1424.39453     787.1714     516.5256   1424.39453     787.1714     516.5256
   1424.37927     787.2693     516.0786   1424.37927     787.2693     516.0786
   1424.36401     785.9509     516.5215   1424.36401     785.9509     516.5215
   1424.34875     785.7509     516.7717   1424.34875     785.7509     516.7717
   1424.33350     785.6786     519.0770   1424.33350     785.6786     519.0770
   1424.31824     786.0904     517.6937   1424.31824     786.0904     517.6937
   1424.30298     785.2171     517.9723   1424.30298     785.2171     517.9723
   1424.28772     784.4690     517.2754   1424.28772     784.4690     517.2754
   1424.27246     783.4688     517.2659   1424.27246     783.4688     517.2659
   1424.25720     782.8837     518.2354   1424.25720     782.8837     518.2354
   1424.24194     783.6047     518.5228   1424.24194     783.6047     518.5228
   1424.22668     782.4084     518.3154   1424.22668     782.4084     518.3154
   1424.21143     781.0703     517.4011   1424.21143     781.0703     517.4011
   1424.19617     779.5602     518.1188   1424.19617     779.5602     518.1188
   1424.18091     780.6461     519.0972   1424.18091     780.6461     519.0972
   1424.16565     778.7800     518.1968   1424.16565     778.7800     518.1968
   1424.15039     778.9213     518.9759   1424.15039     778.9213     518.9759
   1424.13513     777.7656     518.5246   1424.13513     777.7656     518.5246
   1424.11987     777.3970     518.9435   1424.11987     777.3970     518.9435
   1424.10461     777.2405     518.7192   1424.10461     777.2405     518.7192
   1424.08936     776.5944     518.8788   1424.08936     776.5944     518.8788
   1424.07410     776.0192     518.6304   1424.07410     776.0192     518.6304
   1424.05884     774.8292     518.7146   1424.05884     774.8292     518.7146
   1424.04358     773.6127     518.4670   1424.04358     773.6127     518.4670
   1424.02832     773.9766     519.3762   1424.02832     773.9766     519.3762
   1424.01306     772.4384     518.9028   1424.01306     772.4384     518.9028
   1423.99780     772.3159     518.9583   1423.99780     772.3159     518.9583
   1423.98254     771.1884     518.8893   1423.98254     771.1884     518.8893
   1423.96729     771.2328     519.5629   1423.96729     771.2328     519.5629
   1423.95203     769.1769     518.6665   1423.95203     769.1769     518.6665
   1423.93677     769.1024     519.5261   1423.93677     769.1024     519.5261
   1423.92151     767.9085     518.9589   1423.92151     767.9085     518.9589
   1423.90625     769.1453     519.3333   1423.90625     769.1453     519.3333
   1423.89099     767.9105     519.5426   1423.89099     767.9105     519.5426
   1423.87573     766.7215     518.0581   1423.87573     766.7215     518.0581
   1423.86047     765.5007     518.2473   1423.86047     765.5007     518.2473
   1423.84521     764.6172     518.5397   1423.84521     764.6172     518.5397
   1423.82996     763.7644     518.0284   1423.82996     763.7644     518.0284
   1423.81470     763.4457     519.4075   1423.81470     763.4457     519.4075
   1423.79944     763.2498     519.4422   1423.79944     763.2498     519.4422
   1423.78418     762.5401     518.4012   1423.78418     762.5401     518.4012
   1423.76892     760.9717     517.9460   1423.76892     760.9717     517.9460
   1423.75366     759.1214     518.9600   1423.75366     759.1214     518.9600
   1423.73840     759.1661     519.2753   1423.73840     759.1661     519.2753
   1423.72314     759.7536     518.5192   1423.72314     759.7536     518.5192
   1423.70789     758.7014     518.6420   1423.70789     758.7014     518.6420
   1423.69263     756.4703     518.3130   1423.69263     756.4703     518.3130
   1423.67737     757.8678     518.1735   1423.67737     757.8678     518.1735
   1423.66211     754.9842     517.5236   1423.66211     754.9842     517.5236
   1423.64685     755.4412     517.5262   1423.64685     755.4412     517.5262
   1423.63159     755.1571     517.4034   1423.63159     755.1571     517.4034
   1423.61633     753.7739     517.4692   1423.61633     753.7739     517.4692
   1423.60107     752.0028     517.9012   1423.60107     752.0028     517.9012
   1423.58582     753.9348     516.7949   1423.58582     753.9348     516.7949
   1423.57056     751.9171     516.4288   1423.57056     751.9171     516.4288
   1423.55530     750.6628     516.7810   1423.55530     750.6628     516.7810
   1423.54004     748.9155     515.9315   1423.54004     748.9155     515.9315
   1423.52478     750.1993     516.3978   1423.52478     750.1993     516.3978
   1423.50952     747.3693     515.9189   1423.50952     747.3693     515.9189
   1423.49426     747.5722     516.7905   1423.49426     747.5722     516.7905
   1423.47900     746.6330     515.5691   1423.47900     746.6330     515.5691
   1423.46375     747.3775     515.6118   1423.46375     747.3775     515.6118
   1423.44849     746.3169     515.7776   1423.44849     746.3169     515.7776
   1423.43323     745.0392     515.6792   1423.43323     745.0392     515.6792
   1423.41797     744.5655     514.6743   1423.41797     744.5655     514.6743
   1423.40271     744.2963     513.4393   1423.40271     744.2963     513.4393
   1423.38745     742.3491     513.4371   1423.38745     742.3491     513.4371
   1423.37219     742.6985     513.8756   1423.37219     742.6985     513.8756
   1423.35693     741.4329     512.9584   1423.35693     741.4329     512.9584
   1423.34167     741.3428     513.9105   1423.34167     741.3428     513.9105
   1423.32642     741.2505     512.8925   1423.32642     741.2505     512.8925
   1423.31116     740.3165     512.3420   1423.31116     740.3165     512.3420
   1423.29590     738.9668     512.2611   1423.29590     738.9668     512.2611
   1423.28064     737.7742     511.8830   1423.28064     737.7742     511.8830
   1423.26538     738.5312     512.0422   1423.26538     738.5312     512.0422
   1423.25012     736.2744     510.8193   1423.25012     736.2744     510.8193
   1423.23486     736.2471     510.5947   1423.23486     736.2471     510.5947
   1423.21960     735.9426     510.5894   1423.21960     735.9426     510.5894
   1423.20435     734.6921     509.6195   1423.20435     734.6921     509.6195
   1423.18909     734.2240     509.4092   1423.18909     734.2240     509.4092
   1423.17383     733.6642     509.5287   1423.17383     733.6642     509.5287
   1423.15857     732.7764     508.0016   1423.15857     732.7764     508.0016
   1423.14331     732.9031     508.8264   1423.14331     732.9031     508.8264
   1423.12805     731.9205     508.2031   1423.12805     731.9205     508.2031
   1423.11279     731.5643     507.5361   1423.11279     731.5643     507.5361
   1423.09753     731.3780     507.0614   1423.09753     731.3780     507.0614
   1423.08228     729.8199     506.3448   1423.08228     729.8199     506.3448
   1423.06702     728.8805     505.3225   1423.06702     728.8805     505.3225
   1423.05176     729.0839     505.0970   1423.05176     729.0839     505.0970
   1423.03650     728.6682     505.5264   1423.03650     728.6682     505.5264
   1423.02124     728.4856     504.4481   1423.02124     728.4856     504.4481
   1423.00598     728.3822     504.7903   1423.00598     728.3822     504.7903
   1422.99072     726.7948     503.9646   1422.99072     726.7948     503.9646
   1422.97546     726.3165     502.8595   1422.97546     726.3165     502.8595
   1422.96021     725.2205     503.9412   1422.96021     725.2205     503.9412
   1422.94495     724.5955     501.8624   1422.94495     724.5955     501.8624
   1422.92969     725.5653     502.0615   1422.92969     725.5653     502.0615
   1422.91443     725.3505     500.7349   1422.91443     725.3505     500.7349
   1422.89917     723.6879     500.5974   1422.89917     723.6879     500.5974
   1422.88391     722.5870     499.8695   1422.88391     722.5870     499.8695
   1422.86865     723.1144     499.0618   1422.86865     723.1144     499.0618
   1422.85339     722.6284     498.7631   1422.85339     722.6284     498.7631
   1422.83813     721.6410     497.5345   1422.83813     721.6410     497.5345
   1422.82288     721.2703     496.8594   1422.82288     721.2703     496.8594
   1422.80762     720.4750     496.8610   1422.80762     720.4750     496.8610
   1422.79236     720.9914     496.0029   1422.79236     720.9914     496.0029
   1422.77710     720.8573     495.0237   1422.77710     720.8573     495.0237
   1422.76184     719.2512     495.1410   1422.76184     719.2512     495.1410
   1422.74658     719.6677     494.3123   1422.74658     719.6677     494.3123
   1422.73132     719.5294     493.0093   1422.73132     719.5294     493.0093
   1422.71606     718.1261     492.2285   1422.71606     718.1261     492.2285
   1422.70081     718.2831     491.6902   1422.70081     718.2831     491.6902
   1422.68555     718.4539     491.4687   1422.68555     718.4539     491.4687
   1422.67029     717.4399     490.7748   1422.67029     717.4399     490.7748
   1422.65503     717.3891     489.6388   1422.65503     717.3891     489.6388
   1422.63977     716.7983     489.2910   1422.63977     716.7983     489.2910
   1422.62451     716.3705     488.7335   1422.62451     716.3705     488.7335
   1422.60925     717.1115     488.0975   1422.60925     717.1115     488.0975
   1422.59399     715.7540     487.0581   1422.59399     715.7540     487.0581
   1422.57874     714.6435     485.9807   1422.57874     714.6435     485.9807
   1422.56348     714.8751     485.7473   1422.56348     714.8751     485.7473
   1422.54822     714.1844     483.9559   1422.54822     714.1844     483.9559
   1422.53296     715.6102     483.2906   1422.53296     715.6102     483.2906
   1422.51770     713.0550     482.9921   1422.51770     713.0550     482.9921
   1422.50244     714.6251     482.3145   1422.50244     714.6251     482.3145
   1422.48718     712.4986     481.2730   1422.48718     712.4986     481.2730
   1422.47192     712.7868     481.4617   1422.47192     712.7868     481.4617
   1422.45667     712.1329     479.8948   1422.45667     712.1329     479.8948
   1422.44141     712.8464     478.8107   1422.44141     712.8464     478.8107
   1422.42615     712.8799     478.1818   1422.42615     712.8799     478.1818
   1422.41089     711.5927     477.7320   1422.41089     711.5927     477.7320
   1422.39563     711.1730     476.7100   1422.39563     711.1730     476.7100
   1422.38037     710.1735     474.7014   1422.38037     710.1735     474.7014
   1422.36511     711.0956     474.4678   1422.36511     711.0956     474.4678
   1422.34985     710.8826     474.1561   1422.34985     710.8826     474.1561
   1422.33459     711.1675     472.3949   1422.33459     711.1675     472.3949
   1422.31934     711.1958     471.1600   1422.31934     711.1958     471.1600
   1422.30408     709.8422     471.1025   1422.30408     709.8422     471.1025
   1422.28882     710.6768     470.4035   1422.28882     710.6768     470.4035
   1422.27356     710.4684     469.3109   1422.27356     710.4684     469.3109
   1422.25830     709.6403     468.6191   1422.25830     709.6403     468.6191
   1422.24304     709.7621     468.0708   1422.24304     709.7621     468.0708
   1422.22778     709.7706     466.0531   1422.22778     709.7706     466.0531
   1422.21252     708.6148     465.5754   1422.21252     708.6148     465.5754
   1422.19727     709.3168     464.0774   1422.19727     709.3168     464.0774
   1422.18201     708.5295     463.4402   1422.18201     708.5295     463.4402
   1422.16675     709.4366     461.8761   1422.16675     709.4366     461.8761
   1422.15149     707.8754     460.8832   1422.15149     707.8754     460.8832
   1422.13623     709.1575     461.2137   1422.13623     709.1575     461.2137
   1422.12097     706.7043     459.4500   1422.12097     706.7043     459.4500
   1422.10571     706.5996     459.2083   1422.10571     706.5996     459.2083
   1422.09045     708.1459     458.0286   1422.09045     708.1459     458.0286
   1422.07520     706.4790     456.4112   1422.07520     706.4790     456.4112
   1422.05994     707.5205     455.3380   1422.05994     707.5205     455.3380
   1422.04468     706.5072     454.8611   1422.04468     706.5072     454.8611
   1422.02942     705.8611     453.7834   1422.02942     705.8611     453.7834
   1422.01416     706.4561     452.9926   1422.01416     706.4561     452.9926
   1421.99890     707.1244     451.3340   1421.99890     707.1244     451.3340
   1421.98364     706.8112     450.7906   1421.98364     706.8112     450.7906
   1421.96838     705.8887     450.4069   1421.96838     705.8887     450.4069
   1421.95312     705.5200     448.3725   1421.95312     705.5200     448.3725
   1421.93787     705.4306     447.7564   1421.93787     705.4306     447.7564
   1421.92261     705.4984     446.7509   1421.92261     705.4984     446.7509
   1421.90735     704.8828     445.8528   1421.90735     704.8828     445.8528
   1421.89209     704.8875     444.8585   1421.89209     704.8875     444.8585
   1421.87683     704.0271     443.2502   1421.87683     704.0271     443.2502
   1421.86157     704.4569     442.6396   1421.86157     704.4569     442.6396
   1421.84631     704.7797     442.0816   1421.84631     704.7797     442.0816
   1421.83105     703.8699     440.2849   1421.83105     703.8699     440.2849
   1421.81580     703.2699     438.8449   1421.81580     703.2699     438.8449
   1421.80054     704.1474     439.1207   1421.80054     704.1474     439.1207
   1421.78528     703.1332     437.4449   1421.78528     703.1332     437.4449
   1421.77002     703.5042     436.1797   1421.77002     703.5042     436.1797
   1421.75476     704.9062     435.1677   1421.75476     704.9062     435.1677
   1421.73950     703.0767     434.1428   1421.73950     703.0767     434.1428
   1421.72424     702.2474     433.7822   1421.72424     702.2474     433.7822
   1421.70898     702.9437     432.1910   1421.70898     702.9437     432.1910
   1421.69373     702.0305     432.2534   1421.69373     702.0305     432.2534
   1421.67847     701.7639     430.2850   1421.67847     701.7639     430.2850
   1421.66321     703.2905     428.8025   1421.66321     703.2905     428.8025
   1421.64795     701.7434     428.2423   1421.64795     701.7434     428.2423
   1421.63269     702.6907     426.5822   1421.63269     702.6907     426.5822
   1421.61743     702.3752     425.8767   1421.61743     702.3752     425.8767
   1421.60217     701.7445     424.6836   1421.60217     701.7445     424.6836
   1421.58691     701.4127     424.2730   1421.58691     701.4127     424.2730
   1421.57166     701.5589     423.5097   1421.57166     701.5589     423.5097
   1421.55640     700.6507     421.7231   1421.55640     700.6507     421.7231
   1421.54114     701.0356     420.8505   1421.54114     701.0356     420.8505
   1421.52588     701.7376     419.8515   1421.52588     701.7376     419.8515
   1421.51062     700.8279     418.9181   1421.51062     700.8279     418.9181
   1421.49536     701.3478     417.6893   1421.49536     701.3478     417.6893
   1421.48010     700.0573     416.0113   1421.48010     700.0573     416.0113
   1421.46484     700.4827     415.5191   1421.46484     700.4827     415.5191
   1421.44958     698.7714     414.8462   1421.44958     698.7714     414.8462
   1421.43433     698.7171     413.8220   1421.43433     698.7171     413.8220
   1421.41907     700.3892     412.6307   1421.41907     700.3892     412.6307
   1421.40381     700.1115     411.2225   1421.40381     700.1115     411.2225
   1421.38855     699.0833     410.5587   1421.38855     699.0833     410.5587
   1421.37329     700.4369     409.4044   1421.37329     700.4369     409.4044
   1421.35803     700.1340     409.3163   1421.35803     700.1340     409.3163
   1421.34277     698.9639     407.6437   1421.34277     698.9639     407.6437
   1421.32751     699.2353     406.9569   1421.32751     699.2353     406.9569
   1421.31226     698.7368     405.6520   1421.31226     698.7368     405.6520
   1421.29700     698.6646     405.3516   1421.29700     698.6646     405.3516
   1421.28174     697.0652     404.1440   1421.28174     697.0652     404.1440
   1421.26648     698.9119     401.8849   1421.26648     698.9119     401.8849
   1421.25122     698.0120     401.6529   1421.25122     698.0120     401.6529
   1421.23596     697.9483     401.3864   1421.23596     697.9483     401.3864
   1421.22070     698.4453     399.6329   1421.22070     698.4453     399.6329
   1421.20544     697.3069     398.7491   1421.20544     697.3069     398.7491
   1421.19019     697.9607     397.5169   1421.19019     697.9607     397.5169
   1421.17493     697.6234     396.2786   1421.17493     697.6234     396.2786
   1421.15967     697.0742     396.0344   1421.15967     697.0742     396.0344
   1421.14441     697.5446     394.5639   1421.14441     697.5446     394.5639
   1421.12915     696.5848     393.2691   1421.12915     696.5848     393.2691
   1421.11389     696.8535     392.6429   1421.11389     696.8535     392.6429
   1421.09863     695.3849     391.5766   1421.09863     695.3849     391.5766
   1421.08337     695.4169     391.2090   1421.08337     695.4169     391.2090
   1421.06812     695.6816     390.5030   1421.06812     695.6816     390.5030
   1421.05286     695.5844     388.3711   1421.05286     695.5844     388.3711
   1421.03760     695.6262     387.5738   1421.03760     695.6262     387.5738
   1421.02234     695.5735     387.0104   1421.02234     695.5735     387.0104
   1421.00708     694.9509     386.5515   1421.00708     694.9509     386.5515
   1420.99182     696.2074     385.3933   1420.99182     696.2074     385.3933
   1420.97656     695.1721     383.9370   1420.97656     695.1721     383.9370
   1420.96130     695.3489     383.3646   1420.96130     695.3489     383.3646
   1420.94604     694.3379     382.3809   1420.94604     694.3379     382.3809
   1420.93079     695.7838     381.5505   1420.93079     695.7838     381.5505
   1420.91553     695.7661     380.6238   1420.91553     695.7661     380.6238
   1420.90027     693.7200     379.8544   1420.90027     693.7200     379.8544
   1420.88501     695.7789     378.9540   1420.88501     695.7789     378.9540
   1420.86975     693.7009     377.8768   1420.86975     693.7009     377.8768
   1420.85449     694.3665     377.4070   1420.85449     694.3665     377.4070
   1420.83923     695.1052     376.0476   1420.83923     695.1052     376.0476
   1420.82397     694.9645     375.7577   1420.82397     694.9645     375.7577
   1420.80872     694.1827     374.9919   1420.80872     694.1827     374.9919
   1420.79346     694.8635     373.3713   1420.79346     694.8635     373.3713
   1420.77820     695.4839     373.6611   1420.77820     695.4839     373.6611
   1420.76294     696.9736     372.9324   1420.76294     696.9736     372.9324
   1420.74768     695.2979     372.1936   1420.74768     695.2979     372.1936
   1420.73242     695.5132     371.7709   1420.73242     695.5132     371.7709
   1420.71716     696.6661     371.2901   1420.71716     696.6661     371.2901
   1420.70190     695.8143     370.0818   1420.70190     695.8143     370.0818
   1420.68665     696.7855     369.8582   1420.68665     696.7855     369.8582
   1420.67139     697.1952     369.0580   1420.67139     697.1952     369.0580
   1420.65613     697.9844     369.0076   1420.65613     697.9844     369.0076
   1420.64087     698.3338     368.5200   1420.64087     698.3338     368.5200
   1420.62561     698.3962     367.5692   1420.62561     698.3962     367.5692
   1420.61035     701.0541     367.3458   1420.61035     701.0541     367.3458
   1420.59509     701.8214     367.3059   1420.59509     701.8214     367.3059
   1420.57983     703.1448     367.2171   1420.57983     703.1448     367.2171
   1420.56458     703.9747     367.6415   1420.56458     703.9747     367.6415
   1420.54932     705.8942     367.6850   1420.54932     705.8942     367.6850
   1420.53406     708.3474     367.7176   1420.53406     708.3474     367.7176
   1420.51880     708.5726     367.4821   1420.51880     708.5726     367.4821
   1420.50354     709.3560     367.5132   1420.50354     709.3560     367.5132
   1420.48828     709.0187     366.4546   1420.48828     709.0187     366.4546
   1420.47302     708.9415     366.3135   1420.47302     708.9415     366.3135
   1420.45776     710.3716     365.8417   1420.45776     710.3716     365.8417
   1420.44250     710.9529     365.6747   1420.44250     710.9529     365.6747
   1420.42725     715.0477     366.9077   1420.42725     715.0477     366.9077
   1420.41199     716.7854     367.1931   1420.41199     716.7854     367.1931
   1420.39673     721.6265     368.4241   1420.39673     721.6265     368.4241
   1420.38147     728.5853     371.8576   1420.38147     728.5853     371.8576
   1420.36621     747.7697     380.2574   1420.36621     747.7697     380.2574
   1420.35095     785.7344     397.8531   1420.35095     785.7344     397.8531
   1420.33569     874.8720     441.7022   1420.33569     874.8720     441.7022
   1420.32043    1119.5844     559.2834   1420.32043    1119.5844     559.2834
   1420.30518    1581.5955     784.4157   1420.30518    1581.5955     784.4157
   1420.28992    1925.9717     952.3867   1420.28992    1925.9717     952.3867
   1420.27466    2083.7966    1028.0389   1420.27466    2083.7966    1028.0389
   1420.25940    2353.2717    1158.8774   1420.25940    2353.2717    1158.8774
   1420.24414    2577.8047    1265.3162   1420.24414    2577.8047    1265.3162
   1420.22888    2774.9534    1360.8488   1420.22888    2774.9534    1360.8488
   1420.21362    2680.3586    1311.1732   1420.21362    2680.3586    1311.1732
   1420.19836    2537.4944    1239.0111   1420.19836    2537.4944    1239.0111
   1420.18311    2132.4858    1042.5643   1420.18311    2132.4858    1042.5643
   1420.16785    1629.4917     798.0437   1420.16785    1629.4917     798.0437
   1420.15259    1223.2449     601.3198   1420.15259    1223.2449     601.3198
   1420.13733    1009.6589     498.0475   1420.13733    1009.6589     498.0475
   1420.12207     882.4879     436.4753   1420.12207     882.4879     436.4753
   1420.10681     799.3832     395.6795   1420.10681     799.3832     395.6795
   1420.09155     751.0042     371.1435   1420.09155     751.0042     371.1435
   1420.07629     722.8139     357.6051   1420.07629     722.8139     357.6051
   1420.06104     707.3005     350.2717   1420.06104     707.3005     350.2717
   1420.04578     700.2130     345.9648   1420.04578     700.2130     345.9648
   1420.03052     695.7598     343.6615   1420.03052     695.7598     343.6615
   1420.01526     694.1705     343.3926   1420.01526     694.1705     343.3926
   1420.00000     694.6118     341.9332   1420.00000     694.6118     341.9332
   1419.98474     695.0532     340.4738   1419.98474     695.0532     340.4738
   1419.96948     690.0336     338.6110   1419.96948     690.0336     338.6110
   1419.95422     687.9810     337.8865   1419.95422     687.9810     337.8865
   1419.93896     687.2767     337.4401   1419.93896     687.2767     337.4401
   1419.92371     687.7275     337.0681   1419.92371     687.7275     337.0681
   1419.90845     687.3423     335.8148   1419.90845     687.3423     335.8148
   1419.89319     687.6148     335.3439   1419.89319     687.6148     335.3439
   1419.87793     686.4398     335.2691   1419.87793     686.4398     335.2691
   1419.86267     686.8871     334.2289   1419.86267     686.8871     334.2289
   1419.84741     686.8889     333.9296   1419.84741     686.8889     333.9296
   1419.83215     686.9814     333.6208   1419.83215     686.9814     333.6208
   1419.81689     686.8633     333.1297   1419.81689     686.8633     333.1297
   1419.80164     686.9607     332.6969   1419.80164     686.9607     332.6969
   1419.78638     686.8446     332.5822   1419.78638     686.8446     332.5822
   1419.77112     686.7699     331.9952   1419.77112     686.7699     331.9952
   1419.75586     686.3298     331.5766   1419.75586     686.3298     331.5766
   1419.74060     686.5474     331.1191   1419.74060     686.5474     331.1191
   1419.72534     685.5538     330.8418   1419.72534     685.5538     330.8418
   1419.71008     686.5629     330.6795   1419.71008     686.5629     330.6795
   1419.69482     686.9955     330.0610   1419.69482     686.9955     330.0610
   1419.67957     686.8806     330.2293   1419.67957     686.8806     330.2293
   1419.66431     687.1217     330.4627   1419.66431     687.1217     330.4627
   1419.64905     687.5447     329.8368   1419.64905     687.5447     329.8368
   1419.63379     687.6647     329.7001   1419.63379     687.6647     329.7001
   1419.61853     687.1884     329.7358   1419.61853     687.1884     329.7358
   1419.60327     687.1653     328.8198   1419.60327     687.1653     328.8198
   1419.58801     688.0626     329.1272   1419.58801     688.0626     329.1272
   1419.57275     687.3787     328.5986   1419.57275     687.3787     328.5986
   1419.55750     689.2265     328.2408   1419.55750     689.2265     328.2408
   1419.54224     688.7068     328.7128   1419.54224     688.7068     328.7128
   1419.52698     688.6459     328.8910   1419.52698     688.6459     328.8910
   1419.51172     689.0884     328.1403   1419.51172     689.0884     328.1403
   1419.49646     688.8325     327.9904   1419.49646     688.8325     327.9904
   1419.48120     689.6326     327.7781   1419.48120     689.6326     327.7781
   1419.46594     688.2323     327.4477   1419.46594     688.2323     327.4477
   1419.45068     689.3924     327.3119   1419.45068     689.3924     327.3119
   1419.43542     690.7829     328.0142   1419.43542     690.7829     328.0142
   1419.42017     690.2783     327.3020   1419.42017     690.2783     327.3020
   1419.40491     688.9278     327.2256   1419.40491     688.9278     327.2256
   1419.38965     690.5523     327.2271   1419.38965     690.5523     327.2271
   1419.37439     690.5338     326.8576   1419.37439     690.5338     326.8576
   1419.35913     691.2010     327.1548   1419.35913     691.2010     327.1548
   1419.34387     691.1223     327.2953   1419.34387     691.1223     327.2953
   1419.32861     692.0760     327.6017   1419.32861     692.0760     327.6017
   1419.31335     692.4398     327.0336   1419.31335     692.4398     327.0336
   1419.29810     691.5098     326.8761   1419.29810     691.5098     326.8761
   1419.28284     691.6884     327.9358   1419.28284     691.6884     327.9358
   1419.26758     693.3058     327.1445   1419.26758     693.3058     327.1445
   1419.25232     693.5964     327.5601   1419.25232     693.5964     327.5601
   1419.23706     693.7200     327.5793   1419.23706     693.7200     327.5793
   1419.22180     693.4485     327.5127   1419.22180     693.4485     327.5127
   1419.20654     693.7927     327.7315   1419.20654     693.7927     327.7315
   1419.19128     694.5923     327.3192   1419.19128     694.5923     327.3192
   1419.17603     694.0164     327.5998   1419.17603     694.0164     327.5998
   1419.16077     695.5283     327.9572   1419.16077     695.5283     327.9572
   1419.14551     695.1871     327.9160   1419.14551     695.1871     327.9160
   1419.13025     696.6599     327.7056   1419.13025     696.6599     327.7056
   1419.11499     696.4048     327.8044   1419.11499     696.4048     327.8044
   1419.09973     696.8382     328.2185   1419.09973     696.8382     328.2185
   1419.08447     696.8001     328.1625   1419.08447     696.8001     328.1625
   1419.06921     697.8812     328.7452   1419.06921     697.8812     328.7452
   1419.05396     697.9775     328.8230   1419.05396     697.9775     328.8230
   1419.03870     698.1382     329.0023   1419.03870     698.1382     329.0023
   1419.02344     698.3574     328.9337   1419.02344     698.3574     328.9337
   1419.00818     699.2705     328.8048   1419.00818     699.2705     328.8048
   1418.99292     698.9963     329.4962   1418.99292     698.9963     329.4962
   1418.97766     700.7999     329.4321   1418.97766     700.7999     329.4321
   1418.96240     701.2365     329.8900   1418.96240     701.2365     329.8900
   1418.94714     700.7116     329.5903   1418.94714     700.7116     329.5903
   1418.93188     701.5334     330.4154   1418.93188     701.5334     330.4154
   1418.91663     702.3570     330.4243   1418.91663     702.3570     330.4243
   1418.90137     701.7000     331.2885   1418.90137     701.7000     331.2885
   1418.88611     702.4540     330.8860   1418.88611     702.4540     330.8860
   1418.87085     703.3695     331.8351   1418.87085     703.3695     331.8351
   1418.85559     703.8460     331.7224   1418.85559     703.8460     331.7224
   1418.84033     704.8906     331.7296   1418.84033     704.8906     331.7296
   1418.82507     704.7766     332.6183   1418.82507     704.7766     332.6183
   1418.80981     704.7409     333.1521   1418.80981     704.7409     333.1521
   1418.79456     706.4024     332.5782   1418.79456     706.4024     332.5782
   1418.77930     706.7754     333.5304   1418.77930     706.7754     333.5304
   1418.76404     707.2069     333.7684   1418.76404     707.2069     333.7684
   1418.74878     707.0422     334.0791   1418.74878     707.0422     334.0791
   1418.73352     708.1033     334.2110   1418.73352     708.1033     334.2110
   1418.71826     707.9274     335.0657   1418.71826     707.9274     335.0657
   1418.70300     708.3232     335.3992   1418.70300     708.3232     335.3992
   1418.68774     709.1842     335.5329   1418.68774     709.1842     335.5329
   1418.67249     709.4606     336.4648   1418.67249     709.4606     336.4648
   1418.65723     710.9425     336.6289   1418.65723     710.9425     336.6289
   1418.64197     711.1616     337.4327   1418.64197     711.1616     337.4327
   1418.62671     712.4257     337.5468   1418.62671     712.4257     337.5468
   1418.61145     712.1926     337.6696   1418.61145     712.1926     337.6696
   1418.59619     711.9606     338.3174   1418.59619     711.9606     338.3174
   1418.58093     713.7071     339.2086   1418.58093     713.7071     339.2086
   1418.56567     713.9760     339.2972   1418.56567     713.9760     339.2972
   1418.55042     715.2535     340.1334   1418.55042     715.2535     340.1334
   1418.53516     715.5283     340.6950   1418.53516     715.5283     340.6950
   1418.51990     716.6599     340.9289   1418.51990     716.6599     340.9289
   1418.50464     715.5173     341.5596   1418.50464     715.5173     341.5596
   1418.48938     717.1306     342.0950   1418.48938     717.1306     342.0950
   1418.47412     717.8587     342.1180   1418.47412     717.8587     342.1180
   1418.45886     718.6599     343.1717   1418.45886     718.6599     343.1717
   1418.44360     719.6139     343.6541   1418.44360     719.6139     343.6541
   1418.42834     719.6725     344.2363   1418.42834     719.6725     344.2363
   1418.41309     720.0234     345.1842   1418.41309     720.0234     345.1842
   1418.39783     720.9185     345.5127   1418.39783     720.9185     345.5127
   1418.38257     720.9282     345.7870   1418.38257     720.9282     345.7870
   1418.36731     722.9196     346.8876   1418.36731     722.9196     346.8876
   1418.35205     723.5262     347.2963   1418.35205     723.5262     347.2963
   1418.33679     724.1562     347.9379   1418.33679     724.1562     347.9379
   1418.32153     724.9436     348.1658   1418.32153     724.9436     348.1658
   1418.30627     725.2204     348.8541   1418.30627     725.2204     348.8541
   1418.29102     726.2897     349.8826   1418.29102     726.2897     349.8826
   1418.27576     726.5585     350.8372   1418.27576     726.5585     350.8372
   1418.26050     726.5577     351.2627   1418.26050     726.5577     351.2627
   1418.24524     727.5751     352.3363   1418.24524     727.5751     352.3363
   1418.22998     730.2079     353.0114   1418.22998     730.2079     353.0114
   1418.21472     729.8606     353.6257   1418.21472     729.8606     353.6257
   1418.19946     731.4782     354.1871   1418.19946     731.4782     354.1871
   1418.18420     731.3223     354.9530   1418.18420     731.3223     354.9530
   1418.16895     733.4658     356.1664   1418.16895     733.4658     356.1664
   1418.15369     732.3163     355.8915   1418.15369     732.3163     355.8915
   1418.13843     734.2646     357.6630   1418.13843     734.2646     357.6630
   1418.12317     735.3568     358.4425   1418.12317     735.3568     358.4425
   1418.10791     733.9929     358.5549   1418.10791     733.9929     358.5549
   1418.09265     736.8589     359.6427   1418.09265     736.8589     359.6427
   1418.07739     737.0198     360.7487   1418.07739     737.0198     360.7487
   1418.06213     738.0682     361.7822   1418.06213     738.0682     361.7822
   1418.04688     737.8862     362.4294   1418.04688     737.8862     362.4294
   1418.03162     738.8499     362.9344   1418.03162     738.8499     362.9344
   1418.01636     738.5978     363.7336   1418.01636     738.5978     363.7336
   1418.00110     741.9623     365.4620   1418.00110     741.9623     365.4620
   1417.98584     741.4479     365.8251   1417.98584     741.4479     365.8251
   1417.97058     743.5568     367.5070   1417.97058     743.5568     367.5070
   1417.95532     743.9750     367.9413   1417.95532     743.9750     367.9413
   1417.94006     743.3317     368.6166   1417.94006     743.3317     368.6166
   1417.92480     745.6776     369.4058   1417.92480     745.6776     369.4058
   1417.90955     745.2385     370.5320   1417.90955     745.2385     370.5320
   1417.89429     747.6337     371.0990   1417.89429     747.6337     371.0990
   1417.87903     747.9443     371.5769   1417.87903     747.9443     371.5769
   1417.86377     747.9189     372.6519   1417.86377     747.9189     372.6519
   1417.84851     748.9953     373.7194   1417.84851     748.9953     373.7194
   1417.83325     748.6733     375.0696   1417.83325     748.6733     375.0696
   1417.81799     750.6427     375.6777   1417.81799     750.6427     375.6777
   1417.80273     750.7391     377.2642   1417.80273     750.7391     377.2642
   1417.78748     751.8385     377.3474   1417.78748     751.8385     377.3474
   1417.77222     753.6202     379.0638   1417.77222     753.6202     379.0638
   1417.75696     756.0211     379.7987   1417.75696     756.0211     379.7987
   1417.74170     754.5608     380.3902   1417.74170     754.5608     380.3902
   1417.72644     756.1915     382.2185   1417.72644     756.1915     382.2185
   1417.71118     756.0444     383.4847   1417.71118     756.0444     383.4847
   1417.69592     757.3448     384.0244   1417.69592     757.3448     384.0244
   1417.68066     757.6802     385.3577   1417.68066     757.6802     385.3577
   1417.66541     759.1788     385.9865   1417.66541     759.1788     385.9865
   1417.65015     761.2401     387.5161   1417.65015     761.2401     387.5161
   1417.63489     761.4698     388.0531   1417.63489     761.4698     388.0531
   1417.61963     762.6074     389.5374   1417.61963     762.6074     389.5374
   1417.60437     762.7996     391.3627   1417.60437     762.7996     391.3627
   1417.58911     764.8414     391.8203   1417.58911     764.8414     391.8203
   1417.57385     763.7550     392.9128   1417.57385     763.7550     392.9128
   1417.55859     765.1666     394.2553   1417.55859     765.1666     394.2553
   1417.54333     766.5732     395.2314   1417.54333     766.5732     395.2314
   1417.52808     767.6641     396.2296   1417.52808     767.6641     396.2296
   1417.51282     767.0478     397.3911   1417.51282     767.0478     397.3911
   1417.49756     768.8594     398.0641   1417.49756     768.8594     398.0641
   1417.48230     769.6145     399.0873   1417.48230     769.6145     399.0873
   1417.46704     770.6417     400.6553   1417.46704     770.6417     400.6553
   1417.45178     770.0853     401.7659   1417.45178     770.0853     401.7659
   1417.43652     772.5790     402.5424   1417.43652     772.5790     402.5424
   1417.42126     773.3716     404.0684   1417.42126     773.3716     404.0684
   1417.40601     774.4288     405.1478   1417.40601     774.4288     405.1478
   1417.39075     775.5278     406.0545   1417.39075     775.5278     406.0545
   1417.37549     775.9706     407.9329   1417.37549     775.9706     407.9329
   1417.36023     777.6136     408.7764   1417.36023     777.6136     408.7764
   1417.34497     777.1307     410.3037   1417.34497     777.1307     410.3037
   1417.32971     778.0844     411.5666   1417.32971     778.0844     411.5666
   1417.31445     779.9738     412.1368   1417.31445     779.9738     412.1368
   1417.29919     780.2586     413.4328   1417.29919     780.2586     413.4328
   1417.28394     780.3005     414.2321   1417.28394     780.3005     414.2321
   1417.26868     780.8098     415.6463   1417.26868     780.8098     415.6463
   1417.25342     782.6566     417.0833   1417.25342     782.6566     417.0833
   1417.23816     783.7402     418.3715   1417.23816     783.7402     418.3715
   1417.22290     784.1580     419.3500   1417.22290     784.1580     419.3500
   1417.20764     785.2289     420.8318   1417.20764     785.2289     420.8318
   1417.19238     786.9167     421.8376   1417.19238     786.9167     421.8376
   1417.17712     787.2170     422.5693   1417.17712     787.2170     422.5693
   1417.16187     786.5364     424.4408   1417.16187     786.5364     424.4408
   1417.14661     787.8580     425.4273   1417.14661     787.8580     425.4273
   1417.13135     787.8937     426.3578   1417.13135     787.8937     426.3578
   1417.11609     788.1714     427.2584   1417.11609     788.1714     427.2584
   1417.10083     791.3682     428.8455   1417.10083     791.3682     428.8455
   1417.08557     791.5598     429.7646   1417.08557     791.5598     429.7646
   1417.07031     791.1468     430.7826   1417.07031     791.1468     430.7826
   1417.05505     793.2329     432.4507   1417.05505     793.2329     432.4507
   1417.03979     793.3212     433.1313   1417.03979     793.3212     433.1313
   1417.02454     794.1990     434.2256   1417.02454     794.1990     434.2256
   1417.00928     793.9432     435.4336   1417.00928     793.9432     435.4336
   1416.99402     795.9108     437.1201   1416.99402     795.9108     437.1201
   1416.97876     796.2604     437.4904   1416.97876     796.2604     437.4904
   1416.96350     797.8527     439.2516   1416.96350     797.8527     439.2516
   1416.94824     797.3750     440.2222   1416.94824     797.3750     440.2222
   1416.93298     797.9164     441.0906   1416.93298     797.9164     441.0906
   1416.91772     797.8987     441.6116   1416.91772     797.8987     441.6116
   1416.90247     799.6929     442.9012   1416.90247     799.6929     442.9012
   1416.88721     800.5606     444.5170   1416.88721     800.5606     444.5170
   1416.87195     799.9022     445.1916   1416.87195     799.9022     445.1916
   1416.85669     801.6972     445.8685   1416.85669     801.6972     445.8685
   1416.84143     802.1652     446.8107   1416.84143     802.1652     446.8107
   1416.82617     804.1130     448.7063   1416.82617     804.1130     448.7063
   1416.81091     804.3888     449.0157   1416.81091     804.3888     449.0157
   1416.79565     803.1497     449.9926   1416.79565     803.1497     449.9926
   1416.78040     803.6649     450.7283   1416.78040     803.6649     450.7283
   1416.76514     805.4309     452.6009   1416.76514     805.4309     452.6009
   1416.74988     804.4099     452.7850   1416.74988     804.4099     452.7850
   1416.73462     805.2952     453.9134   1416.73462     805.2952     453.9134
   1416.71936     806.2031     454.6707   1416.71936     806.2031     454.6707
   1416.70410     806.8372     455.6477   1416.70410     806.8372     455.6477
   1416.68884     806.0464     456.9165   1416.68884     806.0464     456.9165
   1416.67358     807.3476     456.6725   1416.67358     807.3476     456.6725
   1416.65833     807.8070     457.7615   1416.65833     807.8070     457.7615
   1416.64307     807.7099     458.0302   1416.64307     807.7099     458.0302
   1416.62781     808.2903     459.3628   1416.62781     808.2903     459.3628
   1416.61255     809.3126     460.1628   1416.61255     809.3126     460.1628
   1416.59729     808.7213     460.3325   1416.59729     808.7213     460.3325
   1416.58203     807.6155     461.0641   1416.58203     807.6155     461.0641
   1416.56677     810.3098     461.8386   1416.56677     810.3098     461.8386
   1416.55151     810.6138     462.7686   1416.55151     810.6138     462.7686
   1416.53625     810.5112     463.4799   1416.53625     810.5112     463.4799
   1416.52100     810.6582     463.0248   1416.52100     810.6582     463.0248
   1416.50574     809.7488     464.5392   1416.50574     809.7488     464.5392
   1416.49048     810.6934     464.8552   1416.49048     810.6934     464.8552
   1416.47522     811.1837     465.2879   1416.47522     811.1837     465.2879
   1416.45996     812.3600     465.7942   1416.45996     812.3600     465.7942
   1416.44470     810.6138     466.2400   1416.44470     810.6138     466.2400
   1416.42944     810.1725     466.3515   1416.42944     810.1725     466.3515
   1416.41418     811.9977     466.8329   1416.41418     811.9977     466.8329
   1416.39893     811.3768     467.5734   1416.39893     811.3768     467.5734
   1416.38367     810.3758     467.9692   1416.38367     810.3758     467.9692
   1416.36841     811.5740     468.4910   1416.36841     811.5740     468.4910
   1416.35315     811.6292     469.2470   1416.35315     811.6292     469.2470
   1416.33789     811.8939     468.8164   1416.33789     811.8939     468.8164
   1416.32263     811.5515     469.6879   1416.32263     811.5515     469.6879
   1416.30737     811.5187     469.9077   1416.30737     811.5187     469.9077
   1416.29211     811.3644     470.3804   1416.29211     811.3644     470.3804
   1416.27686     811.0786     470.5818   1416.27686     811.0786     470.5818
   1416.26160     811.2734     470.5150   1416.26160     811.2734     470.5150
   1416.24634     810.3795     470.8838   1416.24634     810.3795     470.8838
   1416.23108     810.3723     471.4907   1416.23108     810.3723     471.4907
   1416.21582     811.0114     470.8680   1416.21582     811.0114     470.8680
   1416.20056     809.3525     470.7326   1416.20056     809.3525     470.7326
   1416.18530     810.7456     471.7316   1416.18530     810.7456     471.7316
   1416.17004     811.0867     471.7876   1416.17004     811.0867     471.7876
   1416.15479     810.3963     471.6975   1416.15479     810.3963     471.6975
   1416.13953     810.8384     471.3345   1416.13953     810.8384     471.3345
   1416.12427     808.9622     471.2544   1416.12427     808.9622     471.2544
   1416.10901     809.6080     471.6715   1416.10901     809.6080     471.6715
   1416.09375     809.5002     471.7798   1416.09375     809.5002     471.7798
   1416.07849     809.2434     471.2670   1416.07849     809.2434     471.2670
   1416.06323     807.4623     470.5888   1416.06323     807.4623     470.5888
   1416.04797     806.8657     471.5171   1416.04797     806.8657     471.5171
   1416.03271     806.5849     471.4404   1416.03271     806.5849     471.4404
   1416.01746     807.0115     471.7415   1416.01746     807.0115     471.7415
   1416.00220     806.5222     471.7023   1416.00220     806.5222     471.7023
   1415.98694     804.7191     471.0348   1415.98694     804.7191     471.0348
   1415.97168     804.8345     471.6552   1415.97168     804.8345     471.6552
   1415.95642     804.6966     471.5583   1415.95642     804.6966     471.5583
   1415.94116     804.6339     470.7509   1415.94116     804.6339     470.7509
   1415.92590     803.2265     471.2250   1415.92590     803.2265     471.2250
   1415.91064     802.5114     471.5368   1415.91064     802.5114     471.5368
   1415.89539     802.2702     471.2347   1415.89539     802.2702     471.2347
   1415.88013     802.9593     470.8617   1415.88013     802.9593     470.8617
   1415.86487     802.6152     469.7523   1415.86487     802.6152     469.7523
   1415.84961     801.8608     470.2257   1415.84961     801.8608     470.2257
   1415.83435     801.9474     469.5841   1415.83435     801.9474     469.5841
   1415.81909     800.1881     469.5733   1415.81909     800.1881     469.5733
   1415.80383     798.6738     469.7601   1415.80383     798.6738     469.7601
   1415.78857     800.0560     469.7213   1415.78857     800.0560     469.7213
   1415.77332     797.1829     469.6605   1415.77332     797.1829     469.6605
   1415.75806     798.0575     469.5906   1415.75806     798.0575     469.5906
   1415.74280     796.7333     468.8370   1415.74280     796.7333     468.8370
   1415.72754     795.6598     468.3823   1415.72754     795.6598     468.3823
   1415.71228     795.9058     468.7067   1415.71228     795.9058     468.7067
   1415.69702     795.0494     467.9226   1415.69702     795.0494     467.9226
   1415.68176     793.3150     467.2270   1415.68176     793.3150     467.2270
   1415.66650     793.6140     467.6527   1415.66650     793.6140     467.6527
   1415.65125     793.9233     467.2042   1415.65125     793.9233     467.2042
   1415.63599     791.8152     466.1962   1415.63599     791.8152     466.1962
   1415.62073     791.3298     466.6735   1415.62073     791.3298     466.6735
   1415.60547     790.9024     466.2265   1415.60547     790.9024     466.2265
   1415.59021     789.1655     464.8959   1415.59021     789.1655     464.8959
   1415.57495     789.2000     465.4255   1415.57495     789.2000     465.4255
   1415.55969     786.5060     464.6709   1415.55969     786.5060     464.6709
   1415.54443     786.3005     464.5342   1415.54443     786.3005     464.5342
   1415.52917     786.1052     463.9338   1415.52917     786.1052     463.9338
   1415.51392     785.4003     463.7759   1415.51392     785.4003     463.7759
   1415.49866     784.5305     462.8581   1415.49866     784.5305     462.8581
   1415.48340     782.2758     463.4895   1415.48340     782.2758     463.4895
   1415.46814     782.6108     461.9743   1415.46814     782.6108     461.9743
   1415.45288     781.7567     461.5875   1415.45288     781.7567     461.5875
   1415.43762     780.5845     460.9517   1415.43762     780.5845     460.9517
   1415.42236     778.2825     460.4700   1415.42236     778.2825     460.4700
   1415.40710     777.0773     460.3764   1415.40710     777.0773     460.3764
   1415.39185     777.6860     459.5373   1415.39185     777.6860     459.5373
   1415.37659     776.6819     458.9435   1415.37659     776.6819     458.9435
   1415.36133     775.0276     458.9979   1415.36133     775.0276     458.9979
   1415.34607     774.9606     457.9435   1415.34607     774.9606     457.9435
   1415.33081     772.2156     457.9073   1415.33081     772.2156     457.9073
   1415.31555     771.7339     456.6689   1415.31555     771.7339     456.6689
   1415.30029     770.9130     456.2171   1415.30029     770.9130     456.2171
   1415.28503     768.0555     455.7692   1415.28503     768.0555     455.7692
   1415.26978     768.2739     455.9592   1415.26978     768.2739     455.9592
   1415.25452     765.8379     455.2180   1415.25452     765.8379     455.2180
   1415.23926     765.0757     453.6458   1415.23926     765.0757     453.6458
   1415.22400     764.0856     452.5002   1415.22400     764.0856     452.5002
   1415.20874     762.2077     452.9961   1415.20874     762.2077     452.9961
   1415.19348     761.2486     452.0010   1415.19348     761.2486     452.0010
   1415.17822     761.2031     451.8691   1415.17822     761.2031     451.8691
   1415.16296     759.9943     450.6342   1415.16296     759.9943     450.6342
   1415.14771     757.3492     450.0940   1415.14771     757.3492     450.0940
   1415.13245     754.5120     448.9475   1415.13245     754.5120     448.9475
   1415.11719     755.3414     448.1668   1415.11719     755.3414     448.1668
   1415.10193     752.7354     448.2507   1415.10193     752.7354     448.2507
   1415.08667     752.2581     447.4424   1415.08667     752.2581     447.4424
   1415.07141     751.1052     445.8510   1415.07141     751.1052     445.8510
   1415.05615     749.4234     446.0735   1415.05615     749.4234     446.0735
   1415.04089     747.3055     444.1668   1415.04089     747.3055     444.1668
   1415.02563     747.1480     444.3367   1415.02563     747.1480     444.3367
   1415.01038     744.2690     442.2241   1415.01038     744.2690     442.2241
   1414.99512     743.8201     442.7686   1414.99512     743.8201     442.7686
   1414.97986     742.4557     441.6419   1414.97986     742.4557     441.6419
   1414.96460     739.8807     440.8644   1414.96460     739.8807     440.8644
   1414.94934     738.6174     439.0661   1414.94934     738.6174     439.0661
   1414.93408     736.6653     438.7432   1414.93408     736.6653     438.7432
   1414.91882     735.3093     437.6279   1414.91882     735.3093     437.6279
   1414.90356     734.1927     437.1769   1414.90356     734.1927     437.1769
   1414.88831     732.4683     436.6541   1414.88831     732.4683     436.6541
   1414.87305     729.7884     435.2308   1414.87305     729.7884     435.2308
   1414.85779     729.1204     433.6345   1414.85779     729.1204     433.6345
   1414.84253     726.6164     432.9364   1414.84253     726.6164     432.9364
   1414.82727     725.8804     432.1791   1414.82727     725.8804     432.1791
   1414.81201     723.6049     430.9673   1414.81201     723.6049     430.9673
   1414.79675     722.0597     430.2431   1414.79675     722.0597     430.2431
   1414.78149     718.9535     428.4575   1414.78149     718.9535     428.4575
   1414.76624     716.6207     427.6225   1414.76624     716.6207     427.6225
   1414.75098     716.2523     426.7684   1414.75098     716.2523     426.7684
   1414.73572     714.1966     426.4439   1414.73572     714.1966     426.4439
   1414.72046     712.2366     424.9264   1414.72046     712.2366     424.9264
   1414.70520     710.6288     423.6635   1414.70520     710.6288     423.6635
   1414.68994     707.6599     422.8191   1414.68994     707.6599     422.8191
   1414.67468     706.2758     421.5736   1414.67468     706.2758     421.5736
   1414.65942     704.5552     420.3593   1414.65942     704.5552     420.3593
   1414.64417     701.6700     419.7521   1414.64417     701.6700     419.7521
   1414.62891     699.5530     417.5094   1414.62891     699.5530     417.5094
   1414.61365     697.7579     416.6906   1414.61365     697.7579     416.6906
   1414.59839     696.1362     415.1951   1414.59839     696.1362     415.1951
   1414.58313     693.6899     415.3163   1414.58313     693.6899     415.3163
   1414.56787     691.8119     413.0821   1414.56787     691.8119     413.0821
   1414.55261     688.7302     411.5574   1414.55261     688.7302     411.5574
   1414.53735     687.1990     410.8634   1414.53735     687.1990     410.8634
   1414.52209     683.8162     409.3943   1414.52209     683.8162     409.3943
   1414.50684     682.3635     408.4038   1414.50684     682.3635     408.4038
   1414.49158     681.1776     406.3177   1414.49158     681.1776     406.3177
   1414.47632     678.4231     405.4169   1414.47632     678.4231     405.4169
   1414.46106     676.7738     405.2832   1414.46106     676.7738     405.2832
   1414.44580     674.6507     403.5310   1414.44580     674.6507     403.5310
   1414.43054     671.1029     401.6718   1414.43054     671.1029     401.6718
   1414.41528     668.6640     400.2258   1414.41528     668.6640     400.2258
   1414.40002     667.1854     399.0327   1414.40002     667.1854     399.0327
   1414.38477     664.0878     397.2741   1414.38477     664.0878     397.2741
   1414.36951     662.5733     396.8179   1414.36951     662.5733     396.8179
   1414.35425     660.8469     394.9264   1414.35425     660.8469     394.9264
   1414.33899     656.5016     393.8432   1414.33899     656.5016     393.8432
   1414.32373     654.7368     392.2322   1414.32373     654.7368     392.2322
   1414.30847     651.5553     391.1007   1414.30847     651.5553     391.1007
   1414.29321     649.3802     389.6100   1414.29321     649.3802     389.6100
   1414.27795     646.4396     387.7483   1414.27795     646.4396     387.7483
   1414.26270     644.7683     386.3936   1414.26270     644.7683     386.3936
   1414.24744     642.0463     385.0616   1414.24744     642.0463     385.0616
   1414.23218     638.7938     383.4217   1414.23218     638.7938     383.4217
   1414.21692     636.7308     382.7013   1414.21692     636.7308     382.7013
   1414.20166     633.5417     381.2703   1414.20166     633.5417     381.2703
   1414.18640     631.8925     379.3210   1414.18640     631.8925     379.3210
   1414.17114     628.3848     377.7381   1414.17114     628.3848     377.7381
   1414.15588     626.9763     376.5769   1414.15588     626.9763     376.5769
   1414.14062     623.2046     374.6190   1414.14062     623.2046     374.6190
   1414.12537     620.8044     373.4229   1414.12537     620.8044     373.4229
   1414.11011     618.5158     371.7825   1414.11011     618.5158     371.7825
   1414.09485     614.8220     370.5986   1414.09485     614.8220     370.5986
   1414.07959     612.5126     369.1964   1414.07959     612.5126     369.1964
   1414.06433     609.4744     367.5334   1414.06433     609.4744     367.5334
   1414.04907     607.3079     365.5897   1414.04907     607.3079     365.5897
   1414.03381     604.3870     364.2289   1414.03381     604.3870     364.2289
   1414.01855     600.3932     362.2331   1414.01855     600.3932     362.2331
   1414.00330     598.9854     360.6716   1414.00330     598.9854     360.6716
   1413.98804     596.1913     359.7353   1413.98804     596.1913     359.7353
   1413.97278     593.1100     357.2769   1413.97278     593.1100     357.2769
   1413.95752     589.5839     356.6632   1413.95752     589.5839     356.6632
   1413.94226     587.9250     354.9519   1413.94226     587.9250     354.9519
   1413.92700     584.4942     353.7223   1413.92700     584.4942     353.7223
   1413.91174     581.9062     351.9508   1413.91174     581.9062     351.9508
   1413.89648     579.3508     349.8511   1413.89648     579.3508     349.8511
   1413.88123     575.3511     348.4448   1413.88123     575.3511     348.4448
   1413.86597     573.3744     347.7531   1413.86597     573.3744     347.7531
   1413.85071     569.8869     345.2634   1413.85071     569.8869     345.2634
   1413.83545     567.0557     343.8135   1413.83545     567.0557     343.8135
   1413.82019     565.2924     342.2960   1413.82019     565.2924     342.2960
   1413.80493     560.6929     340.6364   1413.80493     560.6929     340.6364
   1413.78967     558.8351     339.1994   1413.78967     558.8351     339.1994
   1413.77441     555.6804     338.0833   1413.77441     555.6804     338.0833
   1413.75916     552.3900     336.4367   1413.75916     552.3900     336.4367
   1413.74390     549.6857     334.3380   1413.74390     549.6857     334.3380
   1413.72864     546.1679     332.9029   1413.72864     546.1679     332.9029
   1413.71338     543.6259     331.5159   1413.71338     543.6259     331.5159
   1413.69812     540.5670     329.2519   1413.69812     540.5670     329.2519
   1413.68286     537.5229     328.3909   1413.68286     537.5229     328.3909
   1413.66760     534.8240     326.7615   1413.66760     534.8240     326.7615
   1413.65234     531.6309     325.6103   1413.65234     531.6309     325.6103
   1413.63708     529.5524     324.2015   1413.63708     529.5524     324.2015
   1413.62183     526.3648     322.1693   1413.62183     526.3648     322.1693
   1413.60657     523.8012     320.5771   1413.60657     523.8012     320.5771
   1413.59131     520.8793     319.6588   1413.59131     520.8793     319.6588
   1413.57605     517.4920     317.7430   1413.57605     517.4920     317.7430
   1413.56079     514.5887     316.7380   1413.56079     514.5887     316.7380
   1413.54553     511.1711     314.7077   1413.54553     511.1711     314.7077
   1413.53027     509.0869     313.1196   1413.53027     509.0869     313.1196
   1413.51501     505.5300     311.3110   1413.51501     505.5300     311.3110
   1413.49976     502.8256     310.5599   1413.49976     502.8256     310.5599
   1413.48450     500.7546     308.6219   1413.48450     500.7546     308.6219
   1413.46924     496.8254     307.6177   1413.46924     496.8254     307.6177
   1413.45398     493.8040     305.2888   1413.45398     493.8040     305.2888
   1413.43872     491.0051     304.8491   1413.43872     491.0051     304.8491
   1413.42346     487.9671     302.9851   1413.42346     487.9671     302.9851
   1413.40820     485.8148     301.5125   1413.40820     485.8148     301.5125
   1413.39294     483.5135     299.8608   1413.39294     483.5135     299.8608
   1413.37769     479.8700     299.0809   1413.37769     479.8700     299.0809
   1413.36243     477.2542     296.9453   1413.36243     477.2542     296.9453
   1413.34717     474.5340     295.7350   1413.34717     474.5340     295.7350
   1413.33191     471.9373     295.0457   1413.33191     471.9373     295.0457
   1413.31665     468.7052     293.2449   1413.31665     468.7052     293.2449
   1413.30139     466.1314     292.2618   1413.30139     466.1314     292.2618
   1413.28613     463.4451     290.8645   1413.28613     463.4451     290.8645
   1413.27087     461.4540     289.4708   1413.27087     461.4540     289.4708
   1413.25562     458.5771     288.0843   1413.25562     458.5771     288.0843
   1413.24036     455.7754     286.6261   1413.24036     455.7754     286.6261
   1413.22510     452.3476     285.3638   1413.22510     452.3476     285.3638
   1413.20984     450.0587     284.6498   1413.20984     450.0587     284.6498
   1413.19458     447.3942     283.5269   1413.19458     447.3942     283.5269
   1413.17932     445.4040     281.9797   1413.17932     445.4040     281.9797
   1413.16406     443.3434     281.1343   1413.16406     443.3434     281.1343
   1413.14880     440.5518     280.0409   1413.14880     440.5518     280.0409
   1413.13354     438.0076     279.1244   1413.13354     438.0076     279.1244
   1413.11829     435.3575     278.3026   1413.11829     435.3575     278.3026
   1413.10303     433.2294     276.6215   1413.10303     433.2294     276.6215
   1413.08777     430.8693     275.7191   1413.08777     430.8693     275.7191
   1413.07251     428.6776     274.6718   1413.07251     428.6776     274.6718
   1413.05725     426.1796     273.2552   1413.05725     426.1796     273.2552
   1413.04199     423.9380     272.5684   1413.04199     423.9380     272.5684
   1413.02673     421.5615     271.5208   1413.02673     421.5615     271.5208
   1413.01147     419.2577     270.5675   1413.01147     419.2577     270.5675
   1412.99622     417.3288     269.8249   1412.99622     417.3288     269.8249
   1412.98096     415.0234     269.1260   1412.98096     415.0234     269.1260
   1412.96570     413.4126     268.1389   1412.96570     413.4126     268.1389
   1412.95044     411.1545     267.5254   1412.95044     411.1545     267.5254
   1412.93518     408.6693     266.1224   1412.93518     408.6693     266.1224
   1412.91992     407.1696     265.8256   1412.91992     407.1696     265.8256
   1412.90466     404.9455     264.8557   1412.90466     404.9455     264.8557
   1412.88940     403.1969     264.3048   1412.88940     403.1969     264.3048
   1412.87415     400.8877     263.6958   1412.87415     400.8877     263.6958
   1412.85889     399.1873     262.8772   1412.85889     399.1873     262.8772
   1412.84363     397.8853     262.2469   1412.84363     397.8853     262.2469
   1412.82837     395.7837     262.3389   1412.82837     395.7837     262.3389
   1412.81311     393.7928     261.7317   1412.81311     393.7928     261.7317
   1412.79785     392.2189     260.7162   1412.79785     392.2189     260.7162
   1412.78259     391.2116     260.3794   1412.78259     391.2116     260.3794
   1412.76733     389.1909     259.8737   1412.76733     389.1909     259.8737
   1412.75208     387.8595     259.4845   1412.75208     387.8595     259.4845
   1412.73682     386.5758     258.9214   1412.73682     386.5758     258.9214
   1412.72156     385.1929     258.2338   1412.72156     385.1929     258.2338
   1412.70630     383.0554     258.4496   1412.70630     383.0554     258.4496
   1412.69104     382.3907     257.9044   1412.69104     382.3907     257.9044
   1412.67578     380.3157     257.9765   1412.67578     380.3157     257.9765
   1412.66052     380.3766     257.2708   1412.66052     380.3766     257.2708
   1412.64526     378.8535     257.3815   1412.64526     378.8535     257.3815
   1412.63000     377.4839     257.5943   1412.63000     377.4839     257.5943
   1412.61475     377.3997     256.9448   1412.61475     377.3997     256.9448
   1412.59949     375.5046     257.0617   1412.59949     375.5046     257.0617
   1412.58423     373.9948     256.5770   1412.58423     373.9948     256.5770
   1412.56897     373.6994     256.5356   1412.56897     373.6994     256.5356
   1412.55371     372.2296     256.6781   1412.55371     372.2296     256.6781
   1412.53845     371.8499     256.8009   1412.53845     371.8499     256.8009
   1412.52319     370.5081     256.9505   1412.52319     370.5081     256.9505
   1412.50793     370.0320     257.1607   1412.50793     370.0320     257.1607
   1412.49268     369.6481     257.2968   1412.49268     369.6481     257.2968
   1412.47742     368.8045     257.7593   1412.47742     368.8045     257.7593
   1412.46216     367.9790     257.7330   1412.46216     367.9790     257.7330
   1412.44690     368.0742     257.5008   1412.44690     368.0742     257.5008
   1412.43164     367.5501     258.2031   1412.43164     367.5501     258.2031
   1412.41638     367.0786     258.2385   1412.41638     367.0786     258.2385
   1412.40112     366.9747     258.7895   1412.40112     366.9747     258.7895
   1412.38586     366.6508     259.4090   1412.38586     366.6508     259.4090
   1412.37061     366.4570     259.8421   1412.37061     366.4570     259.8421
   1412.35535     365.7562     260.3182   1412.35535     365.7562     260.3182
   1412.34009     366.2336     260.4755   1412.34009     366.2336     260.4755
   1412.32483     365.8810     261.1386   1412.32483     365.8810     261.1386
   1412.30957     366.0745     262.0806   1412.30957     366.0745     262.0806
   1412.29431     366.1718     262.3765   1412.29431     366.1718     262.3765
   1412.27905     365.9854     262.9513   1412.27905     365.9854     262.9513
   1412.26379     366.1969     264.0303   1412.26379     366.1969     264.0303
   1412.24854     366.1360     264.3763   1412.24854     366.1360     264.3763
   1412.23328     366.7523     265.0717   1412.23328     366.7523     265.0717
   1412.21802     367.1088     266.1076   1412.21802     367.1088     266.1076
   1412.20276     367.8094     266.4399   1412.20276     367.8094     266.4399