#     FILENAME=!Skynet_57533_lach-hhg-191-2_20788_21212.cyb.fits
#     BASENAME=Skynet_57533_lach-hhg-191-2_20788_21212
#     SRC_NAME=lach-hhg-191-2
#     OBSERVER=ccmadison16_9505
#     DATE_OBS=2016-05-25T18:41:54.180
#        OBSID=20788
#      SCANNUM=21212
#          MJD=57533.7801
#          UTC=67403
#     SCANTYPE=track
#     DATAMODE=HIRES
#     TUNEFREQ=1420.0000
# Actual_FREQ1=1420.0000
# Actual_FREQ2=1420.0000
#    LO1Tuning=6870.000
#     RFFILTER=1355_1435
#        OBSBW=-15.6250
#        NCHAN=1024 
#        FOCUS=37.0709
#           RA=06:09:46.34
#          DEC=19:24:56.05
#      RA(hrs)=6.163100
#     DEC(deg)=19.415600
#    AZIM(deg)=156.537
#    ELEV(deg)=69.550
#     IFattens=10.00, 10.00
#      WARNING=None
#    TCAL_XL1=7.9635
#    TCAL_YR1=9.1340
#    TCAL_XL2=7.9635
#    TCAL_YR2=9.1340
#     TRX_XL1=11.7060
#     TRX_YR1=11.7060
#     TRX_XL2=11.7060
#     TRX_YR2=11.7060
#        TAVE=1.0000
#Freq1(MHz)          XL1          YR1  Freq2(MHz)          XL2          YR2 

   1427.81250     294.9189     275.2689   1427.81250     294.9189     275.2689
   1427.79724     295.2339     276.2439   1427.79724     295.2339     276.2439
   1427.78198     295.4215     276.9868   1427.78198     295.4215     276.9868
   1427.76672     295.7625     277.8082   1427.76672     295.7625     277.8082
   1427.75146     296.7407     278.7402   1427.75146     296.7407     278.7402
   1427.73621     297.1797     280.3557   1427.73621     297.1797     280.3557
   1427.72095     298.3044     281.0533   1427.72095     298.3044     281.0533
   1427.70569     298.1770     282.1456   1427.70569     298.1770     282.1456
   1427.69043     299.7933     283.1652   1427.69043     299.7933     283.1652
   1427.67517     299.7402     284.0879   1427.67517     299.7402     284.0879
   1427.65991     300.9534     285.8578   1427.65991     300.9534     285.8578
   1427.64465     301.8027     286.7446   1427.64465     301.8027     286.7446
   1427.62939     302.8384     287.7962   1427.62939     302.8384     287.7962
   1427.61414     303.5479     289.8063   1427.61414     303.5479     289.8063
   1427.59888     304.5487     290.4263   1427.59888     304.5487     290.4263
   1427.58362     305.9303     291.6852   1427.58362     305.9303     291.6852
   1427.56836     306.7897     293.2702   1427.56836     306.7897     293.2702
   1427.55310     308.5118     294.3516   1427.55310     308.5118     294.3516
   1427.53784     309.3259     296.2155   1427.53784     309.3259     296.2155
   1427.52258     310.5247     297.9455   1427.52258     310.5247     297.9455
   1427.50732     312.1222     298.6779   1427.50732     312.1222     298.6779
   1427.49207     313.4623     300.3167   1427.49207     313.4623     300.3167
   1427.47681     314.5467     301.9439   1427.47681     314.5467     301.9439
   1427.46155     316.2744     303.6948   1427.46155     316.2744     303.6948
   1427.44629     317.4350     305.3065   1427.44629     317.4350     305.3065
   1427.43103     319.2328     306.1226   1427.43103     319.2328     306.1226
   1427.41577     320.7497     308.2117   1427.41577     320.7497     308.2117
   1427.40051     321.6822     310.2251   1427.40051     321.6822     310.2251
   1427.38525     323.2855     311.1480   1427.38525     323.2855     311.1480
   1427.37000     325.0223     312.8702   1427.37000     325.0223     312.8702
   1427.35474     327.0668     314.9240   1427.35474     327.0668     314.9240
   1427.33948     328.9907     316.6894   1427.33948     328.9907     316.6894
   1427.32422     331.1192     318.4061   1427.32422     331.1192     318.4061
   1427.30896     332.5380     320.1739   1427.30896     332.5380     320.1739
   1427.29370     333.7777     321.7866   1427.29370     333.7777     321.7866
   1427.27844     336.1606     323.3382   1427.27844     336.1606     323.3382
   1427.26318     337.3297     325.6906   1427.26318     337.3297     325.6906
   1427.24792     339.3345     327.1610   1427.24792     339.3345     327.1610
   1427.23267     341.7358     328.6225   1427.23267     341.7358     328.6225
   1427.21741     343.8293     331.1797   1427.21741     343.8293     331.1797
   1427.20215     345.5378     332.6120   1427.20215     345.5378     332.6120
   1427.18689     347.5357     334.1613   1427.18689     347.5357     334.1613
   1427.17163     350.0068     336.1982   1427.17163     350.0068     336.1982
   1427.15637     351.7124     338.0388   1427.15637     351.7124     338.0388
   1427.14111     354.1158     340.3022   1427.14111     354.1158     340.3022
   1427.12585     356.4512     341.7654   1427.12585     356.4512     341.7654
   1427.11060     358.3702     344.4069   1427.11060     358.3702     344.4069
   1427.09534     360.6713     345.7696   1427.09534     360.6713     345.7696
   1427.08008     363.1277     347.9731   1427.08008     363.1277     347.9731
   1427.06482     365.8207     349.7854   1427.06482     365.8207     349.7854
   1427.04956     367.7097     351.3855   1427.04956     367.7097     351.3855
   1427.03430     370.2011     353.5076   1427.03430     370.2011     353.5076
   1427.01904     371.9775     355.9019   1427.01904     371.9775     355.9019
   1427.00378     374.6388     357.6209   1427.00378     374.6388     357.6209
   1426.98853     377.5339     360.4184   1426.98853     377.5339     360.4184
   1426.97327     379.8281     361.8723   1426.97327     379.8281     361.8723
   1426.95801     382.2495     363.5241   1426.95801     382.2495     363.5241
   1426.94275     384.5840     365.5781   1426.94275     384.5840     365.5781
   1426.92749     387.1456     367.4160   1426.92749     387.1456     367.4160
   1426.91223     389.2988     369.4014   1426.91223     389.2988     369.4014
   1426.89697     391.9017     371.7243   1426.89697     391.9017     371.7243
   1426.88171     394.1492     373.7939   1426.88171     394.1492     373.7939
   1426.86646     397.7006     375.4926   1426.86646     397.7006     375.4926
   1426.85120     399.7450     377.1579   1426.85120     399.7450     377.1579
   1426.83594     402.3111     379.1492   1426.83594     402.3111     379.1492
   1426.82068     405.1122     381.7261   1426.82068     405.1122     381.7261
   1426.80542     407.9152     383.6196   1426.80542     407.9152     383.6196
   1426.79016     410.5600     385.6151   1426.79016     410.5600     385.6151
   1426.77490     412.9722     387.2254   1426.77490     412.9722     387.2254
   1426.75964     416.0060     389.4988   1426.75964     416.0060     389.4988
   1426.74438     418.1844     391.5130   1426.74438     418.1844     391.5130
   1426.72913     420.8098     393.3792   1426.72913     420.8098     393.3792
   1426.71387     423.7648     395.1375   1426.71387     423.7648     395.1375
   1426.69861     426.5307     397.3951   1426.69861     426.5307     397.3951
   1426.68335     428.4357     398.9177   1426.68335     428.4357     398.9177
   1426.66809     431.2360     400.8965   1426.66809     431.2360     400.8965
   1426.65283     433.9043     403.0960   1426.65283     433.9043     403.0960
   1426.63757     436.5674     405.2716   1426.63757     436.5674     405.2716
   1426.62231     441.1056     409.4790   1426.62231     441.1056     409.4790
   1426.60706     442.6692     408.9159   1426.60706     442.6692     408.9159
   1426.59180     445.9668     410.6648   1426.59180     445.9668     410.6648
   1426.57654     447.4254     412.2964   1426.57654     447.4254     412.2964
   1426.56128     450.3978     414.1165   1426.56128     450.3978     414.1165
   1426.54602     453.5697     415.9481   1426.54602     453.5697     415.9481
   1426.53076     456.0127     417.6595   1426.53076     456.0127     417.6595
   1426.51550     459.5852     419.3123   1426.51550     459.5852     419.3123
   1426.50024     461.2651     420.7680   1426.50024     461.2651     420.7680
   1426.48499     464.3239     423.2129   1426.48499     464.3239     423.2129
   1426.46973     467.4629     425.2998   1426.46973     467.4629     425.2998
   1426.45447     469.9292     426.2397   1426.45447     469.9292     426.2397
   1426.43921     473.4472     428.7967   1426.43921     473.4472     428.7967
   1426.42395     475.3301     430.0500   1426.42395     475.3301     430.0500
   1426.40869     478.3400     431.8147   1426.40869     478.3400     431.8147
   1426.39343     480.1849     433.5624   1426.39343     480.1849     433.5624
   1426.37817     483.4268     435.2534   1426.37817     483.4268     435.2534
   1426.36292     486.4291     437.5824   1426.36292     486.4291     437.5824
   1426.34766     488.0351     438.5272   1426.34766     488.0351     438.5272
   1426.33240     491.3817     440.3302   1426.33240     491.3817     440.3302
   1426.31714     493.2251     442.1197   1426.31714     493.2251     442.1197
   1426.30188     495.6859     443.5784   1426.30188     495.6859     443.5784
   1426.28662     499.6006     445.1478   1426.28662     499.6006     445.1478
   1426.27136     501.7693     446.5429   1426.27136     501.7693     446.5429
   1426.25610     503.8859     448.7132   1426.25610     503.8859     448.7132
   1426.24084     506.8145     449.2700   1426.24084     506.8145     449.2700
   1426.22559     509.6408     451.2569   1426.22559     509.6408     451.2569
   1426.21033     512.1666     453.0629   1426.21033     512.1666     453.0629
   1426.19507     513.4946     454.8540   1426.19507     513.4946     454.8540
   1426.17981     516.8161     455.2999   1426.17981     516.8161     455.2999
   1426.16455     518.8517     457.2180   1426.16455     518.8517     457.2180
   1426.14929     521.8871     459.3322   1426.14929     521.8871     459.3322
   1426.13403     524.7958     460.2187   1426.13403     524.7958     460.2187
   1426.11877     526.6463     461.6810   1426.11877     526.6463     461.6810
   1426.10352     529.1746     462.5723   1426.10352     529.1746     462.5723
   1426.08826     531.0713     464.3343   1426.08826     531.0713     464.3343
   1426.07300     533.8427     466.3165   1426.07300     533.8427     466.3165
   1426.05774     536.2115     467.5661   1426.05774     536.2115     467.5661
   1426.04248     538.0046     468.2425   1426.04248     538.0046     468.2425
   1426.02722     540.7435     470.3387   1426.02722     540.7435     470.3387
   1426.01196     542.9742     470.4373   1426.01196     542.9742     470.4373
   1425.99670     545.3581     471.6219   1425.99670     545.3581     471.6219
   1425.98145     547.4733     473.0415   1425.98145     547.4733     473.0415
   1425.96619     550.6748     474.6542   1425.96619     550.6748     474.6542
   1425.95093     551.4532     475.7401   1425.95093     551.4532     475.7401
   1425.93567     553.9852     476.2481   1425.93567     553.9852     476.2481
   1425.92041     557.5956     478.4342   1425.92041     557.5956     478.4342
   1425.90515     558.8690     478.9902   1425.90515     558.8690     478.9902
   1425.88989     560.8746     479.8632   1425.88989     560.8746     479.8632
   1425.87463     562.9088     481.7213   1425.87463     562.9088     481.7213
   1425.85938     565.5126     482.5137   1425.85938     565.5126     482.5137
   1425.84412     567.1290     483.7673   1425.84412     567.1290     483.7673
   1425.82886     568.3359     485.5653   1425.82886     568.3359     485.5653
   1425.81360     570.2722     485.9917   1425.81360     570.2722     485.9917
   1425.79834     573.4492     486.5459   1425.79834     573.4492     486.5459
   1425.78308     574.1846     487.3798   1425.78308     574.1846     487.3798
   1425.76782     575.7164     489.5602   1425.76782     575.7164     489.5602
   1425.75256     578.0712     489.7498   1425.75256     578.0712     489.7498
   1425.73730     580.4490     490.6967   1425.73730     580.4490     490.6967
   1425.72205     582.0328     491.3923   1425.72205     582.0328     491.3923
   1425.70679     583.6568     493.5442   1425.70679     583.6568     493.5442
   1425.69153     585.4379     493.8433   1425.69153     585.4379     493.8433
   1425.67627     587.5085     494.6452   1425.67627     587.5085     494.6452
   1425.66101     589.1473     494.9975   1425.66101     589.1473     494.9975
   1425.64575     590.2579     496.2413   1425.64575     590.2579     496.2413
   1425.63049     591.9900     497.0833   1425.63049     591.9900     497.0833
   1425.61523     593.4268     498.3207   1425.61523     593.4268     498.3207
   1425.59998     595.5773     499.6742   1425.59998     595.5773     499.6742
   1425.58472     596.9244     499.7841   1425.58472     596.9244     499.7841
   1425.56946     598.2402     500.4879   1425.56946     598.2402     500.4879
   1425.55420     600.2936     501.0234   1425.55420     600.2936     501.0234
   1425.53894     600.4872     502.1730   1425.53894     600.4872     502.1730
   1425.52368     603.5104     502.8329   1425.52368     603.5104     502.8329
   1425.50842     604.0413     504.0981   1425.50842     604.0413     504.0981
   1425.49316     605.7974     505.2323   1425.49316     605.7974     505.2323
   1425.47791     606.2405     504.5688   1425.47791     606.2405     504.5688
   1425.46265     608.5205     505.5509   1425.46265     608.5205     505.5509
   1425.44739     610.0912     507.1211   1425.44739     610.0912     507.1211
   1425.43213     610.8412     507.3789   1425.43213     610.8412     507.3789
   1425.41687     611.3022     507.8656   1425.41687     611.3022     507.8656
   1425.40161     612.5565     508.5920   1425.40161     612.5565     508.5920
   1425.38635     612.9495     510.3403   1425.38635     612.9495     510.3403
   1425.37109     614.9922     510.0517   1425.37109     614.9922     510.0517
   1425.35583     616.5974     510.8966   1425.35583     616.5974     510.8966
   1425.34058     617.1493     511.8896   1425.34058     617.1493     511.8896
   1425.32532     618.6918     511.4741   1425.32532     618.6918     511.4741
   1425.31006     618.9499     512.6459   1425.31006     618.9499     512.6459
   1425.29480     620.5005     513.2143   1425.29480     620.5005     513.2143
   1425.27954     621.8530     513.5887   1425.27954     621.8530     513.5887
   1425.26428     622.1854     514.4319   1425.26428     622.1854     514.4319
   1425.24902     623.1515     514.8364   1425.24902     623.1515     514.8364
   1425.23376     624.2619     515.3362   1425.23376     624.2619     515.3362
   1425.21851     623.5650     515.4847   1425.21851     623.5650     515.4847
   1425.20325     625.3424     516.0005   1425.20325     625.3424     516.0005
   1425.18799     626.1053     516.4063   1425.18799     626.1053     516.4063
   1425.17273     627.2066     517.3409   1425.17273     627.2066     517.3409
   1425.15747     628.3659     518.5248   1425.15747     628.3659     518.5248
   1425.14221     627.1816     518.9876   1425.14221     627.1816     518.9876
   1425.12695     629.2965     519.1373   1425.12695     629.2965     519.1373
   1425.11169     629.2242     518.8965   1425.11169     629.2242     518.8965
   1425.09644     630.4129     520.2849   1425.09644     630.4129     520.2849
   1425.08118     629.2732     520.3594   1425.08118     629.2732     520.3594
   1425.06592     631.2998     520.7108   1425.06592     631.2998     520.7108
   1425.05066     631.4394     520.7445   1425.05066     631.4394     520.7445
   1425.03540     631.6989     520.9352   1425.03540     631.6989     520.9352
   1425.02014     633.4235     521.3887   1425.02014     633.4235     521.3887
   1425.00488     633.0226     521.2958   1425.00488     633.0226     521.2958
   1424.98962     634.6568     522.7629   1424.98962     634.6568     522.7629
   1424.97437     633.8676     522.8307   1424.97437     633.8676     522.8307
   1424.95911     633.3585     523.4189   1424.95911     633.3585     523.4189
   1424.94385     634.0393     524.3097   1424.94385     634.0393     524.3097
   1424.92859     634.7571     524.4349   1424.92859     634.7571     524.4349
   1424.91333     634.9509     524.1849   1424.91333     634.9509     524.1849
   1424.89807     634.2217     524.6172   1424.89807     634.2217     524.6172
   1424.88281     635.6429     525.1275   1424.88281     635.6429     525.1275
   1424.86755     636.0869     525.7309   1424.86755     636.0869     525.7309
   1424.85229     635.2836     526.2366   1424.85229     635.2836     526.2366
   1424.83704     635.4385     526.6016   1424.83704     635.4385     526.6016
   1424.82178     636.8573     526.2164   1424.82178     636.8573     526.2164
   1424.80652     636.9370     527.1630   1424.80652     636.9370     527.1630
   1424.79126     636.4205     527.3743   1424.79126     636.4205     527.3743
   1424.77600     636.5004     527.1658   1424.77600     636.5004     527.1658
   1424.76074     636.2043     527.7181   1424.76074     636.2043     527.7181
   1424.74548     637.4104     526.9505   1424.74548     637.4104     526.9505
   1424.73022     635.4786     527.8068   1424.73022     635.4786     527.8068
   1424.71497     635.8731     528.4872   1424.71497     635.8731     528.4872
   1424.69971     636.2860     528.8954   1424.69971     636.2860     528.8954
   1424.68445     637.1460     528.2495   1424.68445     637.1460     528.2495
   1424.66919     636.7305     528.6705   1424.66919     636.7305     528.6705
   1424.65393     636.3531     529.1760   1424.65393     636.3531     529.1760
   1424.63867     636.3849     529.2672   1424.63867     636.3849     529.2672
   1424.62341     634.8600     529.7188   1424.62341     634.8600     529.7188
   1424.60815     635.2012     529.5479   1424.60815     635.2012     529.5479
   1424.59290     634.3783     530.1163   1424.59290     634.3783     530.1163
   1424.57764     635.4727     530.9440   1424.57764     635.4727     530.9440
   1424.56238     635.9808     529.5770   1424.56238     635.9808     529.5770
   1424.54712     635.2001     530.6184   1424.54712     635.2001     530.6184
   1424.53186     634.8583     530.2375   1424.53186     634.8583     530.2375
   1424.51660     634.3732     530.2639   1424.51660     634.3732     530.2639
   1424.50134     634.2109     530.2017   1424.50134     634.2109     530.2017
   1424.48608     634.3320     531.8741   1424.48608     634.3320     531.8741
   1424.47083     633.6503     531.2262   1424.47083     633.6503     531.2262
   1424.45557     633.6271     531.7404   1424.45557     633.6271     531.7404
   1424.44031     632.9702     531.7454   1424.44031     632.9702     531.7454
   1424.42505     631.7261     531.4693   1424.42505     631.7261     531.4693
   1424.40979     631.6663     531.9833   1424.40979     631.6663     531.9833
   1424.39453     632.1524     531.7231   1424.39453     632.1524     531.7231
   1424.37927     632.1275     531.6884   1424.37927     632.1275     531.6884
   1424.36401     631.0571     533.1666   1424.36401     631.0571     533.1666
   1424.34875     631.8195     531.5448   1424.34875     631.8195     531.5448
   1424.33350     630.8215     532.4034   1424.33350     630.8215     532.4034
   1424.31824     629.8577     532.2777   1424.31824     629.8577     532.2777
   1424.30298     630.5646     532.4515   1424.30298     630.5646     532.4515
   1424.28772     628.4894     532.6165   1424.28772     628.4894     532.6165
   1424.27246     628.0212     532.2883   1424.27246     628.0212     532.2883
   1424.25720     629.0417     531.9063   1424.25720     629.0417     531.9063
   1424.24194     628.7943     531.0283   1424.24194     628.7943     531.0283
   1424.22668     627.4576     532.1324   1424.22668     627.4576     532.1324
   1424.21143     626.5670     532.4720   1424.21143     626.5670     532.4720
   1424.19617     626.1387     532.9324   1424.19617     626.1387     532.9324
   1424.18091     625.8910     532.3907   1424.18091     625.8910     532.3907
   1424.16565     625.8826     531.8569   1424.16565     625.8826     531.8569
   1424.15039     624.4015     532.2454   1424.15039     624.4015     532.2454
   1424.13513     623.7538     532.3348   1424.13513     623.7538     532.3348
   1424.11987     623.4813     532.9617   1424.11987     623.4813     532.9617
   1424.10461     624.2202     532.3726   1424.10461     624.2202     532.3726
   1424.08936     621.7624     532.1686   1424.08936     621.7624     532.1686
   1424.07410     623.2484     531.5693   1424.07410     623.2484     531.5693
   1424.05884     620.9114     532.3768   1424.05884     620.9114     532.3768
   1424.04358     622.1171     532.5360   1424.04358     622.1171     532.5360
   1424.02832     620.5577     531.5682   1424.02832     620.5577     531.5682
   1424.01306     620.0580     532.5107   1424.01306     620.0580     532.5107
   1423.99780     618.9963     531.4890   1423.99780     618.9963     531.4890
   1423.98254     619.3307     532.8019   1423.98254     619.3307     532.8019
   1423.96729     618.0510     531.8465   1423.96729     618.0510     531.8465
   1423.95203     618.3034     531.9788   1423.95203     618.3034     531.9788
   1423.93677     616.7233     531.7930   1423.93677     616.7233     531.7930
   1423.92151     616.2156     532.4691   1423.92151     616.2156     532.4691
   1423.90625     615.9384     532.9245   1423.90625     615.9384     532.9245
   1423.89099     614.3832     531.5631   1423.89099     614.3832     531.5631
   1423.87573     614.2358     532.0034   1423.87573     614.2358     532.0034
   1423.86047     614.7950     532.0785   1423.86047     614.7950     532.0785
   1423.84521     613.1534     530.7592   1423.84521     613.1534     530.7592
   1423.82996     612.4908     530.6443   1423.82996     612.4908     530.6443
   1423.81470     612.3404     531.3538   1423.81470     612.3404     531.3538
   1423.79944     611.3915     530.7986   1423.79944     611.3915     530.7986
   1423.78418     611.5205     530.8249   1423.78418     611.5205     530.8249
   1423.76892     610.3187     530.7414   1423.76892     610.3187     530.7414
   1423.75366     609.5550     530.3700   1423.75366     609.5550     530.3700
   1423.73840     610.0787     529.8588   1423.73840     610.0787     529.8588
   1423.72314     608.2843     530.0690   1423.72314     608.2843     530.0690
   1423.70789     607.7110     529.2057   1423.70789     607.7110     529.2057
   1423.69263     607.8583     529.1537   1423.69263     607.8583     529.1537
   1423.67737     605.8163     529.3769   1423.67737     605.8163     529.3769
   1423.66211     606.2442     529.1150   1423.66211     606.2442     529.1150
   1423.64685     605.4218     528.3724   1423.64685     605.4218     528.3724
   1423.63159     605.0580     529.0954   1423.63159     605.0580     529.0954
   1423.61633     604.0140     528.2247   1423.61633     604.0140     528.2247
   1423.60107     602.5018     528.5680   1423.60107     602.5018     528.5680
   1423.58582     603.4295     527.1736   1423.58582     603.4295     527.1736
   1423.57056     602.8704     527.1401   1423.57056     602.8704     527.1401
   1423.55530     602.7289     527.2196   1423.55530     602.7289     527.2196
   1423.54004     601.6077     526.1465   1423.54004     601.6077     526.1465
   1423.52478     601.1592     526.8979   1423.52478     601.1592     526.8979
   1423.50952     600.7338     525.9406   1423.50952     600.7338     525.9406
   1423.49426     600.0450     526.3279   1423.49426     600.0450     526.3279
   1423.47900     598.7357     524.9702   1423.47900     598.7357     524.9702
   1423.46375     597.6214     525.5757   1423.46375     597.6214     525.5757
   1423.44849     597.0839     524.6096   1423.44849     597.0839     524.6096
   1423.43323     597.3462     523.7245   1423.43323     597.3462     523.7245
   1423.41797     595.9425     524.0818   1423.41797     595.9425     524.0818
   1423.40271     595.3799     523.9617   1423.40271     595.3799     523.9617
   1423.38745     594.7280     523.3914   1423.38745     594.7280     523.3914
   1423.37219     594.7748     523.5265   1423.37219     594.7748     523.5265
   1423.35693     594.1856     523.6290   1423.35693     594.1856     523.6290
   1423.34167     593.7938     522.7380   1423.34167     593.7938     522.7380
   1423.32642     593.8225     521.5999   1423.32642     593.8225     521.5999
   1423.31116     592.9593     521.5612   1423.31116     592.9593     521.5612
   1423.29590     591.1830     521.8450   1423.29590     591.1830     521.8450
   1423.28064     591.4342     520.8776   1423.28064     591.4342     520.8776
   1423.26538     590.0753     519.5309   1423.26538     590.0753     519.5309
   1423.25012     591.5802     519.8190   1423.25012     591.5802     519.8190
   1423.23486     590.0226     519.8985   1423.23486     590.0226     519.8985
   1423.21960     589.7715     519.2764   1423.21960     589.7715     519.2764
   1423.20435     588.6488     518.6132   1423.20435     588.6488     518.6132
   1423.18909     587.3138     518.3112   1423.18909     587.3138     518.3112
   1423.17383     587.5022     517.7975   1423.17383     587.5022     517.7975
   1423.15857     586.6111     517.7976   1423.15857     586.6111     517.7976
   1423.14331     586.1494     516.2894   1423.14331     586.1494     516.2894
   1423.12805     586.2247     515.5482   1423.12805     586.2247     515.5482
   1423.11279     585.6974     515.3019   1423.11279     585.6974     515.3019
   1423.09753     585.2582     514.7081   1423.09753     585.2582     514.7081
   1423.08228     584.4578     514.5544   1423.08228     584.4578     514.5544
   1423.06702     584.0410     513.7902   1423.06702     584.0410     513.7902
   1423.05176     584.3447     513.3134   1423.05176     584.3447     513.3134
   1423.03650     583.8737     512.9172   1423.03650     583.8737     512.9172
   1423.02124     583.4170     512.4947   1423.02124     583.4170     512.4947
   1423.00598     582.5214     511.7131   1423.00598     582.5214     511.7131
   1422.99072     583.0377     510.2315   1422.99072     583.0377     510.2315
   1422.97546     582.2453     510.3954   1422.97546     582.2453     510.3954
   1422.96021     581.5052     509.3819   1422.96021     581.5052     509.3819
   1422.94495     581.4886     508.4710   1422.94495     581.4886     508.4710
   1422.92969     581.6345     507.8550   1422.92969     581.6345     507.8550
   1422.91443     580.4963     508.6155   1422.91443     580.4963     508.6155
   1422.89917     579.9135     506.7417   1422.89917     579.9135     506.7417
   1422.88391     579.4052     506.4045   1422.88391     579.4052     506.4045
   1422.86865     578.6407     506.6056   1422.86865     578.6407     506.6056
   1422.85339     579.0847     505.7838   1422.85339     579.0847     505.7838
   1422.83813     578.9257     504.9315   1422.83813     578.9257     504.9315
   1422.82288     578.5997     504.3329   1422.82288     578.5997     504.3329
   1422.80762     577.0210     503.4048   1422.80762     577.0210     503.4048
   1422.79236     577.6233     501.7825   1422.79236     577.6233     501.7825
   1422.77710     576.7786     502.3837   1422.77710     576.7786     502.3837
   1422.76184     576.4525     500.6239   1422.76184     576.4525     500.6239
   1422.74658     576.0461     499.9471   1422.74658     576.0461     499.9471
   1422.73132     576.6827     499.3597   1422.73132     576.6827     499.3597
   1422.71606     575.3700     499.1326   1422.71606     575.3700     499.1326
   1422.70081     575.7618     497.6647   1422.70081     575.7618     497.6647
   1422.68555     574.6510     497.5270   1422.68555     574.6510     497.5270
   1422.67029     573.8440     497.4261   1422.67029     573.8440     497.4261
   1422.65503     573.8764     496.6857   1422.65503     573.8764     496.6857
   1422.63977     573.7910     495.3702   1422.63977     573.7910     495.3702
   1422.62451     574.3351     494.3270   1422.62451     574.3351     494.3270
   1422.60925     573.1478     494.1107   1422.60925     573.1478     494.1107
   1422.59399     573.0725     492.5727   1422.59399     573.0725     492.5727
   1422.57874     572.4890     492.1509   1422.57874     572.4890     492.1509
   1422.56348     572.3340     491.6400   1422.56348     572.3340     491.6400
   1422.54822     571.9866     490.8119   1422.54822     571.9866     490.8119
   1422.53296     572.2758     488.9172   1422.53296     572.2758     488.9172
   1422.51770     571.5873     488.8721   1422.51770     571.5873     488.8721
   1422.50244     571.7462     487.6523   1422.50244     571.7462     487.6523
   1422.48718     569.9045     486.9772   1422.48718     569.9045     486.9772
   1422.47192     570.8689     485.8543   1422.47192     570.8689     485.8543
   1422.45667     570.8663     484.9743   1422.45667     570.8663     484.9743
   1422.44141     570.2349     484.2143   1422.44141     570.2349     484.2143
   1422.42615     569.1443     483.3163   1422.42615     569.1443     483.3163
   1422.41089     570.4677     482.7502   1422.41089     570.4677     482.7502
   1422.39563     569.9140     481.1316   1422.39563     569.9140     481.1316
   1422.38037     570.2081     481.3560   1422.38037     570.2081     481.3560
   1422.36511     568.9526     479.4331   1422.36511     568.9526     479.4331
   1422.34985     568.0813     479.2875   1422.34985     568.0813     479.2875
   1422.33459     569.1179     477.1876   1422.33459     569.1179     477.1876
   1422.31934     568.6541     476.7078   1422.31934     568.6541     476.7078
   1422.30408     568.1182     476.5608   1422.30408     568.1182     476.5608
   1422.28882     567.8199     475.2255   1422.28882     567.8199     475.2255
   1422.27356     568.1229     474.6925   1422.27356     568.1229     474.6925
   1422.25830     567.9949     473.1089   1422.25830     567.9949     473.1089
   1422.24304     567.7624     472.8189   1422.24304     567.7624     472.8189
   1422.22778     567.1053     471.6273   1422.22778     567.1053     471.6273
   1422.21252     567.7957     470.6379   1422.21252     567.7957     470.6379
   1422.19727     566.9882     469.3516   1422.19727     566.9882     469.3516
   1422.18201     567.2330     468.2493   1422.18201     567.2330     468.2493
   1422.16675     566.8115     467.4479   1422.16675     566.8115     467.4479
   1422.15149     566.2595     466.6208   1422.15149     566.2595     466.6208
   1422.13623     566.1895     465.3943   1422.13623     566.1895     465.3943
   1422.12097     566.8203     464.9205   1422.12097     566.8203     464.9205
   1422.10571     566.0822     463.2249   1422.10571     566.0822     463.2249
   1422.09045     564.8945     462.7920   1422.09045     564.8945     462.7920
   1422.07520     565.0843     461.2744   1422.07520     565.0843     461.2744
   1422.05994     566.1875     460.3075   1422.05994     566.1875     460.3075
   1422.04468     564.9608     459.7620   1422.04468     564.9608     459.7620
   1422.02942     565.5184     457.8960   1422.02942     565.5184     457.8960
   1422.01416     564.9619     457.9787   1422.01416     564.9619     457.9787
   1421.99890     567.0363     457.8358   1421.99890     567.0363     457.8358
   1421.98364     564.3032     455.3173   1421.98364     564.3032     455.3173
   1421.96838     563.7525     454.6270   1421.96838     563.7525     454.6270
   1421.95312     564.2747     453.0066   1421.95312     564.2747     453.0066
   1421.93787     564.5693     453.1030   1421.93787     564.5693     453.1030
   1421.92261     564.1536     451.8731   1421.92261     564.1536     451.8731
   1421.90735     564.0914     450.5804   1421.90735     564.0914     450.5804
   1421.89209     563.6211     449.3186   1421.89209     563.6211     449.3186
   1421.87683     564.7994     448.7651   1421.87683     564.7994     448.7651
   1421.86157     564.1488     447.7228   1421.86157     564.1488     447.7228
   1421.84631     564.7567     446.5730   1421.84631     564.7567     446.5730
   1421.83105     562.9032     445.6102   1421.83105     562.9032     445.6102
   1421.81580     562.9236     444.1573   1421.81580     562.9236     444.1573
   1421.80054     563.2372     442.7248   1421.80054     563.2372     442.7248
   1421.78528     562.9186     441.9548   1421.78528     562.9186     441.9548
   1421.77002     562.8831     440.6905   1421.77002     562.8831     440.6905
   1421.75476     562.1165     440.1516   1421.75476     562.1165     440.1516
   1421.73950     563.4895     439.5308   1421.73950     563.4895     439.5308
   1421.72424     563.1202     437.6996   1421.72424     563.1202     437.6996
   1421.70898     562.1882     437.2321   1421.70898     562.1882     437.2321
   1421.69373     561.6111     435.5862   1421.69373     561.6111     435.5862
   1421.67847     562.8477     434.9543   1421.67847     562.8477     434.9543
   1421.66321     561.9631     434.0715   1421.66321     561.9631     434.0715
   1421.64795     562.0403     432.4056   1421.64795     562.0403     432.4056
   1421.63269     560.9966     431.2306   1421.63269     560.9966     431.2306
   1421.61743     561.1939     430.7477   1421.61743     561.1939     430.7477
   1421.60217     561.0044     430.0142   1421.60217     561.0044     430.0142
   1421.58691     560.8317     428.1163   1421.58691     560.8317     428.1163
   1421.57166     562.1153     428.0716   1421.57166     562.1153     428.0716
   1421.55640     560.7686     426.3331   1421.55640     560.7686     426.3331
   1421.54114     561.4741     425.7036   1421.54114     561.4741     425.7036
   1421.52588     561.0135     423.9457   1421.52588     561.0135     423.9457
   1421.51062     560.9954     423.5965   1421.51062     560.9954     423.5965
   1421.49536     560.6183     421.3220   1421.49536     560.6183     421.3220
   1421.48010     560.9775     421.0318   1421.48010     560.9775     421.0318
   1421.46484     559.6766     419.9387   1421.46484     559.6766     419.9387
   1421.44958     559.8137     419.0317   1421.44958     559.8137     419.0317
   1421.43433     561.0621     417.6880   1421.43433     561.0621     417.6880
   1421.41907     560.5134     416.3766   1421.41907     560.5134     416.3766
   1421.40381     559.8838     416.7207   1421.40381     559.8838     416.7207
   1421.38855     559.9124     414.7963   1421.38855     559.9124     414.7963
   1421.37329     559.2206     414.1249   1421.37329     559.2206     414.1249
   1421.35803     560.4053     413.2272   1421.35803     560.4053     413.2272
   1421.34277     558.5729     411.9055   1421.34277     558.5729     411.9055
   1421.32751     559.0905     411.1852   1421.32751     559.0905     411.1852
   1421.31226     558.9836     409.8075   1421.31226     558.9836     409.8075
   1421.29700     558.5170     408.9304   1421.29700     558.5170     408.9304
   1421.28174     558.9054     408.2603   1421.28174     558.9054     408.2603
   1421.26648     558.1840     406.9422   1421.26648     558.1840     406.9422
   1421.25122     557.9475     405.0504   1421.25122     557.9475     405.0504
   1421.23596     557.9717     404.6062   1421.23596     557.9717     404.6062
   1421.22070     557.7493     403.4309   1421.22070     557.7493     403.4309
   1421.20544     556.7977     402.4714   1421.20544     556.7977     402.4714
   1421.19019     558.2698     401.9865   1421.19019     558.2698     401.9865
   1421.17493     557.8991     401.1652   1421.17493     557.8991     401.1652
   1421.15967     556.8329     399.6430   1421.15967     556.8329     399.6430
   1421.14441     557.1495     397.9850   1421.14441     557.1495     397.9850
   1421.12915     557.1292     397.9014   1421.12915     557.1292     397.9014
   1421.11389     557.2585     397.2425   1421.11389     557.2585     397.2425
   1421.09863     557.6410     395.3465   1421.09863     557.6410     395.3465
   1421.08337     557.0111     394.5189   1421.08337     557.0111     394.5189
   1421.06812     557.3146     394.1462   1421.06812     557.3146     394.1462
   1421.05286     557.1618     393.1636   1421.05286     557.1618     393.1636
   1421.03760     558.0244     392.2003   1421.03760     558.0244     392.2003
   1421.02234     557.0522     391.6310   1421.02234     557.0522     391.6310
   1421.00708     556.7399     390.3739   1421.00708     556.7399     390.3739
   1420.99182     556.4176     389.5421   1420.99182     556.4176     389.5421
   1420.97656     557.3936     388.6504   1420.97656     557.3936     388.6504
   1420.96130     556.2022     387.5729   1420.96130     556.2022     387.5729
   1420.94604     556.0238     386.4422   1420.94604     556.0238     386.4422
   1420.93079     556.2077     385.7838   1420.93079     556.2077     385.7838
   1420.91553     556.0189     384.2019   1420.91553     556.0189     384.2019
   1420.90027     554.8740     383.6261   1420.90027     554.8740     383.6261
   1420.88501     556.7466     383.0243   1420.88501     556.7466     383.0243
   1420.86975     556.2036     381.8040   1420.86975     556.2036     381.8040
   1420.85449     556.4070     381.0161   1420.85449     556.4070     381.0161
   1420.83923     555.4705     379.9849   1420.83923     555.4705     379.9849
   1420.82397     556.0893     379.1670   1420.82397     556.0893     379.1670
   1420.80872     555.5007     378.8206   1420.80872     555.5007     378.8206
   1420.79346     555.6915     377.8926   1420.79346     555.6915     377.8926
   1420.77820     555.2639     377.7336   1420.77820     555.2639     377.7336
   1420.76294     556.0438     376.4366   1420.76294     556.0438     376.4366
   1420.74768     557.1144     375.6796   1420.74768     557.1144     375.6796
   1420.73242     555.8967     374.8171   1420.73242     555.8967     374.8171
   1420.71716     556.2576     374.7840   1420.71716     556.2576     374.7840
   1420.70190     556.3756     373.8117   1420.70190     556.3756     373.8117
   1420.68665     556.9812     373.5992   1420.68665     556.9812     373.5992
   1420.67139     557.3757     372.7316   1420.67139     557.3757     372.7316
   1420.65613     556.9310     371.5906   1420.65613     556.9310     371.5906
   1420.64087     557.2285     371.1035   1420.64087     557.2285     371.1035
   1420.62561     557.3350     369.8658   1420.62561     557.3350     369.8658
   1420.61035     557.7769     370.2431   1420.61035     557.7769     370.2431
   1420.59509     558.0391     369.8531   1420.59509     558.0391     369.8531
   1420.57983     559.9389     369.9056   1420.57983     559.9389     369.9056
   1420.56458     560.5714     369.3216   1420.56458     560.5714     369.3216
   1420.54932     562.5165     369.4224   1420.54932     562.5165     369.4224
   1420.53406     563.6895     369.8413   1420.53406     563.6895     369.8413
   1420.51880     564.9251     370.0522   1420.51880     564.9251     370.0522
   1420.50354     566.0689     370.7000   1420.50354     566.0689     370.7000
   1420.48828     567.5241     370.3715   1420.48828     567.5241     370.3715
   1420.47302     569.0999     370.7677   1420.47302     569.0999     370.7677
   1420.45776     570.5843     371.7024   1420.45776     570.5843     371.7024
   1420.44250     573.0159     372.0840   1420.44250     573.0159     372.0840
   1420.42725     575.8929     373.0020   1420.42725     575.8929     373.0020
   1420.41199     578.1746     374.7760   1420.41199     578.1746     374.7760
   1420.39673     582.9485     376.5030   1420.39673     582.9485     376.5030
   1420.38147     590.4048     380.2838   1420.38147     590.4048     380.2838
   1420.36621     604.2521     388.3108   1420.36621     604.2521     388.3108
   1420.35095     632.9263     404.7360   1420.35095     632.9263     404.7360
   1420.33569     696.0494     443.7079   1420.33569     696.0494     443.7079
   1420.32043     881.3929     557.5399   1420.32043     881.3929     557.5399
   1420.30518    1330.3021     833.5271   1420.30518    1330.3021     833.5271
   1420.28992    1699.8986    1060.9833   1420.28992    1699.8986    1060.9833
   1420.27466    1829.9290    1144.8821   1420.27466    1829.9290    1144.8821
   1420.25940    2023.7434    1261.1759   1420.25940    2023.7434    1261.1759
   1420.24414    2082.3950    1294.7415   1420.24414    2082.3950    1294.7415
   1420.22888    2133.1616    1321.9663   1420.22888    2133.1616    1321.9663
   1420.21362    2082.0815    1290.3342   1420.21362    2082.0815    1290.3342
   1420.19836    1839.3042    1139.3264   1420.19836    1839.3042    1139.3264
   1420.18311    1310.1882     813.2557   1420.18311    1310.1882     813.2557
   1420.16785     932.4630     581.1129   1420.16785     932.4630     581.1129
   1420.15259     750.3680     469.2938   1420.15259     750.3680     469.2938
   1420.13733     662.2463     415.3977   1420.13733     662.2463     415.3977
   1420.12207     615.0231     385.2459   1420.12207     615.0231     385.2459
   1420.10681     587.7308     369.0854   1420.10681     587.7308     369.0854
   1420.09155     573.9938     359.3933   1420.09155     573.9938     359.3933
   1420.07629     565.2811     353.6393   1420.07629     565.2811     353.6393
   1420.06104     561.1407     350.1710   1420.06104     561.1407     350.1710
   1420.04578     557.5557     348.0652   1420.04578     557.5557     348.0652
   1420.03052     556.1353     346.4928   1420.03052     556.1353     346.4928
   1420.01526     555.4035     346.1255   1420.01526     555.4035     346.1255
   1420.00000     554.8485     345.2363   1420.00000     554.8485     345.2363
   1419.98474     554.2937     344.3471   1419.98474     554.2937     344.3471
   1419.96948     553.0248     341.8500   1419.96948     553.0248     341.8500
   1419.95422     551.0522     341.3959   1419.95422     551.0522     341.3959
   1419.93896     551.4529     340.7631   1419.93896     551.4529     340.7631
   1419.92371     550.3220     340.0859   1419.92371     550.3220     340.0859
   1419.90845     550.1509     339.3684   1419.90845     550.1509     339.3684
   1419.89319     550.6547     338.7376   1419.89319     550.6547     338.7376
   1419.87793     551.4161     338.4835   1419.87793     551.4161     338.4835
   1419.86267     550.2669     337.6564   1419.86267     550.2669     337.6564
   1419.84741     550.9036     337.8426   1419.84741     550.9036     337.8426
   1419.83215     549.4860     337.1493   1419.83215     549.4860     337.1493
   1419.81689     550.5684     336.7627   1419.81689     550.5684     336.7627
   1419.80164     549.9464     337.2595   1419.80164     549.9464     337.2595
   1419.78638     549.7452     335.4838   1419.78638     549.7452     335.4838
   1419.77112     549.5839     335.9424   1419.77112     549.5839     335.9424
   1419.75586     549.6216     335.3373   1419.75586     549.6216     335.3373
   1419.74060     549.6174     334.5434   1419.74060     549.6174     334.5434
   1419.72534     550.0717     334.3465   1419.72534     550.0717     334.3465
   1419.71008     550.6459     333.8591   1419.71008     550.6459     333.8591
   1419.69482     550.0620     333.5886   1419.69482     550.0620     333.5886
   1419.67957     550.6066     333.3809   1419.67957     550.6066     333.3809
   1419.66431     551.1601     333.8492   1419.66431     551.1601     333.8492
   1419.64905     550.6597     332.7500   1419.64905     550.6597     332.7500
   1419.63379     551.8679     332.9465   1419.63379     551.8679     332.9465
   1419.61853     550.8427     332.5372   1419.61853     550.8427     332.5372
   1419.60327     550.5670     332.0772   1419.60327     550.5670     332.0772
   1419.58801     551.3951     332.4914   1419.58801     551.3951     332.4914
   1419.57275     551.1740     331.5373   1419.57275     551.1740     331.5373
   1419.55750     551.5594     331.7488   1419.55750     551.5594     331.7488
   1419.54224     551.5331     331.8333   1419.54224     551.5331     331.8333
   1419.52698     551.8650     331.7717   1419.52698     551.8650     331.7717
   1419.51172     551.5850     331.1477   1419.51172     551.5850     331.1477
   1419.49646     552.8837     331.4958   1419.49646     552.8837     331.4958
   1419.48120     552.9717     330.6029   1419.48120     552.9717     330.6029
   1419.46594     553.1135     330.7250   1419.46594     553.1135     330.7250
   1419.45068     552.4521     331.1985   1419.45068     552.4521     331.1985
   1419.43542     553.2355     330.6616   1419.43542     553.2355     330.6616
   1419.42017     553.2974     330.9509   1419.42017     553.2974     330.9509
   1419.40491     553.9872     330.8530   1419.40491     553.9872     330.8530
   1419.38965     553.9536     330.1816   1419.38965     553.9536     330.1816
   1419.37439     554.2985     330.2011   1419.37439     554.2985     330.2011
   1419.35913     554.6566     330.3332   1419.35913     554.6566     330.3332
   1419.34387     554.2985     330.2980   1419.34387     554.2985     330.2980
   1419.32861     554.7453     330.2322   1419.32861     554.7453     330.2322
   1419.31335     555.0038     330.8126   1419.31335     555.0038     330.8126
   1419.29810     555.3361     330.5809   1419.29810     555.3361     330.5809
   1419.28284     555.6164     330.1509   1419.28284     555.6164     330.1509
   1419.26758     555.8174     330.6763   1419.26758     555.8174     330.6763
   1419.25232     555.5915     330.4598   1419.25232     555.5915     330.4598
   1419.23706     556.7227     330.8852   1419.23706     556.7227     330.8852
   1419.22180     556.1432     330.5839   1419.22180     556.1432     330.5839
   1419.20654     556.3824     330.8344   1419.20654     556.3824     330.8344
   1419.19128     556.7982     330.6495   1419.19128     556.7982     330.6495
   1419.17603     556.1138     330.8606   1419.17603     556.1138     330.8606
   1419.16077     556.6880     330.8563   1419.16077     556.6880     330.8563
   1419.14551     558.4109     330.8891   1419.14551     558.4109     330.8891
   1419.13025     558.4496     330.9888   1419.13025     558.4496     330.9888
   1419.11499     558.3070     330.8662   1419.11499     558.3070     330.8662
   1419.09973     558.0814     331.8290   1419.09973     558.0814     331.8290
   1419.08447     558.7714     331.5780   1419.08447     558.7714     331.5780
   1419.06921     558.9669     332.2040   1419.06921     558.9669     332.2040
   1419.05396     559.8312     331.9489   1419.05396     559.8312     331.9489
   1419.03870     560.4006     331.8114   1419.03870     560.4006     331.8114
   1419.02344     559.9426     332.2887   1419.02344     559.9426     332.2887
   1419.00818     560.8725     333.1355   1419.00818     560.8725     333.1355
   1418.99292     560.3013     333.0429   1418.99292     560.3013     333.0429
   1418.97766     561.6205     333.2514   1418.97766     561.6205     333.2514
   1418.96240     561.7824     333.6073   1418.96240     561.7824     333.6073
   1418.94714     562.4606     333.3093   1418.94714     562.4606     333.3093
   1418.93188     562.6914     333.3731   1418.93188     562.6914     333.3731
   1418.91663     563.3464     333.4568   1418.91663     563.3464     333.4568
   1418.90137     563.5061     334.3798   1418.90137     563.5061     334.3798
   1418.88611     563.7318     334.1156   1418.88611     563.7318     334.1156
   1418.87085     563.4440     334.5990   1418.87085     563.4440     334.5990
   1418.85559     565.1790     335.2079   1418.85559     565.1790     335.2079
   1418.84033     565.0780     334.8948   1418.84033     565.0780     334.8948
   1418.82507     565.1362     335.4975   1418.82507     565.1362     335.4975
   1418.80981     565.5917     335.8922   1418.80981     565.5917     335.8922
   1418.79456     565.9949     335.8564   1418.79456     565.9949     335.8564
   1418.77930     566.1682     336.4462   1418.77930     566.1682     336.4462
   1418.76404     568.1002     336.9791   1418.76404     568.1002     336.9791
   1418.74878     567.9734     337.4231   1418.74878     567.9734     337.4231
   1418.73352     568.4725     337.6772   1418.73352     568.4725     337.6772
   1418.71826     568.7229     337.2808   1418.71826     568.7229     337.2808
   1418.70300     567.9296     338.6232   1418.70300     567.9296     338.6232
   1418.68774     569.5034     338.9181   1418.68774     569.5034     338.9181
   1418.67249     569.4215     339.6582   1418.67249     569.4215     339.6582
   1418.65723     569.6953     340.0108   1418.65723     569.6953     340.0108
   1418.64197     571.6606     340.6036   1418.64197     571.6606     340.6036
   1418.62671     571.0714     341.4789   1418.62671     571.0714     341.4789
   1418.61145     572.2971     340.8697   1418.61145     572.2971     340.8697
   1418.59619     571.5474     341.7394   1418.59619     571.5474     341.7394
   1418.58093     572.3024     341.9260   1418.58093     572.3024     341.9260
   1418.56567     572.9421     343.0626   1418.56567     572.9421     343.0626
   1418.55042     573.6960     343.0527   1418.55042     573.6960     343.0527
   1418.53516     573.6407     343.6019   1418.53516     573.6407     343.6019
   1418.51990     574.5768     344.0247   1418.51990     574.5768     344.0247
   1418.50464     574.5206     344.4444   1418.50464     574.5206     344.4444
   1418.48938     575.1072     344.7722   1418.48938     575.1072     344.7722
   1418.47412     575.2292     345.9005   1418.47412     575.2292     345.9005
   1418.45886     577.3530     346.1894   1418.45886     577.3530     346.1894
   1418.44360     576.3002     346.8080   1418.44360     576.3002     346.8080
   1418.42834     577.2078     347.6084   1418.42834     577.2078     347.6084
   1418.41309     577.8717     347.6487   1418.41309     577.8717     347.6487
   1418.39783     578.2394     348.5993   1418.39783     578.2394     348.5993
   1418.38257     578.3763     349.6356   1418.38257     578.3763     349.6356
   1418.36731     579.1495     350.0967   1418.36731     579.1495     350.0967
   1418.35205     580.5083     350.1111   1418.35205     580.5083     350.1111
   1418.33679     580.1517     351.0855   1418.33679     580.1517     351.0855
   1418.32153     580.9016     352.3686   1418.32153     580.9016     352.3686
   1418.30627     581.3607     352.4099   1418.30627     581.3607     352.4099
   1418.29102     583.2863     353.4552   1418.29102     583.2863     353.4552
   1418.27576     583.1970     353.5963   1418.27576     583.1970     353.5963
   1418.26050     583.1196     354.8008   1418.26050     583.1196     354.8008
   1418.24524     583.9590     355.3592   1418.24524     583.9590     355.3592
   1418.22998     584.4434     356.3710   1418.22998     584.4434     356.3710
   1418.21472     585.5827     356.9277   1418.21472     585.5827     356.9277
   1418.19946     585.4420     357.5766   1418.19946     585.4420     357.5766
   1418.18420     586.1493     358.1086   1418.18420     586.1493     358.1086
   1418.16895     587.8962     359.1264   1418.16895     587.8962     359.1264
   1418.15369     587.6771     359.7379   1418.15369     587.6771     359.7379
   1418.13843     588.7781     360.4924   1418.13843     588.7781     360.4924
   1418.12317     589.3691     361.2521   1418.12317     589.3691     361.2521
   1418.10791     590.2598     362.2697   1418.10791     590.2598     362.2697
   1418.09265     590.4045     362.9944   1418.09265     590.4045     362.9944
   1418.07739     591.0128     363.6312   1418.07739     591.0128     363.6312
   1418.06213     591.9567     364.8234   1418.06213     591.9567     364.8234
   1418.04688     592.8317     364.7748   1418.04688     592.8317     364.7748
   1418.03162     593.1215     366.5073   1418.03162     593.1215     366.5073
   1418.01636     593.3978     367.0724   1418.01636     593.3978     367.0724
   1418.00110     594.0626     368.2056   1418.00110     594.0626     368.2056
   1417.98584     594.9980     369.1999   1417.98584     594.9980     369.1999
   1417.97058     595.0927     369.5606   1417.97058     595.0927     369.5606
   1417.95532     596.3558     370.9062   1417.95532     596.3558     370.9062
   1417.94006     595.7686     371.4568   1417.94006     595.7686     371.4568
   1417.92480     597.5400     373.5500   1417.92480     597.5400     373.5500
   1417.90955     598.0467     373.6424   1417.90955     598.0467     373.6424
   1417.89429     599.3654     374.7473   1417.89429     599.3654     374.7473
   1417.87903     599.6517     375.6772   1417.87903     599.6517     375.6772
   1417.86377     600.7595     376.3610   1417.86377     600.7595     376.3610
   1417.84851     601.6873     377.2864   1417.84851     601.6873     377.2864
   1417.83325     601.7974     378.6714   1417.83325     601.7974     378.6714
   1417.81799     602.4333     379.3250   1417.81799     602.4333     379.3250
   1417.80273     604.1703     380.7342   1417.80273     604.1703     380.7342
   1417.78748     604.1429     381.2661   1417.78748     604.1429     381.2661
   1417.77222     604.4427     382.4102   1417.77222     604.4427     382.4102
   1417.75696     605.4590     383.9328   1417.75696     605.4590     383.9328
   1417.74170     606.7318     384.5922   1417.74170     606.7318     384.5922
   1417.72644     607.4432     385.4199   1417.72644     607.4432     385.4199
   1417.71118     606.9343     386.4954   1417.71118     606.9343     386.4954
   1417.69592     607.9143     387.2794   1417.69592     607.9143     387.2794
   1417.68066     608.5609     388.9428   1417.68066     608.5609     388.9428
   1417.66541     608.4211     390.0229   1417.66541     608.4211     390.0229
   1417.65015     610.4159     390.7574   1417.65015     610.4159     390.7574
   1417.63489     610.2769     392.1412   1417.63489     610.2769     392.1412
   1417.61963     611.1439     393.0329   1417.61963     611.1439     393.0329
   1417.60437     613.0854     394.5473   1417.60437     613.0854     394.5473
   1417.58911     613.0306     395.0976   1417.58911     613.0306     395.0976
   1417.57385     613.0840     396.9008   1417.57385     613.0840     396.9008
   1417.55859     613.8178     398.2763   1417.55859     613.8178     398.2763
   1417.54333     615.9762     399.4742   1417.54333     615.9762     399.4742
   1417.52808     616.2751     400.0306   1417.52808     616.2751     400.0306
   1417.51282     616.5531     400.5282   1417.51282     616.5531     400.5282
   1417.49756     617.3387     402.9656   1417.49756     617.3387     402.9656
   1417.48230     618.3574     403.1253   1417.48230     618.3574     403.1253
   1417.46704     618.2445     404.9291   1417.46704     618.2445     404.9291
   1417.45178     619.2357     404.7299   1417.45178     619.2357     404.7299
   1417.43652     620.4423     406.9489   1417.43652     620.4423     406.9489
   1417.42126     620.7036     407.4985   1417.42126     620.7036     407.4985
   1417.40601     620.3880     409.0149   1417.40601     620.3880     409.0149
   1417.39075     621.7441     410.7923   1417.39075     621.7441     410.7923
   1417.37549     622.4015     411.5504   1417.37549     622.4015     411.5504
   1417.36023     623.7783     413.0098   1417.36023     623.7783     413.0098
   1417.34497     623.9467     414.2109   1417.34497     623.9467     414.2109
   1417.32971     625.6024     414.4802   1417.32971     625.6024     414.4802
   1417.31445     626.4156     416.3260   1417.31445     626.4156     416.3260
   1417.29919     625.4444     417.3468   1417.29919     625.4444     417.3468
   1417.28394     626.3684     418.4800   1417.28394     626.3684     418.4800
   1417.26868     627.6622     420.4101   1417.26868     627.6622     420.4101
   1417.25342     628.4122     421.2066   1417.25342     628.4122     421.2066
   1417.23816     630.0064     422.4870   1417.23816     630.0064     422.4870
   1417.22290     628.1394     424.2553   1417.22290     628.1394     424.2553
   1417.20764     630.6108     425.2088   1417.20764     630.6108     425.2088
   1417.19238     630.7623     426.7487   1417.19238     630.7623     426.7487
   1417.17712     631.0353     427.7656   1417.17712     631.0353     427.7656
   1417.16187     632.6751     428.9480   1417.16187     632.6751     428.9480
   1417.14661     632.6496     429.9433   1417.14661     632.6496     429.9433
   1417.13135     632.1661     431.3042   1417.13135     632.1661     431.3042
   1417.11609     634.5804     432.1629   1417.11609     634.5804     432.1629
   1417.10083     633.4570     433.4528   1417.10083     633.4570     433.4528
   1417.08557     634.5667     434.7263   1417.08557     634.5667     434.7263
   1417.07031     635.5760     436.1405   1417.07031     635.5760     436.1405
   1417.05505     635.8965     437.1738   1417.05505     635.8965     437.1738
   1417.03979     637.2186     438.9598   1417.03979     637.2186     438.9598
   1417.02454     636.4125     438.8768   1417.02454     636.4125     438.8768
   1417.00928     637.7848     440.4963   1417.00928     637.7848     440.4963
   1416.99402     638.2393     442.4334   1416.99402     638.2393     442.4334
   1416.97876     638.3483     442.1635   1416.97876     638.3483     442.1635
   1416.96350     638.1619     443.4731   1416.96350     638.1619     443.4731
   1416.94824     639.8929     444.9754   1416.94824     639.8929     444.9754
   1416.93298     640.2226     446.1443   1416.93298     640.2226     446.1443
   1416.91772     641.4425     447.0874   1416.91772     641.4425     447.0874
   1416.90247     641.2742     448.4094   1416.90247     641.2742     448.4094
   1416.88721     641.7751     449.6808   1416.88721     641.7751     449.6808
   1416.87195     642.1236     451.0102   1416.87195     642.1236     451.0102
   1416.85669     643.0076     451.5323   1416.85669     643.0076     451.5323
   1416.84143     643.6791     452.3882   1416.84143     643.6791     452.3882
   1416.82617     643.8533     453.5208   1416.82617     643.8533     453.5208
   1416.81091     644.0614     454.5789   1416.81091     644.0614     454.5789
   1416.79565     644.1208     455.1733   1416.79565     644.1208     455.1733
   1416.78040     644.5151     456.6409   1416.78040     644.5151     456.6409
   1416.76514     645.7836     457.4773   1416.76514     645.7836     457.4773
   1416.74988     646.5226     458.0298   1416.74988     646.5226     458.0298
   1416.73462     646.4520     460.1004   1416.73462     646.4520     460.1004
   1416.71936     645.8499     460.8228   1416.71936     645.8499     460.8228
   1416.70410     646.4232     461.0096   1416.70410     646.4232     461.0096
   1416.68884     648.3626     462.0399   1416.68884     648.3626     462.0399
   1416.67358     646.7922     462.5670   1416.67358     646.7922     462.5670
   1416.65833     647.8880     463.1032   1416.65833     647.8880     463.1032
   1416.64307     647.7705     464.8410   1416.64307     647.7705     464.8410
   1416.62781     648.2103     465.3260   1416.62781     648.2103     465.3260
   1416.61255     648.8392     465.5281   1416.61255     648.8392     465.5281
   1416.59729     649.1899     466.8386   1416.59729     649.1899     466.8386
   1416.58203     648.9776     467.8375   1416.58203     648.9776     467.8375
   1416.56677     648.6161     468.3872   1416.56677     648.6161     468.3872
   1416.55151     648.4929     467.9906   1416.55151     648.4929     467.9906
   1416.53625     648.6066     469.2084   1416.53625     648.6066     469.2084
   1416.52100     649.5283     468.9818   1416.52100     649.5283     468.9818
   1416.50574     649.3555     471.6551   1416.50574     649.3555     471.6551
   1416.49048     650.0133     471.0947   1416.49048     650.0133     471.0947
   1416.47522     650.2433     472.2702   1416.47522     650.2433     472.2702
   1416.45996     649.6675     471.7373   1416.45996     649.6675     471.7373
   1416.44470     649.6433     472.3427   1416.44470     649.6433     472.3427
   1416.42944     649.8119     472.9820   1416.42944     649.8119     472.9820
   1416.41418     648.5663     473.0723   1416.41418     648.5663     473.0723
   1416.39893     649.1320     474.3531   1416.39893     649.1320     474.3531
   1416.38367     649.7175     473.7330   1416.38367     649.7175     473.7330
   1416.36841     650.8334     475.5357   1416.36841     650.8334     475.5357
   1416.35315     649.1531     474.4570   1416.35315     649.1531     474.4570
   1416.33789     649.2723     475.7737   1416.33789     649.2723     475.7737
   1416.32263     649.4569     476.2374   1416.32263     649.4569     476.2374
   1416.30737     650.5416     476.3320   1416.30737     650.5416     476.3320
   1416.29211     648.9368     476.4200   1416.29211     648.9368     476.4200
   1416.27686     648.9004     477.5145   1416.27686     648.9004     477.5145
   1416.26160     648.8624     477.1654   1416.26160     648.8624     477.1654
   1416.24634     649.7110     477.9522   1416.24634     649.7110     477.9522
   1416.23108     648.7421     477.1332   1416.23108     648.7421     477.1332
   1416.21582     649.7587     478.5249   1416.21582     649.7587     478.5249
   1416.20056     648.6712     478.0644   1416.20056     648.6712     478.0644
   1416.18530     648.5617     478.6707   1416.18530     648.5617     478.6707
   1416.17004     647.0517     477.9418   1416.17004     647.0517     477.9418
   1416.15479     646.7940     478.0262   1416.15479     646.7940     478.0262
   1416.13953     647.1055     478.0706   1416.13953     647.1055     478.0706
   1416.12427     646.4063     478.5516   1416.12427     646.4063     478.5516
   1416.10901     646.6837     478.0175   1416.10901     646.6837     478.0175
   1416.09375     647.0511     478.7510   1416.09375     647.0511     478.7510
   1416.07849     646.6124     478.5247   1416.07849     646.6124     478.5247
   1416.06323     645.8611     479.2231   1416.06323     645.8611     479.2231
   1416.04797     646.3129     478.5544   1416.04797     646.3129     478.5544
   1416.03271     645.1653     478.9519   1416.03271     645.1653     478.9519
   1416.01746     645.4479     478.2301   1416.01746     645.4479     478.2301
   1416.00220     645.0439     478.5971   1416.00220     645.0439     478.5971
   1415.98694     644.8270     478.0493   1415.98694     644.8270     478.0493
   1415.97168     642.1403     477.9925   1415.97168     642.1403     477.9925
   1415.95642     643.3084     478.4453   1415.95642     643.3084     478.4453
   1415.94116     642.9409     477.6431   1415.94116     642.9409     477.6431
   1415.92590     642.2733     478.6845   1415.92590     642.2733     478.6845
   1415.91064     642.8370     476.9285   1415.91064     642.8370     476.9285
   1415.89539     641.3928     478.0004   1415.89539     641.3928     478.0004
   1415.88013     641.3057     477.1512   1415.88013     641.3057     477.1512
   1415.86487     639.7297     477.8229   1415.86487     639.7297     477.8229
   1415.84961     641.2839     477.5744   1415.84961     641.2839     477.5744
   1415.83435     639.1729     478.0062   1415.83435     639.1729     478.0062
   1415.81909     639.2743     477.8347   1415.81909     639.2743     477.8347
   1415.80383     639.6733     476.1677   1415.80383     639.6733     476.1677
   1415.78857     638.8124     477.2991   1415.78857     638.8124     477.2991
   1415.77332     637.4586     476.7961   1415.77332     637.4586     476.7961
   1415.75806     636.4958     476.3923   1415.75806     636.4958     476.3923
   1415.74280     636.4159     475.9440   1415.74280     636.4159     475.9440
   1415.72754     635.5768     476.6933   1415.72754     635.5768     476.6933
   1415.71228     635.4775     475.7014   1415.71228     635.4775     475.7014
   1415.69702     634.8519     474.9960   1415.69702     634.8519     474.9960
   1415.68176     633.0995     475.4443   1415.68176     633.0995     475.4443
   1415.66650     632.3622     474.9155   1415.66650     632.3622     474.9155
   1415.65125     633.1371     473.7779   1415.65125     633.1371     473.7779
   1415.63599     632.1556     474.6301   1415.63599     632.1556     474.6301
   1415.62073     631.6785     473.7933   1415.62073     631.6785     473.7933
   1415.60547     630.9879     473.2328   1415.60547     630.9879     473.2328
   1415.59021     629.6310     472.9090   1415.59021     629.6310     472.9090
   1415.57495     628.9143     473.0536   1415.57495     628.9143     473.0536
   1415.55969     628.8594     472.1870   1415.55969     628.8594     472.1870
   1415.54443     626.6516     472.6213   1415.54443     626.6516     472.6213
   1415.52917     626.8929     471.8788   1415.52917     626.8929     471.8788
   1415.51392     626.7841     472.4205   1415.51392     626.7841     472.4205
   1415.49866     625.8787     470.6769   1415.49866     625.8787     470.6769
   1415.48340     624.3741     470.9211   1415.48340     624.3741     470.9211
   1415.46814     623.6725     470.1700   1415.46814     623.6725     470.1700
   1415.45288     622.5002     469.5645   1415.45288     622.5002     469.5645
   1415.43762     621.4056     469.2163   1415.43762     621.4056     469.2163
   1415.42236     621.4727     468.7237   1415.42236     621.4727     468.7237
   1415.40710     620.6110     468.9729   1415.40710     620.6110     468.9729
   1415.39185     620.0204     467.5833   1415.39185     620.0204     467.5833
   1415.37659     618.8108     467.9362   1415.37659     618.8108     467.9362
   1415.36133     617.5739     466.4949   1415.36133     617.5739     466.4949
   1415.34607     615.4274     466.4696   1415.34607     615.4274     466.4696
   1415.33081     615.7056     465.8438   1415.33081     615.7056     465.8438
   1415.31555     614.5681     465.6844   1415.31555     614.5681     465.6844
   1415.30029     614.4897     464.7925   1415.30029     614.4897     464.7925
   1415.28503     612.7993     464.4735   1415.28503     612.7993     464.4735
   1415.26978     613.1063     463.8673   1415.26978     613.1063     463.8673
   1415.25452     611.3724     462.6346   1415.25452     611.3724     462.6346
   1415.23926     610.5602     462.3354   1415.23926     610.5602     462.3354
   1415.22400     609.4286     461.6674   1415.22400     609.4286     461.6674
   1415.20874     607.8692     460.9078   1415.20874     607.8692     460.9078
   1415.19348     606.7781     460.5503   1415.19348     606.7781     460.5503
   1415.17822     605.5017     460.7297   1415.17822     605.5017     460.7297
   1415.16296     605.2726     459.6885   1415.16296     605.2726     459.6885
   1415.14771     603.4063     458.7150   1415.14771     603.4063     458.7150
   1415.13245     603.1841     457.9180   1415.13245     603.1841     457.9180
   1415.11719     601.4905     457.1620   1415.11719     601.4905     457.1620
   1415.10193     600.0427     455.8581   1415.10193     600.0427     455.8581
   1415.08667     599.2438     455.3042   1415.08667     599.2438     455.3042
   1415.07141     597.7775     454.7298   1415.07141     597.7775     454.7298
   1415.05615     596.6713     453.5109   1415.05615     596.6713     453.5109
   1415.04089     596.0686     453.1120   1415.04089     596.0686     453.1120
   1415.02563     594.6613     452.8945   1415.02563     594.6613     452.8945
   1415.01038     593.1360     451.4689   1415.01038     593.1360     451.4689
   1414.99512     592.1107     450.7083   1414.99512     592.1107     450.7083
   1414.97986     590.4819     450.2479   1414.97986     590.4819     450.2479
   1414.96460     589.8243     449.7592   1414.96460     589.8243     449.7592
   1414.94934     587.8801     448.1929   1414.94934     587.8801     448.1929
   1414.93408     587.2741     447.4225   1414.93408     587.2741     447.4225
   1414.91882     584.8979     446.8655   1414.91882     584.8979     446.8655
   1414.90356     584.1746     445.0256   1414.90356     584.1746     445.0256
   1414.88831     583.5073     445.5244   1414.88831     583.5073     445.5244
   1414.87305     581.0639     443.7316   1414.87305     581.0639     443.7316
   1414.85779     579.2922     442.3163   1414.85779     579.2922     442.3163
   1414.84253     578.0382     441.7164   1414.84253     578.0382     441.7164
   1414.82727     577.2215     441.0346   1414.82727     577.2215     441.0346
   1414.81201     575.7640     440.0583   1414.81201     575.7640     440.0583
   1414.79675     575.1394     439.3181   1414.79675     575.1394     439.3181
   1414.78149     573.1626     437.5151   1414.78149     573.1626     437.5151
   1414.76624     571.3658     437.5381   1414.76624     571.3658     437.5381
   1414.75098     570.8561     436.5641   1414.75098     570.8561     436.5641
   1414.73572     568.2465     435.4500   1414.73572     568.2465     435.4500
   1414.72046     566.3784     434.4242   1414.72046     566.3784     434.4242
   1414.70520     565.2177     432.4162   1414.70520     565.2177     432.4162
   1414.68994     564.5014     432.0184   1414.68994     564.5014     432.0184
   1414.67468     561.8051     430.9609   1414.67468     561.8051     430.9609
   1414.65942     560.5597     429.5830   1414.65942     560.5597     429.5830
   1414.64417     558.2617     428.6727   1414.64417     558.2617     428.6727
   1414.62891     557.0670     427.8605   1414.62891     557.0670     427.8605
   1414.61365     555.9334     425.2271   1414.61365     555.9334     425.2271
   1414.59839     554.0433     424.7231   1414.59839     554.0433     424.7231
   1414.58313     551.4677     423.5343   1414.58313     551.4677     423.5343
   1414.56787     550.8487     422.7881   1414.56787     550.8487     422.7881
   1414.55261     548.2827     421.0240   1414.55261     548.2827     421.0240
   1414.53735     547.1867     420.2127   1414.53735     547.1867     420.2127
   1414.52209     545.0074     418.9775   1414.52209     545.0074     418.9775
   1414.50684     543.5948     417.3958   1414.50684     543.5948     417.3958
   1414.49158     542.0668     416.7513   1414.49158     542.0668     416.7513
   1414.47632     539.6802     414.8087   1414.47632     539.6802     414.8087
   1414.46106     537.6281     414.3618   1414.46106     537.6281     414.3618
   1414.44580     536.4863     413.1370   1414.44580     536.4863     413.1370
   1414.43054     534.1646     411.5169   1414.43054     534.1646     411.5169
   1414.41528     532.4647     410.1507   1414.41528     532.4647     410.1507
   1414.40002     530.5947     409.0724   1414.40002     530.5947     409.0724
   1414.38477     528.9136     407.2356   1414.38477     528.9136     407.2356
   1414.36951     526.7053     406.0280   1414.36951     526.7053     406.0280
   1414.35425     524.9924     404.1997   1414.35425     524.9924     404.1997
   1414.33899     523.2017     403.1107   1414.33899     523.2017     403.1107
   1414.32373     521.0690     402.2996   1414.32373     521.0690     402.2996
   1414.30847     518.5012     400.1503   1414.30847     518.5012     400.1503
   1414.29321     517.4174     399.4299   1414.29321     517.4174     399.4299
   1414.27795     514.6713     398.0070   1414.27795     514.6713     398.0070
   1414.26270     513.1808     396.4843   1414.26270     513.1808     396.4843
   1414.24744     510.8504     394.9321   1414.24744     510.8504     394.9321
   1414.23218     509.0625     393.0373   1414.23218     509.0625     393.0373
   1414.21692     507.0672     391.8348   1414.21692     507.0672     391.8348
   1414.20166     505.1926     390.8615   1414.20166     505.1926     390.8615
   1414.18640     502.5775     388.6822   1414.18640     502.5775     388.6822
   1414.17114     500.0840     387.9222   1414.17114     500.0840     387.9222
   1414.15588     498.9354     386.8424   1414.15588     498.9354     386.8424
   1414.14062     497.0110     384.9564   1414.14062     497.0110     384.9564
   1414.12537     493.8165     383.3772   1414.12537     493.8165     383.3772
   1414.11011     491.7236     382.1644   1414.11011     491.7236     382.1644
   1414.09485     490.1049     379.8627   1414.09485     490.1049     379.8627
   1414.07959     487.6353     378.6509   1414.07959     487.6353     378.6509
   1414.06433     485.9321     376.7938   1414.06433     485.9321     376.7938
   1414.04907     483.2932     375.6310   1414.04907     483.2932     375.6310
   1414.03381     480.3246     374.1429   1414.03381     480.3246     374.1429
   1414.01855     478.4890     372.6754   1414.01855     478.4890     372.6754
   1414.00330     477.1014     371.2512   1414.00330     477.1014     371.2512
   1413.98804     474.4806     369.4497   1413.98804     474.4806     369.4497
   1413.97278     472.4187     367.4243   1413.97278     472.4187     367.4243
   1413.95752     469.4890     366.7671   1413.95752     469.4890     366.7671
   1413.94226     467.6878     364.8183   1413.94226     467.6878     364.8183
   1413.92700     465.2691     363.2348   1413.92700     465.2691     363.2348
   1413.91174     463.9378     361.7802   1413.91174     463.9378     361.7802
   1413.89648     460.6642     360.3184   1413.89648     460.6642     360.3184
   1413.88123     458.3661     359.0172   1413.88123     458.3661     359.0172
   1413.86597     455.2487     356.1627   1413.86597     455.2487     356.1627
   1413.85071     453.7957     355.2046   1413.85071     453.7957     355.2046
   1413.83545     451.0755     353.5699   1413.83545     451.0755     353.5699
   1413.82019     448.7789     352.5801   1413.82019     448.7789     352.5801
   1413.80493     446.3318     350.0215   1413.80493     446.3318     350.0215
   1413.78967     444.5535     348.8465   1413.78967     444.5535     348.8465
   1413.77441     441.6595     347.2866   1413.77441     441.6595     347.2866
   1413.75916     439.8627     345.5578   1413.75916     439.8627     345.5578
   1413.74390     437.4447     344.5550   1413.74390     437.4447     344.5550
   1413.72864     435.3045     342.7556   1413.72864     435.3045     342.7556
   1413.71338     432.5619     340.8627   1413.71338     432.5619     340.8627
   1413.69812     430.2541     339.2929   1413.69812     430.2541     339.2929
   1413.68286     427.6137     337.4970   1413.68286     427.6137     337.4970
   1413.66760     426.5153     336.0596   1413.66760     426.5153     336.0596
   1413.65234     422.8784     334.4580   1413.65234     422.8784     334.4580
   1413.63708     421.4115     333.2068   1413.63708     421.4115     333.2068
   1413.62183     419.4942     331.7624   1413.62183     419.4942     331.7624
   1413.60657     416.8729     330.0624   1413.60657     416.8729     330.0624
   1413.59131     414.5170     328.6972   1413.59131     414.5170     328.6972
   1413.57605     412.1262     327.1143   1413.57605     412.1262     327.1143
   1413.56079     409.8943     325.3339   1413.56079     409.8943     325.3339
   1413.54553     407.3303     324.0323   1413.54553     407.3303     324.0323
   1413.53027     405.0906     322.6876   1413.53027     405.0906     322.6876
   1413.51501     402.8496     320.7700   1413.51501     402.8496     320.7700
   1413.49976     400.4383     319.3503   1413.49976     400.4383     319.3503
   1413.48450     397.8465     318.3557   1413.48450     397.8465     318.3557
   1413.46924     396.2134     316.6882   1413.46924     396.2134     316.6882
   1413.45398     393.6922     315.1462   1413.45398     393.6922     315.1462
   1413.43872     391.2713     313.9125   1413.43872     391.2713     313.9125
   1413.42346     388.8704     312.2864   1413.42346     388.8704     312.2864
   1413.40820     387.2090     310.6048   1413.40820     387.2090     310.6048
   1413.39294     384.2640     309.4108   1413.39294     384.2640     309.4108
   1413.37769     382.0391     308.0272   1413.37769     382.0391     308.0272
   1413.36243     380.2961     306.2685   1413.36243     380.2961     306.2685
   1413.34717     378.3066     305.1888   1413.34717     378.3066     305.1888
   1413.33191     376.4783     304.0064   1413.33191     376.4783     304.0064
   1413.31665     373.5580     302.7535   1413.31665     373.5580     302.7535
   1413.30139     371.7573     300.9629   1413.30139     371.7573     300.9629
   1413.28613     369.6268     300.1401   1413.28613     369.6268     300.1401
   1413.27087     366.9576     298.5270   1413.27087     366.9576     298.5270
   1413.25562     365.5821     297.5295   1413.25562     365.5821     297.5295
   1413.24036     363.1535     295.7059   1413.24036     363.1535     295.7059
   1413.22510     361.4107     294.5121   1413.22510     361.4107     294.5121
   1413.20984     359.4125     293.4814   1413.20984     359.4125     293.4814
   1413.19458     357.4535     292.1384   1413.19458     357.4535     292.1384
   1413.17932     355.1420     291.1330   1413.17932     355.1420     291.1330
   1413.16406     353.1435     289.9500   1413.16406     353.1435     289.9500
   1413.14880     351.7456     288.2137   1413.14880     351.7456     288.2137
   1413.13354     349.2725     287.6119   1413.13354     349.2725     287.6119
   1413.11829     347.1570     286.5630   1413.11829     347.1570     286.5630
   1413.10303     345.0219     285.5621   1413.10303     345.0219     285.5621
   1413.08777     344.0355     284.6609   1413.08777     344.0355     284.6609
   1413.07251     341.9949     283.8201   1413.07251     341.9949     283.8201
   1413.05725     339.7751     282.3460   1413.05725     339.7751     282.3460
   1413.04199     338.1306     281.5313   1413.04199     338.1306     281.5313
   1413.02673     336.0169     280.1989   1413.02673     336.0169     280.1989
   1413.01147     334.4743     279.1617   1413.01147     334.4743     279.1617
   1412.99622     333.0261     278.9072   1412.99622     333.0261     278.9072
   1412.98096     330.9424     277.2492   1412.98096     330.9424     277.2492
   1412.96570     329.4704     276.6181   1412.96570     329.4704     276.6181
   1412.95044     327.9983     275.0734   1412.95044     327.9983     275.0734
   1412.93518     326.6273     274.7135   1412.93518     326.6273     274.7135
   1412.91992     324.1633     274.0050   1412.91992     324.1633     274.0050
   1412.90466     323.3286     273.4341   1412.90466     323.3286     273.4341
   1412.88940     321.8679     272.6209   1412.88940     321.8679     272.6209
   1412.87415     319.9579     272.0037   1412.87415     319.9579     272.0037
   1412.85889     319.0905     271.2882   1412.85889     319.0905     271.2882
   1412.84363     317.4565     270.4254   1412.84363     317.4565     270.4254
   1412.82837     316.2701     270.0146   1412.82837     316.2701     270.0146
   1412.81311     314.5280     269.4892   1412.81311     314.5280     269.4892
   1412.79785     313.2328     269.0882   1412.79785     313.2328     269.0882
   1412.78259     311.5784     268.6655   1412.78259     311.5784     268.6655
   1412.76733     310.6854     268.0610   1412.76733     310.6854     268.0610
   1412.75208     309.5782     267.4041   1412.75208     309.5782     267.4041
   1412.73682     308.0887     266.8836   1412.73682     308.0887     266.8836
   1412.72156     307.4152     266.5070   1412.72156     307.4152     266.5070
   1412.70630     305.9771     266.2649   1412.70630     305.9771     266.2649
   1412.69104     304.8997     266.0440   1412.69104     304.8997     266.0440
   1412.67578     304.2941     265.7990   1412.67578     304.2941     265.7990
   1412.66052     303.0116     265.4708   1412.66052     303.0116     265.4708
   1412.64526     302.6212     265.3481   1412.64526     302.6212     265.3481
   1412.63000     301.5375     265.3020   1412.63000     301.5375     265.3020
   1412.61475     300.7621     265.0778   1412.61475     300.7621     265.0778
   1412.59949     299.6795     265.2318   1412.59949     299.6795     265.2318
   1412.58423     299.1556     264.9285   1412.58423     299.1556     264.9285
   1412.56897     298.1338     264.7565   1412.56897     298.1338     264.7565
   1412.55371     297.8436     264.8585   1412.55371     297.8436     264.8585
   1412.53845     296.8524     265.0154   1412.53845     296.8524     265.0154
   1412.52319     296.4527     265.1925   1412.52319     296.4527     265.1925
   1412.50793     295.9705     265.2562   1412.50793     295.9705     265.2562
   1412.49268     295.3648     264.7491   1412.49268     295.3648     264.7491
   1412.47742     294.8371     265.3851   1412.47742     294.8371     265.3851
   1412.46216     294.7128     265.4489   1412.46216     294.7128     265.4489
   1412.44690     293.9705     265.3682   1412.44690     293.9705     265.3682
   1412.43164     293.3582     265.6406   1412.43164     293.3582     265.6406
   1412.41638     293.0519     266.1705   1412.41638     293.0519     266.1705
   1412.40112     293.2736     266.7818   1412.40112     293.2736     266.7818
   1412.38586     293.3179     267.1080   1412.38586     293.3179     267.1080
   1412.37061     293.1275     267.3049   1412.37061     293.1275     267.3049
   1412.35535     292.6292     267.1635   1412.35535     292.6292     267.1635
   1412.34009     292.4625     268.1560   1412.34009     292.4625     268.1560
   1412.32483     292.8755     268.5291   1412.32483     292.8755     268.5291
   1412.30957     292.5018     269.8184   1412.30957     292.5018     269.8184
   1412.29431     292.3952     270.6207   1412.29431     292.3952     270.6207
   1412.27905     292.7877     271.0211   1412.27905     292.7877     271.0211
   1412.26379     292.9652     271.6917   1412.26379     292.9652     271.6917
   1412.24854     293.2769     272.5912   1412.24854     293.2769     272.5912
   1412.23328     293.0814     272.4932   1412.23328     293.0814     272.4932
   1412.21802     293.4836     274.0722   1412.21802     293.4836     274.0722
   1412.20276     294.2032     273.9638   1412.20276     294.2032     273.9638