#     FILENAME=!Skynet_57528_lach-cc-214_20623_21045.cyb.fits
#     BASENAME=Skynet_57528_lach-cc-214_20623_21045
#     SRC_NAME=lach-cc-214
#     OBSERVER=ccmadison16_9505
#     DATE_OBS=2016-05-20T20:06:50.500
#        OBSID=20623
#      SCANNUM=21045
#          MJD=57528.8391
#          UTC=72500
#     SCANTYPE=track
#     DATAMODE=HIRES
#     TUNEFREQ=1420.0000
# Actual_FREQ1=1420.0000
# Actual_FREQ2=1420.0000
#    LO1Tuning=6870.000
#     RFFILTER=1355_1435
#        OBSBW=-15.6250
#        NCHAN=1024 
#        FOCUS=37.0709
#           RA=06:53:24.66
#          DEC=-00:57:03.84
#      RA(hrs)=6.890200
#     DEC(deg)=-0.951100
#    AZIM(deg)=175.106
#    ELEV(deg)=50.364
#     IFattens=10.00, 9.00
#      WARNING=None
#    TCAL_XL1=7.9635
#    TCAL_YR1=9.1340
#    TCAL_XL2=7.9635
#    TCAL_YR2=9.1340
#     TRX_XL1=11.7060
#     TRX_YR1=11.7060
#     TRX_XL2=11.7060
#     TRX_YR2=11.7060
#        TAVE=1.0000
#Freq1(MHz)          XL1          YR1  Freq2(MHz)          XL2          YR2 

   1427.81250     354.1852     259.1579   1427.81250     354.1852     259.1579
   1427.79724     354.5199     260.0346   1427.79724     354.5199     260.0346
   1427.78198     355.3062     260.7367   1427.78198     355.3062     260.7367
   1427.76672     355.6166     260.9915   1427.76672     355.6166     260.9915
   1427.75146     356.1974     262.1289   1427.75146     356.1974     262.1289
   1427.73621     357.1781     262.4556   1427.73621     357.1781     262.4556
   1427.72095     358.1143     263.3950   1427.72095     358.1143     263.3950
   1427.70569     358.8953     263.8291   1427.70569     358.8953     263.8291
   1427.69043     360.4034     264.5139   1427.69043     360.4034     264.5139
   1427.67517     361.2273     265.6506   1427.67517     361.2273     265.6506
   1427.65991     361.8333     266.1611   1427.65991     361.8333     266.1611
   1427.64465     362.6097     267.6146   1427.64465     362.6097     267.6146
   1427.62939     364.1865     268.9434   1427.62939     364.1865     268.9434
   1427.61414     365.3970     269.2091   1427.61414     365.3970     269.2091
   1427.59888     367.0141     270.0551   1427.59888     367.0141     270.0551
   1427.58362     368.6039     271.6650   1427.58362     368.6039     271.6650
   1427.56836     369.2488     272.6792   1427.56836     369.2488     272.6792
   1427.55310     370.8076     273.9796   1427.55310     370.8076     273.9796
   1427.53784     372.1148     275.1524   1427.53784     372.1148     275.1524
   1427.52258     374.0494     275.8802   1427.52258     374.0494     275.8802
   1427.50732     375.8736     277.4607   1427.50732     375.8736     277.4607
   1427.49207     377.0917     278.8548   1427.49207     377.0917     278.8548
   1427.47681     378.1928     280.0842   1427.47681     378.1928     280.0842
   1427.46155     379.7255     281.2956   1427.46155     379.7255     281.2956
   1427.44629     381.6059     282.7372   1427.44629     381.6059     282.7372
   1427.43103     383.5977     283.9840   1427.43103     383.5977     283.9840
   1427.41577     385.6976     285.8088   1427.41577     385.6976     285.8088
   1427.40051     386.6098     286.8353   1427.40051     386.6098     286.8353
   1427.38525     389.0668     288.7909   1427.38525     389.0668     288.7909
   1427.37000     390.8967     290.1189   1427.37000     390.8967     290.1189
   1427.35474     393.4149     291.7219   1427.35474     393.4149     291.7219
   1427.33948     394.4244     293.1033   1427.33948     394.4244     293.1033
   1427.32422     397.0590     294.7415   1427.32422     397.0590     294.7415
   1427.30896     398.7273     296.5827   1427.30896     398.7273     296.5827
   1427.29370     401.4738     298.4614   1427.29370     401.4738     298.4614
   1427.27844     402.2648     300.1463   1427.27844     402.2648     300.1463
   1427.26318     404.6446     301.7242   1427.26318     404.6446     301.7242
   1427.24792     406.9779     303.8639   1427.24792     406.9779     303.8639
   1427.23267     409.2518     305.8361   1427.23267     409.2518     305.8361
   1427.21741     411.6865     307.5142   1427.21741     411.6865     307.5142
   1427.20215     414.3398     309.2078   1427.20215     414.3398     309.2078
   1427.18689     415.9923     311.2823   1427.18689     415.9923     311.2823
   1427.17163     418.9413     313.1638   1427.17163     418.9413     313.1638
   1427.15637     420.4644     315.4748   1427.15637     420.4644     315.4748
   1427.14111     423.5648     316.8517   1427.14111     423.5648     316.8517
   1427.12585     425.7102     319.4647   1427.12585     425.7102     319.4647
   1427.11060     427.3518     321.2243   1427.11060     427.3518     321.2243
   1427.09534     430.8162     322.9677   1427.09534     430.8162     322.9677
   1427.08008     433.1802     325.3066   1427.08008     433.1802     325.3066
   1427.06482     434.5432     326.8928   1427.06482     434.5432     326.8928
   1427.04956     438.4594     329.5119   1427.04956     438.4594     329.5119
   1427.03430     440.0643     331.6784   1427.03430     440.0643     331.6784
   1427.01904     443.1889     333.8064   1427.01904     443.1889     333.8064
   1427.00378     445.3407     335.8777   1427.00378     445.3407     335.8777
   1426.98853     447.9255     337.9451   1426.98853     447.9255     337.9451
   1426.97327     450.1950     340.3601   1426.97327     450.1950     340.3601
   1426.95801     453.6834     343.1103   1426.95801     453.6834     343.1103
   1426.94275     456.1680     344.4992   1426.94275     456.1680     344.4992
   1426.92749     458.1430     347.7258   1426.92749     458.1430     347.7258
   1426.91223     461.0821     349.0596   1426.91223     461.0821     349.0596
   1426.89697     463.6463     352.3712   1426.89697     463.6463     352.3712
   1426.88171     466.9837     354.3609   1426.88171     466.9837     354.3609
   1426.86646     469.7868     356.1854   1426.86646     469.7868     356.1854
   1426.85120     472.1389     358.2102   1426.85120     472.1389     358.2102
   1426.83594     475.2954     360.8673   1426.83594     475.2954     360.8673
   1426.82068     476.8063     364.3414   1426.82068     476.8063     364.3414
   1426.80542     478.9257     366.3813   1426.80542     478.9257     366.3813
   1426.79016     484.3486     368.7211   1426.79016     484.3486     368.7211
   1426.77490     485.7554     370.8206   1426.77490     485.7554     370.8206
   1426.75964     489.0978     373.0228   1426.75964     489.0978     373.0228
   1426.74438     490.7015     375.6102   1426.74438     490.7015     375.6102
   1426.72913     494.5907     377.8278   1426.72913     494.5907     377.8278
   1426.71387     496.1079     380.4602   1426.71387     496.1079     380.4602
   1426.69861     499.1571     383.3924   1426.69861     499.1571     383.3924
   1426.68335     501.8292     385.4569   1426.68335     501.8292     385.4569
   1426.66809     504.3966     388.3494   1426.66809     504.3966     388.3494
   1426.65283     507.3617     391.3977   1426.65283     507.3617     391.3977
   1426.63757     511.0850     392.8081   1426.63757     511.0850     392.8081
   1426.62231     513.5268     396.3083   1426.62231     513.5268     396.3083
   1426.60706     515.2937     397.2126   1426.60706     515.2937     397.2126
   1426.59180     517.9773     400.4727   1426.59180     517.9773     400.4727
   1426.57654     520.6926     402.4731   1426.57654     520.6926     402.4731
   1426.56128     523.7172     405.5478   1426.56128     523.7172     405.5478
   1426.54602     527.0374     408.2496   1426.54602     527.0374     408.2496
   1426.53076     529.6486     410.4781   1426.53076     529.6486     410.4781
   1426.51550     531.9266     412.7200   1426.51550     531.9266     412.7200
   1426.50024     534.5310     415.5830   1426.50024     534.5310     415.5830
   1426.48499     537.4354     418.1420   1426.48499     537.4354     418.1420
   1426.46973     539.3491     421.7843   1426.46973     539.3491     421.7843
   1426.45447     542.6495     422.1626   1426.45447     542.6495     422.1626
   1426.43921     545.6252     425.1105   1426.43921     545.6252     425.1105
   1426.42395     548.5682     428.1920   1426.42395     548.5682     428.1920
   1426.40869     550.6553     429.8235   1426.40869     550.6553     429.8235
   1426.39343     553.2778     432.7226   1426.39343     553.2778     432.7226
   1426.37817     555.6042     435.4636   1426.37817     555.6042     435.4636
   1426.36292     557.6860     437.9365   1426.36292     557.6860     437.9365
   1426.34766     561.4687     440.6648   1426.34766     561.4687     440.6648
   1426.33240     563.3589     442.9658   1426.33240     563.3589     442.9658
   1426.31714     565.4452     445.4917   1426.31714     565.4452     445.4917
   1426.30188     568.2984     447.4433   1426.30188     568.2984     447.4433
   1426.28662     570.7677     450.0229   1426.28662     570.7677     450.0229
   1426.27136     572.8647     452.6097   1426.27136     572.8647     452.6097
   1426.25610     575.9473     455.6564   1426.25610     575.9473     455.6564
   1426.24084     577.9311     456.4684   1426.24084     577.9311     456.4684
   1426.22559     580.5956     459.8784   1426.22559     580.5956     459.8784
   1426.21033     583.7073     461.6790   1426.21033     583.7073     461.6790
   1426.19507     585.0632     464.5742   1426.19507     585.0632     464.5742
   1426.17981     587.7548     466.8708   1426.17981     587.7548     466.8708
   1426.16455     590.7876     470.1620   1426.16455     590.7876     470.1620
   1426.14929     591.7780     471.9897   1426.14929     591.7780     471.9897
   1426.13403     594.4641     473.7991   1426.13403     594.4641     473.7991
   1426.11877     596.8243     476.9508   1426.11877     596.8243     476.9508
   1426.10352     599.5172     478.5238   1426.10352     599.5172     478.5238
   1426.08826     601.8191     480.5953   1426.08826     601.8191     480.5953
   1426.07300     603.2025     483.0942   1426.07300     603.2025     483.0942
   1426.05774     606.0706     485.7312   1426.05774     606.0706     485.7312
   1426.04248     607.4218     487.4061   1426.04248     607.4218     487.4061
   1426.02722     609.7820     490.3131   1426.02722     609.7820     490.3131
   1426.01196     612.4326     492.1182   1426.01196     612.4326     492.1182
   1425.99670     613.9781     495.1250   1425.99670     613.9781     495.1250
   1425.98145     616.2709     497.5989   1425.98145     616.2709     497.5989
   1425.96619     618.0582     499.4574   1425.96619     618.0582     499.4574
   1425.95093     620.1083     500.9484   1425.95093     620.1083     500.9484
   1425.93567     621.3454     502.9371   1425.93567     621.3454     502.9371
   1425.92041     624.9092     504.9444   1425.92041     624.9092     504.9444
   1425.90515     625.1884     508.2288   1425.90515     625.1884     508.2288
   1425.88989     628.3567     509.6988   1425.88989     628.3567     509.6988
   1425.87463     629.4724     512.9925   1425.87463     629.4724     512.9925
   1425.85938     632.2829     514.1263   1425.85938     632.2829     514.1263
   1425.84412     632.7838     516.0748   1425.84412     632.7838     516.0748
   1425.82886     635.4332     518.5974   1425.82886     635.4332     518.5974
   1425.81360     636.5433     520.8016   1425.81360     636.5433     520.8016
   1425.79834     639.5263     522.0715   1425.79834     639.5263     522.0715
   1425.78308     640.4711     524.5894   1425.78308     640.4711     524.5894
   1425.76782     641.6082     526.6498   1425.76782     641.6082     526.6498
   1425.75256     644.0636     528.8843   1425.75256     644.0636     528.8843
   1425.73730     645.1620     531.3674   1425.73730     645.1620     531.3674
   1425.72205     646.3069     532.0345   1425.72205     646.3069     532.0345
   1425.70679     647.7480     533.9686   1425.70679     647.7480     533.9686
   1425.69153     650.6658     535.9382   1425.69153     650.6658     535.9382
   1425.67627     651.3323     538.5753   1425.67627     651.3323     538.5753
   1425.66101     653.1029     540.5032   1425.66101     653.1029     540.5032
   1425.64575     654.8696     541.5486   1425.64575     654.8696     541.5486
   1425.63049     656.2942     544.1712   1425.63049     656.2942     544.1712
   1425.61523     656.4287     545.7460   1425.61523     656.4287     545.7460
   1425.59998     657.9326     547.4484   1425.59998     657.9326     547.4484
   1425.58472     659.7246     550.0330   1425.58472     659.7246     550.0330
   1425.56946     661.5392     551.0158   1425.56946     661.5392     551.0158
   1425.55420     661.9704     552.9478   1425.55420     661.9704     552.9478
   1425.53894     664.2578     555.7327   1425.53894     664.2578     555.7327
   1425.52368     665.0772     556.3110   1425.52368     665.0772     556.3110
   1425.50842     664.9989     557.6125   1425.50842     664.9989     557.6125
   1425.49316     667.1352     559.0179   1425.49316     667.1352     559.0179
   1425.47791     667.9680     561.7959   1425.47791     667.9680     561.7959
   1425.46265     669.2357     563.1889   1425.46265     669.2357     563.1889
   1425.44739     670.8431     564.4733   1425.44739     670.8431     564.4733
   1425.43213     671.4213     566.3823   1425.43213     671.4213     566.3823
   1425.41687     674.6130     569.6901   1425.41687     674.6130     569.6901
   1425.40161     673.4639     569.9104   1425.40161     673.4639     569.9104
   1425.38635     674.8044     571.9405   1425.38635     674.8044     571.9405
   1425.37109     675.1384     572.3211   1425.37109     675.1384     572.3211
   1425.35583     675.5646     574.3298   1425.35583     675.5646     574.3298
   1425.34058     677.2725     575.1215   1425.34058     677.2725     575.1215
   1425.32532     679.1663     577.5886   1425.32532     679.1663     577.5886
   1425.31006     679.0292     578.7540   1425.31006     679.0292     578.7540
   1425.29480     679.6679     579.7594   1425.29480     679.6679     579.7594
   1425.27954     681.6647     581.5255   1425.27954     681.6647     581.5255
   1425.26428     682.6982     582.6522   1425.26428     682.6982     582.6522
   1425.24902     682.6884     584.6699   1425.24902     682.6884     584.6699
   1425.23376     683.3703     585.8134   1425.23376     683.3703     585.8134
   1425.21851     684.2441     586.5532   1425.21851     684.2441     586.5532
   1425.20325     684.6637     588.7781   1425.20325     684.6637     588.7781
   1425.18799     685.4649     589.5325   1425.18799     685.4649     589.5325
   1425.17273     686.4805     591.0079   1425.17273     686.4805     591.0079
   1425.15747     687.5477     592.1334   1425.15747     687.5477     592.1334
   1425.14221     687.0887     592.7424   1425.14221     687.0887     592.7424
   1425.12695     688.3480     594.3207   1425.12695     688.3480     594.3207
   1425.11169     688.1365     596.0624   1425.11169     688.1365     596.0624
   1425.09644     688.3159     596.6985   1425.09644     688.3159     596.6985
   1425.08118     690.5037     598.1064   1425.08118     690.5037     598.1064
   1425.06592     690.6290     599.2653   1425.06592     690.6290     599.2653
   1425.05066     690.9060     600.1401   1425.05066     690.9060     600.1401
   1425.03540     689.9505     601.1939   1425.03540     689.9505     601.1939
   1425.02014     691.7309     602.0756   1425.02014     691.7309     602.0756
   1425.00488     691.4515     603.6113   1425.00488     691.4515     603.6113
   1424.98962     692.5639     604.7523   1424.98962     692.5639     604.7523
   1424.97437     692.5597     605.7087   1424.97437     692.5597     605.7087
   1424.95911     692.8517     605.7367   1424.95911     692.8517     605.7367
   1424.94385     693.2552     608.2565   1424.94385     693.2552     608.2565
   1424.92859     692.4477     608.3056   1424.92859     692.4477     608.3056
   1424.91333     694.7886     609.3969   1424.91333     694.7886     609.3969
   1424.89807     695.1598     610.4435   1424.89807     695.1598     610.4435
   1424.88281     694.0386     611.1954   1424.88281     694.0386     611.1954
   1424.86755     695.0588     612.3593   1424.86755     695.0588     612.3593
   1424.85229     695.5471     613.4868   1424.85229     695.5471     613.4868
   1424.83704     694.5009     615.1039   1424.83704     694.5009     615.1039
   1424.82178     695.4631     616.0345   1424.82178     695.4631     616.0345
   1424.80652     695.5601     615.1443   1424.80652     695.5601     615.1443
   1424.79126     695.8846     617.1008   1424.79126     695.8846     617.1008
   1424.77600     695.2166     617.2845   1424.77600     695.2166     617.2845
   1424.76074     695.6452     617.5938   1424.76074     695.6452     617.5938
   1424.74548     696.0704     617.9022   1424.74548     696.0704     617.9022
   1424.73022     697.2114     620.1735   1424.73022     697.2114     620.1735
   1424.71497     696.3317     619.6797   1424.71497     696.3317     619.6797
   1424.69971     697.8269     621.0030   1424.69971     697.8269     621.0030
   1424.68445     697.5384     621.8167   1424.68445     697.5384     621.8167
   1424.66919     697.6938     622.3975   1424.66919     697.6938     622.3975
   1424.65393     697.6228     623.2683   1424.65393     697.6228     623.2683
   1424.63867     697.1526     622.5609   1424.63867     697.1526     622.5609
   1424.62341     696.9111     624.7548   1424.62341     696.9111     624.7548
   1424.60815     696.1240     624.9516   1424.60815     696.1240     624.9516
   1424.59290     696.9337     625.2827   1424.59290     696.9337     625.2827
   1424.57764     696.7648     626.3386   1424.57764     696.7648     626.3386
   1424.56238     696.9791     626.2325   1424.56238     696.9791     626.2325
   1424.54712     697.7803     627.2673   1424.54712     697.7803     627.2673
   1424.53186     697.7454     627.2250   1424.53186     697.7454     627.2250
   1424.51660     695.4306     627.6921   1424.51660     695.4306     627.6921
   1424.50134     697.0216     627.9929   1424.50134     697.0216     627.9929
   1424.48608     696.7709     628.6216   1424.48608     696.7709     628.6216
   1424.47083     697.5048     629.6360   1424.47083     697.5048     629.6360
   1424.45557     696.9429     630.6217   1424.45557     696.9429     630.6217
   1424.44031     697.4863     630.8937   1424.44031     697.4863     630.8937
   1424.42505     697.8152     629.7925   1424.42505     697.8152     629.7925
   1424.40979     696.5644     631.2454   1424.40979     696.5644     631.2454
   1424.39453     696.1204     631.9102   1424.39453     696.1204     631.9102
   1424.37927     697.1642     632.3362   1424.37927     697.1642     632.3362
   1424.36401     696.5345     632.2399   1424.36401     696.5345     632.2399
   1424.34875     696.7969     632.1379   1424.34875     696.7969     632.1379
   1424.33350     697.2809     631.9292   1424.33350     697.2809     631.9292
   1424.31824     695.0429     631.5571   1424.31824     695.0429     631.5571
   1424.30298     696.1482     633.1819   1424.30298     696.1482     633.1819
   1424.28772     696.4584     633.9116   1424.28772     696.4584     633.9116
   1424.27246     696.8419     633.1808   1424.27246     696.8419     633.1808
   1424.25720     695.1658     633.9294   1424.25720     695.1658     633.9294
   1424.24194     694.6094     633.4573   1424.24194     694.6094     633.4573
   1424.22668     695.7668     633.6780   1424.22668     695.7668     633.6780
   1424.21143     694.8418     633.8371   1424.21143     694.8418     633.8371
   1424.19617     694.2877     635.3857   1424.19617     694.2877     635.3857
   1424.18091     694.7853     635.7028   1424.18091     694.7853     635.7028
   1424.16565     695.4267     635.1895   1424.16565     695.4267     635.1895
   1424.15039     694.4531     634.9548   1424.15039     694.4531     634.9548
   1424.13513     693.0508     635.5453   1424.13513     693.0508     635.5453
   1424.11987     694.2888     636.4188   1424.11987     694.2888     636.4188
   1424.10461     693.2538     634.1124   1424.10461     693.2538     634.1124
   1424.08936     693.6871     635.8205   1424.08936     693.6871     635.8205
   1424.07410     693.7937     635.3782   1424.07410     693.7937     635.3782
   1424.05884     693.8011     635.6022   1424.05884     693.8011     635.6022
   1424.04358     693.5802     634.8367   1424.04358     693.5802     634.8367
   1424.02832     693.4121     635.4968   1424.02832     693.4121     635.4968
   1424.01306     692.4262     635.7700   1424.01306     692.4262     635.7700
   1423.99780     692.0565     635.7590   1423.99780     692.0565     635.7590
   1423.98254     692.6440     635.4551   1423.98254     692.6440     635.4551
   1423.96729     692.6022     635.8646   1423.96729     692.6022     635.8646
   1423.95203     691.9417     635.9313   1423.95203     691.9417     635.9313
   1423.93677     691.1471     635.8051   1423.93677     691.1471     635.8051
   1423.92151     690.6921     634.9458   1423.92151     690.6921     634.9458
   1423.90625     689.5347     635.0295   1423.90625     689.5347     635.0295
   1423.89099     690.0211     635.3438   1423.89099     690.0211     635.3438
   1423.87573     690.9214     634.4084   1423.87573     690.9214     634.4084
   1423.86047     690.1246     634.6454   1423.86047     690.1246     634.6454
   1423.84521     689.8845     633.8127   1423.84521     689.8845     633.8127
   1423.82996     689.2250     634.5123   1423.82996     689.2250     634.5123
   1423.81470     689.3684     634.7585   1423.81470     689.3684     634.7585
   1423.79944     688.9661     634.2610   1423.79944     688.9661     634.2610
   1423.78418     688.9798     633.9031   1423.78418     688.9798     633.9031
   1423.76892     687.9091     633.5803   1423.76892     687.9091     633.5803
   1423.75366     688.6880     634.4845   1423.75366     688.6880     634.4845
   1423.73840     688.3809     633.0451   1423.73840     688.3809     633.0451
   1423.72314     688.3487     632.8814   1423.72314     688.3487     632.8814
   1423.70789     686.7847     632.4444   1423.70789     686.7847     632.4444
   1423.69263     687.0845     631.5514   1423.69263     687.0845     631.5514
   1423.67737     687.3803     632.7730   1423.67737     687.3803     632.7730
   1423.66211     687.7714     630.9678   1423.66211     687.7714     630.9678
   1423.64685     686.9764     631.5710   1423.64685     686.9764     631.5710
   1423.63159     686.3820     629.4712   1423.63159     686.3820     629.4712
   1423.61633     686.5348     630.8743   1423.61633     686.5348     630.8743
   1423.60107     686.8835     629.7622   1423.60107     686.8835     629.7622
   1423.58582     685.8525     629.1390   1423.58582     685.8525     629.1390
   1423.57056     684.3809     630.2844   1423.57056     684.3809     630.2844
   1423.55530     685.8827     628.7408   1423.55530     685.8827     628.7408
   1423.54004     684.4330     628.3305   1423.54004     684.4330     628.3305
   1423.52478     685.2120     627.5967   1423.52478     685.2120     627.5967
   1423.50952     683.4257     625.7971   1423.50952     683.4257     625.7971
   1423.49426     685.0911     626.4665   1423.49426     685.0911     626.4665
   1423.47900     684.4597     627.0209   1423.47900     684.4597     627.0209
   1423.46375     682.8026     625.6332   1423.46375     682.8026     625.6332
   1423.44849     683.7271     625.4935   1423.44849     683.7271     625.4935
   1423.43323     682.4984     624.6898   1423.43323     682.4984     624.6898
   1423.41797     683.1222     624.6325   1423.41797     683.1222     624.6325
   1423.40271     682.7418     623.5011   1423.40271     682.7418     623.5011
   1423.38745     683.3450     623.5835   1423.38745     683.3450     623.5835
   1423.37219     683.6465     623.7789   1423.37219     683.6465     623.7789
   1423.35693     681.9253     621.8832   1423.35693     681.9253     621.8832
   1423.34167     682.9852     621.4625   1423.34167     682.9852     621.4625
   1423.32642     681.4766     621.8369   1423.32642     681.4766     621.8369
   1423.31116     681.5536     619.7078   1423.31116     681.5536     619.7078
   1423.29590     680.9225     620.0815   1423.29590     680.9225     620.0815
   1423.28064     680.4957     618.8197   1423.28064     680.4957     618.8197
   1423.26538     681.0124     617.8032   1423.26538     681.0124     617.8032
   1423.25012     679.7991     618.5643   1423.25012     679.7991     618.5643
   1423.23486     680.3693     616.3673   1423.23486     680.3693     616.3673
   1423.21960     679.8995     615.7863   1423.21960     679.8995     615.7863
   1423.20435     680.5267     616.1441   1423.20435     680.5267     616.1441
   1423.18909     679.7192     616.1161   1423.18909     679.7192     616.1161
   1423.17383     678.4473     613.6740   1423.17383     678.4473     613.6740
   1423.15857     679.6013     613.9560   1423.15857     679.6013     613.9560
   1423.14331     679.2156     613.2894   1423.14331     679.2156     613.2894
   1423.12805     678.8926     611.5980   1423.12805     678.8926     611.5980
   1423.11279     679.2484     610.2411   1423.11279     679.2484     610.2411
   1423.09753     677.7961     610.6057   1423.09753     677.7961     610.6057
   1423.08228     677.6876     608.9009   1423.08228     677.6876     608.9009
   1423.06702     678.4094     607.9138   1423.06702     678.4094     607.9138
   1423.05176     677.2726     608.2395   1423.05176     677.2726     608.2395
   1423.03650     677.7797     607.4402   1423.03650     677.7797     607.4402
   1423.02124     677.3434     605.3727   1423.02124     677.3434     605.3727
   1423.00598     677.9397     606.2938   1423.00598     677.9397     606.2938
   1422.99072     677.7101     604.5701   1422.99072     677.7101     604.5701
   1422.97546     676.6937     604.1624   1422.97546     676.6937     604.1624
   1422.96021     677.0206     603.2183   1422.96021     677.0206     603.2183
   1422.94495     676.8409     601.5786   1422.94495     676.8409     601.5786
   1422.92969     675.9818     601.8182   1422.92969     675.9818     601.8182
   1422.91443     676.2987     600.4174   1422.91443     676.2987     600.4174
   1422.89917     675.6411     598.7051   1422.89917     675.6411     598.7051
   1422.88391     675.7816     598.4082   1422.88391     675.7816     598.4082
   1422.86865     674.8226     597.7890   1422.86865     674.8226     597.7890
   1422.85339     675.7946     596.3017   1422.85339     675.7946     596.3017
   1422.83813     674.8789     595.3175   1422.83813     674.8789     595.3175
   1422.82288     675.5782     594.0138   1422.82288     675.5782     594.0138
   1422.80762     675.2587     593.8316   1422.80762     675.2587     593.8316
   1422.79236     675.2707     593.1942   1422.79236     675.2707     593.1942
   1422.77710     674.9174     591.8699   1422.77710     674.9174     591.8699
   1422.76184     675.0040     590.7574   1422.76184     675.0040     590.7574
   1422.74658     675.0639     589.5129   1422.74658     675.0639     589.5129
   1422.73132     673.6702     589.1293   1422.73132     673.6702     589.1293
   1422.71606     673.8172     587.1594   1422.71606     673.8172     587.1594
   1422.70081     674.6708     585.4341   1422.70081     674.6708     585.4341
   1422.68555     672.6188     585.4431   1422.68555     672.6188     585.4431
   1422.67029     672.5470     584.7060   1422.67029     672.5470     584.7060
   1422.65503     673.6015     583.0225   1422.65503     673.6015     583.0225
   1422.63977     672.6792     581.6462   1422.63977     672.6792     581.6462
   1422.62451     673.7489     582.1996   1422.62451     673.7489     582.1996
   1422.60925     673.3908     580.8017   1422.60925     673.3908     580.8017
   1422.59399     672.8654     580.0281   1422.59399     672.8654     580.0281
   1422.57874     671.6288     579.0181   1422.57874     671.6288     579.0181
   1422.56348     673.0247     576.9105   1422.56348     673.0247     576.9105
   1422.54822     672.1608     576.0269   1422.54822     672.1608     576.0269
   1422.53296     672.0705     574.5745   1422.53296     672.0705     574.5745
   1422.51770     670.6409     573.6327   1422.51770     670.6409     573.6327
   1422.50244     671.1879     573.2463   1422.50244     671.1879     573.2463
   1422.48718     670.9473     571.4525   1422.48718     670.9473     571.4525
   1422.47192     671.1552     570.4395   1422.47192     671.1552     570.4395
   1422.45667     671.0747     568.8676   1422.45667     671.0747     568.8676
   1422.44141     670.8834     568.2680   1422.44141     670.8834     568.2680
   1422.42615     671.4528     566.9007   1422.42615     671.4528     566.9007
   1422.41089     670.3890     566.1146   1422.41089     670.3890     566.1146
   1422.39563     670.2214     564.9447   1422.39563     670.2214     564.9447
   1422.38037     670.0526     563.6243   1422.38037     670.0526     563.6243
   1422.36511     670.4242     562.4554   1422.36511     670.4242     562.4554
   1422.34985     670.8307     562.3392   1422.34985     670.8307     562.3392
   1422.33459     670.4045     560.3015   1422.33459     670.4045     560.3015
   1422.31934     669.5681     557.9225   1422.31934     669.5681     557.9225
   1422.30408     669.4359     557.7038   1422.30408     669.4359     557.7038
   1422.28882     669.3331     556.6054   1422.28882     669.3331     556.6054
   1422.27356     668.6516     555.7324   1422.27356     668.6516     555.7324
   1422.25830     668.7527     554.7540   1422.25830     668.7527     554.7540
   1422.24304     668.5177     553.8456   1422.24304     668.5177     553.8456
   1422.22778     669.9743     551.6394   1422.22778     669.9743     551.6394
   1422.21252     668.2828     551.1876   1422.21252     668.2828     551.1876
   1422.19727     667.8585     550.2926   1422.19727     667.8585     550.2926
   1422.18201     668.8557     547.6822   1422.18201     668.8557     547.6822
   1422.16675     667.5358     546.9179   1422.16675     667.5358     546.9179
   1422.15149     669.2587     546.9481   1422.15149     669.2587     546.9481
   1422.13623     667.5469     544.6424   1422.13623     667.5469     544.6424
   1422.12097     668.0666     543.4619   1422.12097     668.0666     543.4619
   1422.10571     667.9179     542.7083   1422.10571     667.9179     542.7083
   1422.09045     667.5137     541.5479   1422.09045     667.5137     541.5479
   1422.07520     666.3146     538.9288   1422.07520     666.3146     538.9288
   1422.05994     667.3994     537.7489   1422.05994     667.3994     537.7489
   1422.04468     667.3195     537.3348   1422.04468     667.3195     537.3348
   1422.02942     667.1770     537.2446   1422.02942     667.1770     537.2446
   1422.01416     665.9762     534.9975   1422.01416     665.9762     534.9975
   1421.99890     665.9143     533.8736   1421.99890     665.9143     533.8736
   1421.98364     665.4429     533.1708   1421.98364     665.4429     533.1708
   1421.96838     666.4409     531.2973   1421.96838     666.4409     531.2973
   1421.95312     666.1818     530.5168   1421.95312     666.1818     530.5168
   1421.93787     665.8945     529.6511   1421.93787     665.8945     529.6511
   1421.92261     664.7410     528.8776   1421.92261     664.7410     528.8776
   1421.90735     665.7504     528.2314   1421.90735     665.7504     528.2314
   1421.89209     665.1557     526.3582   1421.89209     665.1557     526.3582
   1421.87683     665.8289     524.6937   1421.87683     665.8289     524.6937
   1421.86157     664.7982     523.3526   1421.86157     664.7982     523.3526
   1421.84631     664.7832     522.1860   1421.84631     664.7832     522.1860
   1421.83105     663.6510     520.8344   1421.83105     663.6510     520.8344
   1421.81580     663.3797     519.6595   1421.81580     663.3797     519.6595
   1421.80054     665.0526     519.2729   1421.80054     665.0526     519.2729
   1421.78528     663.0507     517.4418   1421.78528     663.0507     517.4418
   1421.77002     663.6494     514.9663   1421.77002     663.6494     514.9663
   1421.75476     663.7234     514.1848   1421.75476     663.7234     514.1848
   1421.73950     662.9692     513.3279   1421.73950     662.9692     513.3279
   1421.72424     663.0065     513.0576   1421.72424     663.0065     513.0576
   1421.70898     662.9782     511.5927   1421.70898     662.9782     511.5927
   1421.69373     663.2752     510.1505   1421.69373     663.2752     510.1505
   1421.67847     662.6564     508.0912   1421.67847     662.6564     508.0912
   1421.66321     663.2950     507.4326   1421.66321     663.2950     507.4326
   1421.64795     662.1553     506.9510   1421.64795     662.1553     506.9510
   1421.63269     660.9273     505.6939   1421.63269     660.9273     505.6939
   1421.61743     661.2662     504.3459   1421.61743     661.2662     504.3459
   1421.60217     661.3128     503.0341   1421.60217     661.3128     503.0341
   1421.58691     662.5756     502.4584   1421.58691     662.5756     502.4584
   1421.57166     662.0367     500.7607   1421.57166     662.0367     500.7607
   1421.55640     661.0361     499.2589   1421.55640     661.0361     499.2589
   1421.54114     660.2495     498.1420   1421.54114     660.2495     498.1420
   1421.52588     660.6793     498.2681   1421.52588     660.6793     498.2681
   1421.51062     660.0662     496.0882   1421.51062     660.0662     496.0882
   1421.49536     659.9667     494.6588   1421.49536     659.9667     494.6588
   1421.48010     659.6714     494.0959   1421.48010     659.6714     494.0959
   1421.46484     660.0551     492.2198   1421.46484     660.0551     492.2198
   1421.44958     659.1804     491.6540   1421.44958     659.1804     491.6540
   1421.43433     658.8445     490.0979   1421.43433     658.8445     490.0979
   1421.41907     658.6335     489.2821   1421.41907     658.6335     489.2821
   1421.40381     658.4072     488.2301   1421.40381     658.4072     488.2301
   1421.38855     658.4908     487.6446   1421.38855     658.4908     487.6446
   1421.37329     659.3242     485.7159   1421.37329     659.3242     485.7159
   1421.35803     657.9323     485.4926   1421.35803     657.9323     485.4926
   1421.34277     658.4223     484.5580   1421.34277     658.4223     484.5580
   1421.32751     658.2202     482.8856   1421.32751     658.2202     482.8856
   1421.31226     657.8579     482.0131   1421.31226     657.8579     482.0131
   1421.29700     657.5857     480.6727   1421.29700     657.5857     480.6727
   1421.28174     656.3488     480.0904   1421.28174     656.3488     480.0904
   1421.26648     656.4357     478.8099   1421.26648     656.4357     478.8099
   1421.25122     656.4109     476.8347   1421.25122     656.4109     476.8347
   1421.23596     656.1807     476.2120   1421.23596     656.1807     476.2120
   1421.22070     655.2250     475.1100   1421.22070     655.2250     475.1100
   1421.20544     655.8739     473.9747   1421.20544     655.8739     473.9747
   1421.19019     654.6995     472.6835   1421.19019     654.6995     472.6835
   1421.17493     655.0112     471.7925   1421.17493     655.0112     471.7925
   1421.15967     655.1666     471.3630   1421.15967     655.1666     471.3630
   1421.14441     654.3246     469.0363   1421.14441     654.3246     469.0363
   1421.12915     654.5396     468.2889   1421.12915     654.5396     468.2889
   1421.11389     654.2506     467.3592   1421.11389     654.2506     467.3592
   1421.09863     653.9209     466.7355   1421.09863     653.9209     466.7355
   1421.08337     653.3470     465.0911   1421.08337     653.3470     465.0911
   1421.06812     654.2194     464.7018   1421.06812     654.2194     464.7018
   1421.05286     653.7423     463.7043   1421.05286     653.7423     463.7043
   1421.03760     652.6177     462.8367   1421.03760     652.6177     462.8367
   1421.02234     653.6258     461.4934   1421.02234     653.6258     461.4934
   1421.00708     653.0215     460.5520   1421.00708     653.0215     460.5520
   1420.99182     652.3195     459.8921   1420.99182     652.3195     459.8921
   1420.97656     651.1058     459.0754   1420.97656     651.1058     459.0754
   1420.96130     652.3959     457.2791   1420.96130     652.3959     457.2791
   1420.94604     651.8972     456.3815   1420.94604     651.8972     456.3815
   1420.93079     651.1424     456.5492   1420.93079     651.1424     456.5492
   1420.91553     651.5385     454.2599   1420.91553     651.5385     454.2599
   1420.90027     650.7581     454.0697   1420.90027     650.7581     454.0697
   1420.88501     650.8345     452.5514   1420.88501     650.8345     452.5514
   1420.86975     651.4794     451.6150   1420.86975     651.4794     451.6150
   1420.85449     651.4437     451.4384   1420.85449     651.4437     451.4384
   1420.83923     650.0471     450.1623   1420.83923     650.0471     450.1623
   1420.82397     650.9653     449.6258   1420.82397     650.9653     449.6258
   1420.80872     650.0485     448.8914   1420.80872     650.0485     448.8914
   1420.79346     651.2526     447.8941   1420.79346     651.2526     447.8941
   1420.77820     650.5289     447.3941   1420.77820     650.5289     447.3941
   1420.76294     651.1138     446.4789   1420.76294     651.1138     446.4789
   1420.74768     650.1680     445.9500   1420.74768     650.1680     445.9500
   1420.73242     650.5480     445.3362   1420.73242     650.5480     445.3362
   1420.71716     651.8175     444.8582   1420.71716     651.8175     444.8582
   1420.70190     651.2700     443.6894   1420.70190     651.2700     443.6894
   1420.68665     649.4955     443.0361   1420.68665     649.4955     443.0361
   1420.67139     651.3019     441.9536   1420.67139     651.3019     441.9536
   1420.65613     651.2167     440.6705   1420.65613     651.2167     440.6705
   1420.64087     650.5216     440.0218   1420.64087     650.5216     440.0218
   1420.62561     648.6757     439.1435   1420.62561     648.6757     439.1435
   1420.61035     650.3907     438.5379   1420.61035     650.3907     438.5379
   1420.59509     649.8371     438.6013   1420.59509     649.8371     438.6013
   1420.57983     650.0922     438.2238   1420.57983     650.0922     438.2238
   1420.56458     651.0646     437.5846   1420.56458     651.0646     437.5846
   1420.54932     651.9396     438.3628   1420.54932     651.9396     438.3628
   1420.53406     654.2859     437.6378   1420.53406     654.2859     437.6378
   1420.51880     655.3290     438.2608   1420.51880     655.3290     438.2608
   1420.50354     654.9890     437.0772   1420.50354     654.9890     437.0772
   1420.48828     652.8123     435.7286   1420.48828     652.8123     435.7286
   1420.47302     651.9124     434.9313   1420.47302     651.9124     434.9313
   1420.45776     651.3942     433.0684   1420.45776     651.3942     433.0684
   1420.44250     651.7837     433.4339   1420.44250     651.7837     433.4339
   1420.42725     651.6196     432.8077   1420.42725     651.6196     432.8077
   1420.41199     652.1268     432.1711   1420.41199     652.1268     432.1711
   1420.39673     652.7343     431.0347   1420.39673     652.7343     431.0347
   1420.38147     653.5036     431.2957   1420.38147     653.5036     431.2957
   1420.36621     655.4767     432.2829   1420.36621     655.4767     432.2829
   1420.35095     658.5898     433.8786   1420.35095     658.5898     433.8786
   1420.33569     663.3153     436.0116   1420.33569     663.3153     436.0116
   1420.32043     667.3458     437.6464   1420.32043     667.3458     437.6464
   1420.30518     672.9835     440.5414   1420.30518     672.9835     440.5414
   1420.28992     682.9077     446.3388   1420.28992     682.9077     446.3388
   1420.27466     706.9683     460.3266   1420.27466     706.9683     460.3266
   1420.25940     764.4731     496.6351   1420.25940     764.4731     496.6351
   1420.24414     912.6816     589.1019   1420.24414     912.6816     589.1019
   1420.22888    1185.4755     760.5844   1420.22888    1185.4755     760.5844
   1420.21362    1534.2478     981.2728   1420.21362    1534.2478     981.2728
   1420.19836    1519.8462     971.5154   1420.19836    1519.8462     971.5154
   1420.18311    1284.4634     822.0798   1420.18311    1284.4634     822.0798
   1420.16785    1109.7885     710.4906   1420.16785    1109.7885     710.4906
   1420.15259    1032.6482     660.2386   1420.15259    1032.6482     660.2386
   1420.13733    1279.1649     814.8347   1420.13733    1279.1649     814.8347
   1420.12207    1615.0498    1023.6411   1420.12207    1615.0498    1023.6411
   1420.10681    1817.0662    1148.7963   1420.10681    1817.0662    1148.7963
   1420.09155    1940.6942    1223.7190   1420.09155    1940.6942    1223.7190
   1420.07629    1800.9972    1133.8870   1420.07629    1800.9972    1133.8870
   1420.06104    1615.2352    1018.0616   1420.06104    1615.2352    1018.0616
   1420.04578    1695.9946    1066.6239   1420.04578    1695.9946    1066.6239
   1420.03052    1831.6517    1151.4747   1420.03052    1831.6517    1151.4747
   1420.01526    1894.5210    1188.2524   1420.01526    1894.5210    1188.2524
   1420.00000    1750.6669    1099.5310   1420.00000    1750.6669    1099.5310
   1419.98474    1606.8126    1010.8093   1419.98474    1606.8126    1010.8093
   1419.96948    1334.4846     840.4582   1419.96948    1334.4846     840.4582
   1419.95422    1056.4906     665.9995   1419.95422    1056.4906     665.9995
   1419.93896     886.7687     561.7613   1419.93896     886.7687     561.7613
   1419.92371     801.2715     507.5266   1419.92371     801.2715     507.5266
   1419.90845     752.0600     475.8407   1419.90845     752.0600     475.8407
   1419.89319     720.5466     456.4789   1419.89319     720.5466     456.4789
   1419.87793     697.7252     441.5054   1419.87793     697.7252     441.5054
   1419.86267     681.1915     430.6974   1419.86267     681.1915     430.6974
   1419.84741     670.4492     423.2301   1419.84741     670.4492     423.2301
   1419.83215     662.2300     418.0002   1419.83215     662.2300     418.0002
   1419.81689     655.6533     414.1399   1419.81689     655.6533     414.1399
   1419.80164     651.2841     411.7162   1419.80164     651.2841     411.7162
   1419.78638     649.5138     408.8462   1419.78638     649.5138     408.8462
   1419.77112     646.9481     407.6943   1419.77112     646.9481     407.6943
   1419.75586     644.6047     406.1196   1419.75586     644.6047     406.1196
   1419.74060     644.5163     405.5362   1419.74060     644.5163     405.5362
   1419.72534     643.9758     405.2550   1419.72534     643.9758     405.2550
   1419.71008     643.6038     404.6787   1419.71008     643.6038     404.6787
   1419.69482     643.4777     404.1082   1419.69482     643.4777     404.1082
   1419.67957     643.7151     403.1198   1419.67957     643.7151     403.1198
   1419.66431     643.7123     402.9303   1419.66431     643.7123     402.9303
   1419.64905     643.6443     403.1391   1419.64905     643.6443     403.1391
   1419.63379     643.9786     401.9722   1419.63379     643.9786     401.9722
   1419.61853     644.1918     402.0858   1419.61853     644.1918     402.0858
   1419.60327     644.5370     402.4412   1419.60327     644.5370     402.4412
   1419.58801     643.7988     401.1712   1419.58801     643.7988     401.1712
   1419.57275     644.5176     401.6201   1419.57275     644.5176     401.6201
   1419.55750     644.9096     401.8157   1419.55750     644.9096     401.8157
   1419.54224     644.9716     401.0295   1419.54224     644.9716     401.0295
   1419.52698     644.9766     401.0392   1419.52698     644.9766     401.0392
   1419.51172     645.5579     400.6785   1419.51172     645.5579     400.6785
   1419.49646     646.0671     401.0182   1419.49646     646.0671     401.0182
   1419.48120     646.6918     400.3373   1419.48120     646.6918     400.3373
   1419.46594     646.7526     400.9259   1419.46594     646.7526     400.9259
   1419.45068     646.0453     400.2267   1419.45068     646.0453     400.2267
   1419.43542     646.1639     400.4967   1419.43542     646.1639     400.4967
   1419.42017     647.6099     399.3028   1419.42017     647.6099     399.3028
   1419.40491     648.2188     400.7027   1419.40491     648.2188     400.7027
   1419.38965     646.6755     400.2610   1419.38965     646.6755     400.2610
   1419.37439     648.3994     400.1075   1419.37439     648.3994     400.1075
   1419.35913     649.1664     400.5028   1419.35913     649.1664     400.5028
   1419.34387     649.6917     400.3787   1419.34387     649.6917     400.3787
   1419.32861     649.5938     399.9537   1419.32861     649.5938     399.9537
   1419.31335     650.0817     400.4438   1419.31335     650.0817     400.4438
   1419.29810     650.4700     400.2009   1419.29810     650.4700     400.2009
   1419.28284     649.9177     400.6324   1419.28284     649.9177     400.6324
   1419.26758     652.5119     400.9683   1419.26758     652.5119     400.9683
   1419.25232     652.0536     400.4087   1419.25232     652.0536     400.4087
   1419.23706     651.2418     400.9263   1419.23706     651.2418     400.9263
   1419.22180     651.8627     400.4845   1419.22180     651.8627     400.4845
   1419.20654     653.0302     400.7554   1419.20654     653.0302     400.7554
   1419.19128     653.4991     401.4596   1419.19128     653.4991     401.4596
   1419.17603     653.1376     401.6493   1419.17603     653.1376     401.6493
   1419.16077     654.7028     401.2679   1419.16077     654.7028     401.2679
   1419.14551     654.8713     400.8398   1419.14551     654.8713     400.8398
   1419.13025     653.5894     401.5071   1419.13025     653.5894     401.5071
   1419.11499     655.7742     401.9411   1419.11499     655.7742     401.9411
   1419.09973     655.9749     401.5424   1419.09973     655.9749     401.5424
   1419.08447     656.1715     401.6978   1419.08447     656.1715     401.6978
   1419.06921     657.4125     402.8311   1419.06921     657.4125     402.8311
   1419.05396     657.7695     402.7916   1419.05396     657.7695     402.7916
   1419.03870     657.7349     402.3733   1419.03870     657.7349     402.3733
   1419.02344     658.2957     403.4134   1419.02344     658.2957     403.4134
   1419.00818     659.6490     402.9451   1419.00818     659.6490     402.9451
   1418.99292     661.3511     403.2527   1418.99292     661.3511     403.2527
   1418.97766     660.4395     403.5855   1418.97766     660.4395     403.5855
   1418.96240     660.8127     403.8813   1418.96240     660.8127     403.8813
   1418.94714     661.2137     403.7327   1418.94714     661.2137     403.7327
   1418.93188     662.1352     404.5822   1418.93188     662.1352     404.5822
   1418.91663     662.7985     404.4183   1418.91663     662.7985     404.4183
   1418.90137     663.3956     404.8430   1418.90137     663.3956     404.8430
   1418.88611     664.2963     404.5870   1418.88611     664.2963     404.5870
   1418.87085     665.0214     405.2706   1418.87085     665.0214     405.2706
   1418.85559     665.7527     405.7767   1418.85559     665.7527     405.7767
   1418.84033     666.2121     405.5187   1418.84033     666.2121     405.5187
   1418.82507     665.8815     406.2476   1418.82507     665.8815     406.2476
   1418.80981     668.3818     406.4887   1418.80981     668.3818     406.4887
   1418.79456     669.2156     407.1405   1418.79456     669.2156     407.1405
   1418.77930     668.8499     407.9453   1418.77930     668.8499     407.9453
   1418.76404     669.9089     408.5328   1418.76404     669.9089     408.5328
   1418.74878     671.5984     408.0714   1418.74878     671.5984     408.0714
   1418.73352     671.2233     408.8706   1418.73352     671.2233     408.8706
   1418.71826     672.6940     408.6659   1418.71826     672.6940     408.6659
   1418.70300     672.7257     409.2924   1418.70300     672.7257     409.2924
   1418.68774     673.3535     410.5000   1418.68774     673.3535     410.5000
   1418.67249     674.2385     410.5297   1418.67249     674.2385     410.5297
   1418.65723     674.0603     411.0522   1418.65723     674.0603     411.0522
   1418.64197     675.0347     411.9868   1418.64197     675.0347     411.9868
   1418.62671     676.6234     411.5850   1418.62671     676.6234     411.5850
   1418.61145     677.8959     411.7296   1418.61145     677.8959     411.7296
   1418.59619     676.8682     412.9268   1418.59619     676.8682     412.9268
   1418.58093     680.3063     412.9450   1418.58093     680.3063     412.9450
   1418.56567     679.7652     413.9514   1418.56567     679.7652     413.9514
   1418.55042     680.7301     414.1048   1418.55042     680.7301     414.1048
   1418.53516     680.9058     414.6931   1418.53516     680.9058     414.6931
   1418.51990     681.8074     414.9860   1418.51990     681.8074     414.9860
   1418.50464     683.2754     415.8365   1418.50464     683.2754     415.8365
   1418.48938     685.0999     416.1710   1418.48938     685.0999     416.1710
   1418.47412     685.0556     416.9840   1418.47412     685.0556     416.9840
   1418.45886     686.9144     416.7505   1418.45886     686.9144     416.7505
   1418.44360     686.2680     418.1301   1418.44360     686.2680     418.1301
   1418.42834     687.3467     418.5025   1418.42834     687.3467     418.5025
   1418.41309     688.1749     418.8938   1418.41309     688.1749     418.8938
   1418.39783     688.3239     419.4566   1418.39783     688.3239     419.4566
   1418.38257     689.6403     420.0898   1418.38257     689.6403     420.0898
   1418.36731     691.1856     421.2616   1418.36731     691.1856     421.2616
   1418.35205     692.0505     421.7998   1418.35205     692.0505     421.7998
   1418.33679     693.1290     422.0222   1418.33679     693.1290     422.0222
   1418.32153     694.7363     423.1451   1418.32153     694.7363     423.1451
   1418.30627     696.1310     423.2461   1418.30627     696.1310     423.2461
   1418.29102     696.2874     423.8132   1418.29102     696.2874     423.8132
   1418.27576     696.3383     424.5086   1418.27576     696.3383     424.5086
   1418.26050     696.9767     425.5203   1418.26050     696.9767     425.5203
   1418.24524     699.4315     426.2419   1418.24524     699.4315     426.2419
   1418.22998     700.1481     426.2391   1418.22998     700.1481     426.2391
   1418.21472     700.8035     426.8983   1418.21472     700.8035     426.8983
   1418.19946     701.3796     428.1181   1418.19946     701.3796     428.1181
   1418.18420     703.1088     428.2081   1418.18420     703.1088     428.2081
   1418.16895     703.4567     428.7714   1418.16895     703.4567     428.7714
   1418.15369     705.6227     429.3513   1418.15369     705.6227     429.3513
   1418.13843     706.5507     431.3469   1418.13843     706.5507     431.3469
   1418.12317     707.8211     430.8734   1418.12317     707.8211     430.8734
   1418.10791     708.4855     431.6211   1418.10791     708.4855     431.6211
   1418.09265     707.9880     432.8268   1418.09265     707.9880     432.8268
   1418.07739     708.8705     432.9506   1418.07739     708.8705     432.9506
   1418.06213     711.7787     434.0657   1418.06213     711.7787     434.0657
   1418.04688     711.7638     434.7533   1418.04688     711.7638     434.7533
   1418.03162     714.0989     435.8260   1418.03162     714.0989     435.8260
   1418.01636     713.6686     436.4393   1418.01636     713.6686     436.4393
   1418.00110     715.1578     436.8041   1418.00110     715.1578     436.8041
   1417.98584     716.8551     438.1349   1417.98584     716.8551     438.1349
   1417.97058     716.6229     438.5664   1417.97058     716.6229     438.5664
   1417.95532     718.2457     438.4825   1417.95532     718.2457     438.4825
   1417.94006     720.0107     439.7268   1417.94006     720.0107     439.7268
   1417.92480     721.4436     441.5506   1417.92480     721.4436     441.5506
   1417.90955     721.7614     441.3010   1417.90955     721.7614     441.3010
   1417.89429     722.3148     442.3311   1417.89429     722.3148     442.3311
   1417.87903     723.4744     443.2215   1417.87903     723.4744     443.2215
   1417.86377     725.8205     443.6505   1417.86377     725.8205     443.6505
   1417.84851     726.0532     444.6841   1417.84851     726.0532     444.6841
   1417.83325     727.2711     445.7274   1417.83325     727.2711     445.7274
   1417.81799     728.0773     446.5085   1417.81799     728.0773     446.5085
   1417.80273     729.7256     447.0506   1417.80273     729.7256     447.0506
   1417.78748     730.5903     447.9813   1417.78748     730.5903     447.9813
   1417.77222     730.7922     448.9005   1417.77222     730.7922     448.9005
   1417.75696     733.1281     449.2316   1417.75696     733.1281     449.2316
   1417.74170     733.8666     450.3242   1417.74170     733.8666     450.3242
   1417.72644     734.2935     451.1153   1417.72644     734.2935     451.1153
   1417.71118     735.2963     450.7471   1417.71118     735.2963     450.7471
   1417.69592     736.4109     452.5717   1417.69592     736.4109     452.5717
   1417.68066     737.5175     452.4336   1417.68066     737.5175     452.4336
   1417.66541     739.0923     454.7979   1417.66541     739.0923     454.7979
   1417.65015     740.8099     455.1106   1417.65015     740.8099     455.1106
   1417.63489     741.5405     455.4320   1417.63489     741.5405     455.4320
   1417.61963     743.2527     456.6147   1417.61963     743.2527     456.6147
   1417.60437     743.7472     456.7199   1417.60437     743.7472     456.7199
   1417.58911     744.9948     458.1023   1417.58911     744.9948     458.1023
   1417.57385     744.7012     458.8861   1417.57385     744.7012     458.8861
   1417.55859     746.6204     458.9520   1417.55859     746.6204     458.9520
   1417.54333     746.3525     460.7901   1417.54333     746.3525     460.7901
   1417.52808     748.0175     460.0143   1417.52808     748.0175     460.0143
   1417.51282     749.2191     460.8374   1417.51282     749.2191     460.8374
   1417.49756     750.1512     462.6911   1417.49756     750.1512     462.6911
   1417.48230     751.4758     463.9011   1417.48230     751.4758     463.9011
   1417.46704     751.4973     463.8394   1417.46704     751.4973     463.8394
   1417.45178     752.9168     464.1791   1417.45178     752.9168     464.1791
   1417.43652     754.4538     465.2875   1417.43652     754.4538     465.2875
   1417.42126     754.0029     466.6366   1417.42126     754.0029     466.6366
   1417.40601     756.1037     466.7814   1417.40601     756.1037     466.7814
   1417.39075     757.2308     467.7817   1417.39075     757.2308     467.7817
   1417.37549     758.6321     469.2397   1417.37549     758.6321     469.2397
   1417.36023     759.4603     468.9344   1417.36023     759.4603     468.9344
   1417.34497     759.1589     469.5222   1417.34497     759.1589     469.5222
   1417.32971     761.2593     471.1159   1417.32971     761.2593     471.1159
   1417.31445     761.1912     471.9143   1417.31445     761.1912     471.9143
   1417.29919     763.0792     472.0323   1417.29919     763.0792     472.0323
   1417.28394     763.8543     473.6243   1417.28394     763.8543     473.6243
   1417.26868     765.4661     474.5177   1417.26868     765.4661     474.5177
   1417.25342     764.5830     475.1711   1417.25342     764.5830     475.1711
   1417.23816     766.5258     476.1211   1417.23816     766.5258     476.1211
   1417.22290     769.6481     476.5641   1417.22290     769.6481     476.5641
   1417.20764     768.9692     476.8848   1417.20764     768.9692     476.8848
   1417.19238     770.0349     477.7097   1417.19238     770.0349     477.7097
   1417.17712     769.4229     478.3708   1417.17712     769.4229     478.3708
   1417.16187     771.2753     479.0998   1417.16187     771.2753     479.0998
   1417.14661     771.5192     479.0863   1417.14661     771.5192     479.0863
   1417.13135     773.0367     480.9125   1417.13135     773.0367     480.9125
   1417.11609     771.0710     481.1381   1417.11609     771.0710     481.1381
   1417.10083     773.8026     481.1791   1417.10083     773.8026     481.1791
   1417.08557     774.6053     481.7330   1417.08557     774.6053     481.7330
   1417.07031     775.9554     482.4842   1417.07031     775.9554     482.4842
   1417.05505     775.7758     483.9135   1417.05505     775.7758     483.9135
   1417.03979     776.4920     484.8705   1417.03979     776.4920     484.8705
   1417.02454     776.2188     484.2691   1417.02454     776.2188     484.2691
   1417.00928     777.3453     485.5124   1417.00928     777.3453     485.5124
   1416.99402     779.1778     486.2965   1416.99402     779.1778     486.2965
   1416.97876     779.9415     486.6118   1416.97876     779.9415     486.6118
   1416.96350     779.4630     487.8460   1416.96350     779.4630     487.8460
   1416.94824     781.7838     487.7755   1416.94824     781.7838     487.7755
   1416.93298     780.8475     488.3026   1416.93298     780.8475     488.3026
   1416.91772     781.2811     488.6058   1416.91772     781.2811     488.6058
   1416.90247     781.5906     489.3058   1416.90247     781.5906     489.3058
   1416.88721     781.5438     489.3582   1416.88721     781.5438     489.3582
   1416.87195     783.5084     490.2711   1416.87195     783.5084     490.2711
   1416.85669     782.6662     490.3459   1416.85669     782.6662     490.3459
   1416.84143     785.7563     491.5321   1416.84143     785.7563     491.5321
   1416.82617     784.5741     491.1820   1416.82617     784.5741     491.1820
   1416.81091     785.6837     492.0419   1416.81091     785.6837     492.0419
   1416.79565     786.3365     492.3727   1416.79565     786.3365     492.3727
   1416.78040     786.3300     493.0499   1416.78040     786.3300     493.0499
   1416.76514     786.4215     492.7579   1416.76514     786.4215     492.7579
   1416.74988     786.6288     494.0814   1416.74988     786.6288     494.0814
   1416.73462     786.6198     493.1282   1416.73462     786.6198     493.1282
   1416.71936     787.6161     494.7221   1416.71936     787.6161     494.7221
   1416.70410     787.5653     494.4132   1416.70410     787.5653     494.4132
   1416.68884     788.5762     494.7502   1416.68884     788.5762     494.7502
   1416.67358     788.5532     494.5438   1416.67358     788.5532     494.5438
   1416.65833     788.8163     494.7922   1416.65833     788.8163     494.7922
   1416.64307     788.6619     495.2811   1416.64307     788.6619     495.2811
   1416.62781     789.5202     495.2447   1416.62781     789.5202     495.2447
   1416.61255     790.7960     496.1910   1416.61255     790.7960     496.1910
   1416.59729     789.9288     496.6600   1416.59729     789.9288     496.6600
   1416.58203     789.0183     496.3786   1416.58203     789.0183     496.3786
   1416.56677     789.8163     497.0483   1416.56677     789.8163     497.0483
   1416.55151     788.3735     496.3445   1416.55151     788.3735     496.3445
   1416.53625     789.9775     497.0113   1416.53625     789.9775     497.0113
   1416.52100     789.9595     496.7614   1416.52100     789.9595     496.7614
   1416.50574     791.3980     497.2776   1416.50574     791.3980     497.2776
   1416.49048     791.3394     496.8318   1416.49048     791.3394     496.8318
   1416.47522     791.5515     496.8225   1416.47522     791.5515     496.8225
   1416.45996     789.9504     497.3602   1416.45996     789.9504     497.3602
   1416.44470     788.3513     496.7283   1416.44470     788.3513     496.7283
   1416.42944     789.7703     496.6396   1416.42944     789.7703     496.6396
   1416.41418     789.5995     497.6502   1416.41418     789.5995     497.6502
   1416.39893     789.2784     497.4379   1416.39893     789.2784     497.4379
   1416.38367     789.8720     497.8213   1416.38367     789.8720     497.8213
   1416.36841     788.8480     496.8445   1416.36841     788.8480     496.8445
   1416.35315     790.2289     497.8014   1416.35315     790.2289     497.8014
   1416.33789     788.8866     497.0507   1416.33789     788.8866     497.0507
   1416.32263     789.5083     496.3547   1416.32263     789.5083     496.3547
   1416.30737     788.8208     496.7681   1416.30737     788.8208     496.7681
   1416.29211     788.7909     496.4382   1416.29211     788.7909     496.4382
   1416.27686     789.0657     496.4986   1416.27686     789.0657     496.4986
   1416.26160     788.5418     496.6278   1416.26160     788.5418     496.6278
   1416.24634     788.4137     496.1269   1416.24634     788.4137     496.1269
   1416.23108     787.4880     496.1010   1416.23108     787.4880     496.1010
   1416.21582     788.4000     496.0124   1416.21582     788.4000     496.0124
   1416.20056     787.0610     496.4505   1416.20056     787.0610     496.4505
   1416.18530     786.9398     494.8347   1416.18530     786.9398     494.8347
   1416.17004     785.5568     494.9099   1416.17004     785.5568     494.9099
   1416.15479     786.8895     496.0702   1416.15479     786.8895     496.0702
   1416.13953     785.5306     495.0829   1416.13953     785.5306     495.0829
   1416.12427     786.0899     495.0832   1416.12427     786.0899     495.0832
   1416.10901     785.2827     494.7588   1416.10901     785.2827     494.7588
   1416.09375     785.0023     494.8262   1416.09375     785.0023     494.8262
   1416.07849     783.2439     494.2478   1416.07849     783.2439     494.2478
   1416.06323     783.6951     494.1796   1416.06323     783.6951     494.1796
   1416.04797     784.2971     493.6076   1416.04797     784.2971     493.6076
   1416.03271     781.7878     494.2365   1416.03271     781.7878     494.2365
   1416.01746     782.4139     493.2162   1416.01746     782.4139     493.2162
   1416.00220     782.3024     493.4156   1416.00220     782.3024     493.4156
   1415.98694     780.2413     493.1909   1415.98694     780.2413     493.1909
   1415.97168     780.0558     492.4525   1415.97168     780.0558     492.4525
   1415.95642     779.9536     492.2174   1415.95642     779.9536     492.2174
   1415.94116     779.2062     491.5935   1415.94116     779.2062     491.5935
   1415.92590     777.6990     492.2361   1415.92590     777.6990     492.2361
   1415.91064     777.7385     491.6634   1415.91064     777.7385     491.6634
   1415.89539     776.5779     490.7434   1415.89539     776.5779     490.7434
   1415.88013     777.3217     490.7203   1415.88013     777.3217     490.7203
   1415.86487     776.6700     490.0958   1415.86487     776.6700     490.0958
   1415.84961     775.2908     490.3931   1415.84961     775.2908     490.3931
   1415.83435     776.2217     489.6361   1415.83435     776.2217     489.6361
   1415.81909     776.5017     489.6140   1415.81909     776.5017     489.6140
   1415.80383     772.1617     488.6645   1415.80383     772.1617     488.6645
   1415.78857     772.6430     487.6629   1415.78857     772.6430     487.6629
   1415.77332     772.8702     488.9441   1415.77332     772.8702     488.9441
   1415.75806     772.2462     487.9232   1415.75806     772.2462     487.9232
   1415.74280     770.9537     486.8034   1415.74280     770.9537     486.8034
   1415.72754     770.1241     486.7125   1415.72754     770.1241     486.7125
   1415.71228     769.7413     487.0191   1415.71228     769.7413     487.0191
   1415.69702     768.1230     485.7694   1415.69702     768.1230     485.7694
   1415.68176     768.0513     485.8428   1415.68176     768.0513     485.8428
   1415.66650     766.6390     485.1336   1415.66650     766.6390     485.1336
   1415.65125     766.0565     485.7137   1415.65125     766.0565     485.7137
   1415.63599     765.6155     484.4843   1415.63599     765.6155     484.4843
   1415.62073     764.1670     484.6086   1415.62073     764.1670     484.6086
   1415.60547     763.3833     483.5399   1415.60547     763.3833     483.5399
   1415.59021     763.0519     484.3549   1415.59021     763.0519     484.3549
   1415.57495     761.5293     484.4326   1415.57495     761.5293     484.4326
   1415.55969     760.5102     482.9037   1415.55969     760.5102     482.9037
   1415.54443     758.4219     482.2411   1415.54443     758.4219     482.2411
   1415.52917     759.2211     482.1163   1415.52917     759.2211     482.1163
   1415.51392     758.5257     482.3206   1415.51392     758.5257     482.3206
   1415.49866     756.5893     481.2883   1415.49866     756.5893     481.2883
   1415.48340     754.6107     479.8247   1415.48340     754.6107     479.8247
   1415.46814     754.5416     480.3559   1415.46814     754.5416     480.3559
   1415.45288     752.7622     479.0832   1415.45288     752.7622     479.0832
   1415.43762     753.3269     478.7810   1415.43762     753.3269     478.7810
   1415.42236     751.7556     478.5459   1415.42236     751.7556     478.5459
   1415.40710     749.8419     477.8760   1415.40710     749.8419     477.8760
   1415.39185     748.4470     477.5960   1415.39185     748.4470     477.5960
   1415.37659     748.1155     476.4693   1415.37659     748.1155     476.4693
   1415.36133     746.8532     475.9684   1415.36133     746.8532     475.9684
   1415.34607     746.5754     476.1220   1415.34607     746.5754     476.1220
   1415.33081     744.7744     475.3446   1415.33081     744.7744     475.3446
   1415.31555     743.3410     474.0029   1415.31555     743.3410     474.0029
   1415.30029     741.9106     474.4059   1415.30029     741.9106     474.4059
   1415.28503     741.0074     473.8818   1415.28503     741.0074     473.8818
   1415.26978     740.7450     472.6121   1415.26978     740.7450     472.6121
   1415.25452     739.1241     472.3434   1415.25452     739.1241     472.3434
   1415.23926     736.2476     471.6577   1415.23926     736.2476     471.6577
   1415.22400     736.3120     470.4699   1415.22400     736.3120     470.4699
   1415.20874     735.0397     470.9793   1415.20874     735.0397     470.9793
   1415.19348     733.0011     470.0559   1415.19348     733.0011     470.0559
   1415.17822     734.2583     469.8312   1415.17822     734.2583     469.8312
   1415.16296     730.3332     469.1191   1415.16296     730.3332     469.1191
   1415.14771     728.5686     468.5433   1415.14771     728.5686     468.5433
   1415.13245     728.5958     467.1902   1415.13245     728.5958     467.1902
   1415.11719     726.6475     466.3632   1415.11719     726.6475     466.3632
   1415.10193     724.2654     466.1613   1415.10193     724.2654     466.1613
   1415.08667     723.1562     465.6025   1415.08667     723.1562     465.6025
   1415.07141     721.9746     464.7365   1415.07141     721.9746     464.7365
   1415.05615     720.0355     464.2223   1415.05615     720.0355     464.2223
   1415.04089     719.7759     463.2661   1415.04089     719.7759     463.2661
   1415.02563     717.1805     462.3343   1415.02563     717.1805     462.3343
   1415.01038     716.1227     461.2558   1415.01038     716.1227     461.2558
   1414.99512     713.9308     460.7770   1414.99512     713.9308     460.7770
   1414.97986     712.3953     460.4964   1414.97986     712.3953     460.4964
   1414.96460     710.0795     458.9578   1414.96460     710.0795     458.9578
   1414.94934     710.5244     458.2952   1414.94934     710.5244     458.2952
   1414.93408     707.6567     457.7860   1414.93408     707.6567     457.7860
   1414.91882     706.6443     457.3961   1414.91882     706.6443     457.3961
   1414.90356     705.6476     455.9685   1414.90356     705.6476     455.9685
   1414.88831     703.1949     455.4272   1414.88831     703.1949     455.4272
   1414.87305     701.6519     455.1705   1414.87305     701.6519     455.1705
   1414.85779     699.2327     453.2248   1414.85779     699.2327     453.2248
   1414.84253     696.8958     452.3347   1414.84253     696.8958     452.3347
   1414.82727     696.2327     451.6088   1414.82727     696.2327     451.6088
   1414.81201     693.2977     450.7160   1414.81201     693.2977     450.7160
   1414.79675     691.6423     449.4046   1414.79675     691.6423     449.4046
   1414.78149     691.3943     448.2593   1414.78149     691.3943     448.2593
   1414.76624     688.0819     448.2812   1414.76624     688.0819     448.2812
   1414.75098     686.7292     446.7990   1414.75098     686.7292     446.7990
   1414.73572     684.9969     446.0673   1414.73572     684.9969     446.0673
   1414.72046     683.5485     444.9842   1414.72046     683.5485     444.9842
   1414.70520     680.6589     443.8290   1414.70520     680.6589     443.8290
   1414.68994     678.4044     442.5545   1414.68994     678.4044     442.5545
   1414.67468     677.1316     441.5213   1414.67468     677.1316     441.5213
   1414.65942     675.5149     440.2363   1414.65942     675.5149     440.2363
   1414.64417     671.8853     438.9299   1414.64417     671.8853     438.9299
   1414.62891     670.6335     438.5844   1414.62891     670.6335     438.5844
   1414.61365     668.3674     437.0749   1414.61365     668.3674     437.0749
   1414.59839     666.6631     435.3789   1414.59839     666.6631     435.3789
   1414.58313     665.1074     435.4707   1414.58313     665.1074     435.4707
   1414.56787     662.3749     434.0882   1414.56787     662.3749     434.0882
   1414.55261     659.3314     432.4578   1414.55261     659.3314     432.4578
   1414.53735     657.0259     430.7361   1414.53735     657.0259     430.7361
   1414.52209     655.3082     430.1281   1414.52209     655.3082     430.1281
   1414.50684     653.6985     429.1793   1414.50684     653.6985     429.1793
   1414.49158     651.0244     428.3369   1414.49158     651.0244     428.3369
   1414.47632     648.9287     427.0789   1414.47632     648.9287     427.0789
   1414.46106     646.3002     424.9822   1414.46106     646.3002     424.9822
   1414.44580     643.8153     424.6078   1414.44580     643.8153     424.6078
   1414.43054     641.3203     423.2615   1414.43054     641.3203     423.2615
   1414.41528     638.4998     421.9870   1414.41528     638.4998     421.9870
   1414.40002     636.8584     421.2524   1414.40002     636.8584     421.2524
   1414.38477     635.4693     419.4935   1414.38477     635.4693     419.4935
   1414.36951     632.3679     418.1276   1414.36951     632.3679     418.1276
   1414.35425     628.4946     415.7259   1414.35425     628.4946     415.7259
   1414.33899     626.5763     415.8243   1414.33899     626.5763     415.8243
   1414.32373     625.5553     413.7321   1414.32373     625.5553     413.7321
   1414.30847     622.9970     413.2127   1414.30847     622.9970     413.2127
   1414.29321     620.0425     411.2875   1414.29321     620.0425     411.2875
   1414.27795     616.8510     409.8741   1414.27795     616.8510     409.8741
   1414.26270     614.8285     408.3432   1414.26270     614.8285     408.3432
   1414.24744     612.5062     407.4023   1414.24744     612.5062     407.4023
   1414.23218     608.3608     406.0793   1414.23218     608.3608     406.0793
   1414.21692     606.1877     404.3240   1414.21692     606.1877     404.3240
   1414.20166     604.7192     402.3759   1414.20166     604.7192     402.3759
   1414.18640     601.2981     401.6521   1414.18640     601.2981     401.6521
   1414.17114     599.7222     400.3036   1414.17114     599.7222     400.3036
   1414.15588     597.2331     398.3554   1414.15588     597.2331     398.3554
   1414.14062     593.0497     397.1152   1414.14062     593.0497     397.1152
   1414.12537     591.5947     395.0941   1414.12537     591.5947     395.0941
   1414.11011     588.9484     393.8014   1414.11011     588.9484     393.8014
   1414.09485     585.5142     392.1111   1414.09485     585.5142     392.1111
   1414.07959     583.0168     390.9232   1414.07959     583.0168     390.9232
   1414.06433     580.7612     389.7427   1414.06433     580.7612     389.7427
   1414.04907     576.8364     387.5760   1414.04907     576.8364     387.5760
   1414.03381     575.9144     386.6117   1414.03381     575.9144     386.6117
   1414.01855     572.0481     384.7801   1414.01855     572.0481     384.7801
   1414.00330     594.5209     390.5800   1414.00330     594.5209     390.5800
   1413.98804     567.5176     381.9895   1413.98804     567.5176     381.9895
   1413.97278     563.2537     380.6103   1413.97278     563.2537     380.6103
   1413.95752     560.6993     378.3168   1413.95752     560.6993     378.3168
   1413.94226     557.1445     377.1671   1413.94226     557.1445     377.1671
   1413.92700     554.8460     375.1436   1413.92700     554.8460     375.1436
   1413.91174     551.8621     373.7766   1413.91174     551.8621     373.7766
   1413.89648     549.3618     372.1041   1413.89648     549.3618     372.1041
   1413.88123     546.4413     370.0988   1413.88123     546.4413     370.0988
   1413.86597     543.7252     369.1473   1413.86597     543.7252     369.1473
   1413.85071     540.4626     367.3435   1413.85071     540.4626     367.3435
   1413.83545     537.4967     365.5533   1413.83545     537.4967     365.5533
   1413.82019     534.9172     364.1895   1413.82019     534.9172     364.1895
   1413.80493     532.4258     362.6658   1413.80493     532.4258     362.6658
   1413.78967     528.8626     360.8150   1413.78967     528.8626     360.8150
   1413.77441     526.7246     359.2784   1413.77441     526.7246     359.2784
   1413.75916     523.3983     357.4184   1413.75916     523.3983     357.4184
   1413.74390     520.3857     355.5735   1413.74390     520.3857     355.5735
   1413.72864     517.6285     354.9268   1413.72864     517.6285     354.9268
   1413.71338     515.5253     352.1740   1413.71338     515.5253     352.1740
   1413.69812     512.1906     350.6058   1413.69812     512.1906     350.6058
   1413.68286     508.8772     348.8275   1413.68286     508.8772     348.8275
   1413.66760     506.0015     347.6026   1413.66760     506.0015     347.6026
   1413.65234     504.0143     345.3244   1413.65234     504.0143     345.3244
   1413.63708     500.4347     344.0798   1413.63708     500.4347     344.0798
   1413.62183     497.9205     342.8369   1413.62183     497.9205     342.8369
   1413.60657     494.9409     340.5333   1413.60657     494.9409     340.5333
   1413.59131     491.0369     338.8836   1413.59131     491.0369     338.8836
   1413.57605     489.0876     337.7209   1413.57605     489.0876     337.7209
   1413.56079     485.9035     336.7171   1413.56079     485.9035     336.7171
   1413.54553     482.6657     334.5246   1413.54553     482.6657     334.5246
   1413.53027     480.0066     332.7397   1413.53027     480.0066     332.7397
   1413.51501     477.2179     331.2719   1413.51501     477.2179     331.2719
   1413.49976     475.6373     329.3573   1413.49976     475.6373     329.3573
   1413.48450     471.6722     328.2793   1413.48450     471.6722     328.2793
   1413.46924     469.3526     325.5016   1413.46924     469.3526     325.5016
   1413.45398     466.7964     324.6067   1413.45398     466.7964     324.6067
   1413.43872     463.6428     322.7834   1413.43872     463.6428     322.7834
   1413.42346     461.3020     320.6524   1413.42346     461.3020     320.6524
   1413.40820     457.9276     320.0816   1413.40820     457.9276     320.0816
   1413.39294     455.4930     318.2458   1413.39294     455.4930     318.2458
   1413.37769     453.0437     316.5535   1413.37769     453.0437     316.5535
   1413.36243     449.9243     314.8746   1413.36243     449.9243     314.8746
   1413.34717     447.3809     313.2468   1413.34717     447.3809     313.2468
   1413.33191     444.2861     311.7265   1413.33191     444.2861     311.7265
   1413.31665     441.9443     309.9845   1413.31665     441.9443     309.9845
   1413.30139     439.2633     308.6405   1413.30139     439.2633     308.6405
   1413.28613     437.2500     306.9508   1413.28613     437.2500     306.9508
   1413.27087     434.4434     305.7538   1413.27087     434.4434     305.7538
   1413.25562     432.1758     304.3494   1413.25562     432.1758     304.3494
   1413.24036     429.8706     302.8077   1413.24036     429.8706     302.8077
   1413.22510     426.9959     301.5731   1413.22510     426.9959     301.5731
   1413.20984     424.6103     299.5555   1413.20984     424.6103     299.5555
   1413.19458     422.2429     298.2665   1413.19458     422.2429     298.2665
   1413.17932     419.6717     297.1222   1413.17932     419.6717     297.1222
   1413.16406     417.4705     295.7940   1413.16406     417.4705     295.7940
   1413.14880     415.5617     294.3545   1413.14880     415.5617     294.3545
   1413.13354     413.6887     292.8511   1413.13354     413.6887     292.8511
   1413.11829     410.8448     291.3177   1413.11829     410.8448     291.3177
   1413.10303     408.2323     290.4414   1413.10303     408.2323     290.4414
   1413.08777     406.3134     289.1227   1413.08777     406.3134     289.1227
   1413.07251     403.3638     287.6811   1413.07251     403.3638     287.6811
   1413.05725     402.0253     286.5346   1413.05725     402.0253     286.5346
   1413.04199     399.7511     284.7974   1413.04199     399.7511     284.7974
   1413.02673     397.3608     283.8332   1413.02673     397.3608     283.8332
   1413.01147     395.7325     283.0689   1413.01147     395.7325     283.0689
   1412.99622     393.4125     281.3230   1412.99622     393.4125     281.3230
   1412.98096     391.7616     280.2292   1412.98096     391.7616     280.2292
   1412.96570     390.0471     279.0362   1412.96570     390.0471     279.0362
   1412.95044     388.1104     277.6940   1412.95044     388.1104     277.6940
   1412.93518     386.1289     276.8526   1412.93518     386.1289     276.8526
   1412.91992     384.1496     275.0161   1412.91992     384.1496     275.0161
   1412.90466     382.7145     274.6472   1412.90466     382.7145     274.6472
   1412.88940     380.7123     273.6379   1412.88940     380.7123     273.6379
   1412.87415     378.8704     272.8828   1412.87415     378.8704     272.8828
   1412.85889     377.2961     271.4105   1412.85889     377.2961     271.4105
   1412.84363     376.0844     270.5677   1412.84363     376.0844     270.5677
   1412.82837     373.9752     269.6219   1412.82837     373.9752     269.6219
   1412.81311     372.1741     268.6807   1412.81311     372.1741     268.6807
   1412.79785     370.8512     267.7079   1412.79785     370.8512     267.7079
   1412.78259     370.3699     267.0955   1412.78259     370.3699     267.0955
   1412.76733     368.8942     266.2979   1412.76733     368.8942     266.2979
   1412.75208     367.2423     265.8755   1412.75208     367.2423     265.8755
   1412.73682     365.8074     264.4202   1412.73682     365.8074     264.4202
   1412.72156     364.6877     263.5310   1412.72156     364.6877     263.5310
   1412.70630     363.5674     263.3051   1412.70630     363.5674     263.3051
   1412.69104     362.5596     262.3197   1412.69104     362.5596     262.3197
   1412.67578     361.0493     261.6519   1412.67578     361.0493     261.6519
   1412.66052     360.3553     261.2962   1412.66052     360.3553     261.2962
   1412.64526     358.6984     260.5315   1412.64526     358.6984     260.5315
   1412.63000     358.1527     260.1043   1412.63000     358.1527     260.1043
   1412.61475     357.4864     259.8873   1412.61475     357.4864     259.8873
   1412.59949     356.4062     258.5894   1412.59949     356.4062     258.5894
   1412.58423     355.6879     258.2229   1412.58423     355.6879     258.2229
   1412.56897     355.8352     258.4004   1412.56897     355.8352     258.4004
   1412.55371     354.8143     257.8055   1412.55371     354.8143     257.8055
   1412.53845     353.5261     257.4371   1412.53845     353.5261     257.4371
   1412.52319     353.2587     257.0276   1412.52319     353.2587     257.0276
   1412.50793     352.6813     256.6985   1412.50793     352.6813     256.6985
   1412.49268     352.2681     256.3931   1412.49268     352.2681     256.3931
   1412.47742     352.1444     256.1435   1412.47742     352.1444     256.1435
   1412.46216     351.2820     256.3575   1412.46216     351.2820     256.3575
   1412.44690     351.1841     256.3340   1412.44690     351.1841     256.3340
   1412.43164     350.4317     255.6931   1412.43164     350.4317     255.6931
   1412.41638     350.1980     255.9865   1412.41638     350.1980     255.9865
   1412.40112     350.7759     255.8997   1412.40112     350.7759     255.8997
   1412.38586     350.1258     256.0910   1412.38586     350.1258     256.0910
   1412.37061     350.1138     255.8884   1412.37061     350.1138     255.8884
   1412.35535     350.6742     256.1527   1412.35535     350.6742     256.1527
   1412.34009     350.2880     256.2546   1412.34009     350.2880     256.2546
   1412.32483     350.8431     256.3284   1412.32483     350.8431     256.3284
   1412.30957     350.5820     256.8762   1412.30957     350.5820     256.8762
   1412.29431     350.9187     256.8780   1412.29431     350.9187     256.8780
   1412.27905     351.3523     256.9767   1412.27905     351.3523     256.9767
   1412.26379     351.7645     257.3330   1412.26379     351.7645     257.3330
   1412.24854     351.6906     257.5272   1412.24854     351.6906     257.5272
   1412.23328     351.7861     257.8674   1412.23328     351.7861     257.8674
   1412.21802     352.3088     258.3909   1412.21802     352.3088     258.3909
   1412.20276     352.8930     258.9793   1412.20276     352.8930     258.9793