#     FILENAME=!Skynet_57528_lach-cc-182_20572_21005.cyb.fits
#     BASENAME=Skynet_57528_lach-cc-182_20572_21005
#     SRC_NAME=lach-cc-182
#     OBSERVER=ccmadison16_9505
#     DATE_OBS=2016-05-20T18:44:12.180
#        OBSID=20572
#      SCANNUM=21005
#          MJD=57528.7817
#          UTC=67541
#     SCANTYPE=track
#     DATAMODE=HIRES
#     TUNEFREQ=1420.0000
# Actual_FREQ1=1420.0000
# Actual_FREQ2=1420.0000
#    LO1Tuning=6870.000
#     RFFILTER=1355_1435
#        OBSBW=-15.6250
#        NCHAN=1024 
#        FOCUS=37.0709
#           RA=05:50:16.42
#          DEC=27:13:26.95
#      RA(hrs)=5.837900
#     DEC(deg)=27.224200
#    AZIM(deg)=147.191
#    ELEV(deg)=76.940
#     IFattens=10.00, 9.00
#      WARNING=None
#    TCAL_XL1=7.9635
#    TCAL_YR1=9.1340
#    TCAL_XL2=7.9635
#    TCAL_YR2=9.1340
#     TRX_XL1=11.7060
#     TRX_YR1=11.7060
#     TRX_XL2=11.7060
#     TRX_YR2=11.7060
#        TAVE=1.0000
#Freq1(MHz)          XL1          YR1  Freq2(MHz)          XL2          YR2 

   1427.81250     376.3273     345.6418   1427.81250     376.3273     345.6418
   1427.79724     377.0349     346.6418   1427.79724     377.0349     346.6418
   1427.78198     377.7278     348.5421   1427.78198     377.7278     348.5421
   1427.76672     378.5345     350.2594   1427.76672     378.5345     350.2594
   1427.75146     379.0942     351.1871   1427.75146     379.0942     351.1871
   1427.73621     380.2881     352.7018   1427.73621     380.2881     352.7018
   1427.72095     381.4556     354.6448   1427.72095     381.4556     354.6448
   1427.70569     381.9633     355.8338   1427.70569     381.9633     355.8338
   1427.69043     383.1837     357.7589   1427.69043     383.1837     357.7589
   1427.67517     383.8136     359.4557   1427.67517     383.8136     359.4557
   1427.65991     385.0326     361.1428   1427.65991     385.0326     361.1428
   1427.64465     386.3011     363.3315   1427.64465     386.3011     363.3315
   1427.62939     387.6650     364.2276   1427.62939     387.6650     364.2276
   1427.61414     389.5656     366.3655   1427.61414     389.5656     366.3655
   1427.59888     390.1524     368.4464   1427.59888     390.1524     368.4464
   1427.58362     391.7747     370.0080   1427.58362     391.7747     370.0080
   1427.56836     393.4858     372.1534   1427.56836     393.4858     372.1534
   1427.55310     394.2939     374.8865   1427.55310     394.2939     374.8865
   1427.53784     395.7423     376.1193   1427.53784     395.7423     376.1193
   1427.52258     397.2014     378.5543   1427.52258     397.2014     378.5543
   1427.50732     398.9221     380.1977   1427.50732     398.9221     380.1977
   1427.49207     400.4741     382.4687   1427.49207     400.4741     382.4687
   1427.47681     401.6075     385.1253   1427.47681     401.6075     385.1253
   1427.46155     403.6686     386.4366   1427.46155     403.6686     386.4366
   1427.44629     405.4740     388.7408   1427.44629     405.4740     388.7408
   1427.43103     408.4649     390.4935   1427.43103     408.4649     390.4935
   1427.41577     409.7328     393.0765   1427.41577     409.7328     393.0765
   1427.40051     411.8136     395.5371   1427.40051     411.8136     395.5371
   1427.38525     413.9638     397.2480   1427.38525     413.9638     397.2480
   1427.37000     415.3359     400.0081   1427.37000     415.3359     400.0081
   1427.35474     417.6166     401.9973   1427.35474     417.6166     401.9973
   1427.33948     419.2845     403.7598   1427.33948     419.2845     403.7598
   1427.32422     421.5564     406.2373   1427.32422     421.5564     406.2373
   1427.30896     423.8410     409.3052   1427.30896     423.8410     409.3052
   1427.29370     426.2625     411.1671   1427.29370     426.2625     411.1671
   1427.27844     428.3886     413.5596   1427.27844     428.3886     413.5596
   1427.26318     430.6151     416.2707   1427.26318     430.6151     416.2707
   1427.24792     433.5385     418.4013   1427.24792     433.5385     418.4013
   1427.23267     434.8814     420.6023   1427.23267     434.8814     420.6023
   1427.21741     437.0751     423.0044   1427.21741     437.0751     423.0044
   1427.20215     439.7639     425.7710   1427.20215     439.7639     425.7710
   1427.18689     442.8557     428.2333   1427.18689     442.8557     428.2333
   1427.17163     445.2147     430.9508   1427.17163     445.2147     430.9508
   1427.15637     447.7479     433.1360   1427.15637     447.7479     433.1360
   1427.14111     450.2150     435.8022   1427.14111     450.2150     435.8022
   1427.12585     452.3193     437.9671   1427.12585     452.3193     437.9671
   1427.11060     454.4251     441.1450   1427.11060     454.4251     441.1450
   1427.09534     457.9983     443.3856   1427.09534     457.9983     443.3856
   1427.08008     460.2461     446.0180   1427.08008     460.2461     446.0180
   1427.06482     462.6616     448.1382   1427.06482     462.6616     448.1382
   1427.04956     466.1886     450.9421   1427.04956     466.1886     450.9421
   1427.03430     468.3588     453.4749   1427.03430     468.3588     453.4749
   1427.01904     471.8413     455.3967   1427.01904     471.8413     455.3967
   1427.00378     474.5414     457.6638   1427.00378     474.5414     457.6638
   1426.98853     477.1136     460.2297   1426.98853     477.1136     460.2297
   1426.97327     480.4631     463.4484   1426.97327     480.4631     463.4484
   1426.95801     482.7205     465.4353   1426.95801     482.7205     465.4353
   1426.94275     484.9544     467.5091   1426.94275     484.9544     467.5091
   1426.92749     488.8709     470.4520   1426.92749     488.8709     470.4520
   1426.91223     491.3429     473.2404   1426.91223     491.3429     473.2404
   1426.89697     494.2446     475.3792   1426.89697     494.2446     475.3792
   1426.88171     497.3613     477.9806   1426.88171     497.3613     477.9806
   1426.86646     500.5408     480.6956   1426.86646     500.5408     480.6956
   1426.85120     503.6470     482.6573   1426.85120     503.6470     482.6573
   1426.83594     506.2306     485.0993   1426.83594     506.2306     485.0993
   1426.82068     509.9814     488.6852   1426.82068     509.9814     488.6852
   1426.80542     513.1353     489.7940   1426.80542     513.1353     489.7940
   1426.79016     516.3870     492.5060   1426.79016     516.3870     492.5060
   1426.77490     519.9830     494.7928   1426.77490     519.9830     494.7928
   1426.75964     521.7936     498.1926   1426.75964     521.7936     498.1926
   1426.74438     524.8782     499.7439   1426.74438     524.8782     499.7439
   1426.72913     528.2017     501.9534   1426.72913     528.2017     501.9534
   1426.71387     531.1454     505.0439   1426.71387     531.1454     505.0439
   1426.69861     533.8456     506.6585   1426.69861     533.8456     506.6585
   1426.68335     538.3850     509.7907   1426.68335     538.3850     509.7907
   1426.66809     541.0455     511.7581   1426.66809     541.0455     511.7581
   1426.65283     544.1231     514.7775   1426.65283     544.1231     514.7775
   1426.63757     546.6763     516.5208   1426.63757     546.6763     516.5208
   1426.62231     549.9534     518.9216   1426.62231     549.9534     518.9216
   1426.60706     553.6163     521.0752   1426.60706     553.6163     521.0752
   1426.59180     556.9711     523.6923   1426.59180     556.9711     523.6923
   1426.57654     559.3121     525.2594   1426.57654     559.3121     525.2594
   1426.56128     562.1541     527.4979   1426.56128     562.1541     527.4979
   1426.54602     566.3569     530.9479   1426.54602     566.3569     530.9479
   1426.53076     568.8479     532.5309   1426.53076     568.8479     532.5309
   1426.51550     572.2345     535.5857   1426.51550     572.2345     535.5857
   1426.50024     575.1279     537.0089   1426.50024     575.1279     537.0089
   1426.48499     577.7637     538.9894   1426.48499     577.7637     538.9894
   1426.46973     581.6033     541.4881   1426.46973     581.6033     541.4881
   1426.45447     584.2546     543.4039   1426.45447     584.2546     543.4039
   1426.43921     586.7128     545.5779   1426.43921     586.7128     545.5779
   1426.42395     590.7291     547.2615   1426.42395     590.7291     547.2615
   1426.40869     592.9819     549.5416   1426.40869     592.9819     549.5416
   1426.39343     596.9225     552.1949   1426.39343     596.9225     552.1949
   1426.37817     599.6406     554.1514   1426.37817     599.6406     554.1514
   1426.36292     602.3679     556.0295   1426.36292     602.3679     556.0295
   1426.34766     605.3933     558.1078   1426.34766     605.3933     558.1078
   1426.33240     608.8903     559.5524   1426.33240     608.8903     559.5524
   1426.31714     611.6256     561.7032   1426.31714     611.6256     561.7032
   1426.30188     613.9813     564.0054   1426.30188     613.9813     564.0054
   1426.28662     617.6183     565.5638   1426.28662     617.6183     565.5638
   1426.27136     619.9841     567.9380   1426.27136     619.9841     567.9380
   1426.25610     623.4405     568.9560   1426.25610     623.4405     568.9560
   1426.24084     624.8780     571.0753   1426.24084     624.8780     571.0753
   1426.22559     630.4316     572.6779   1426.22559     630.4316     572.6779
   1426.21033     632.6880     575.6664   1426.21033     632.6880     575.6664
   1426.19507     634.0648     577.4061   1426.19507     634.0648     577.4061
   1426.17981     637.7893     578.7073   1426.17981     637.7893     578.7073
   1426.16455     640.9147     580.4465   1426.16455     640.9147     580.4465
   1426.14929     643.2966     582.6070   1426.14929     643.2966     582.6070
   1426.13403     645.2648     584.4606   1426.13403     645.2648     584.4606
   1426.11877     647.8290     585.6906   1426.11877     647.8290     585.6906
   1426.10352     651.3630     587.2316   1426.10352     651.3630     587.2316
   1426.08826     653.8547     589.0327   1426.08826     653.8547     589.0327
   1426.07300     656.0313     590.4831   1426.07300     656.0313     590.4831
   1426.05774     658.8695     591.8309   1426.05774     658.8695     591.8309
   1426.04248     661.8347     593.4608   1426.04248     661.8347     593.4608
   1426.02722     664.4883     595.1691   1426.02722     664.4883     595.1691
   1426.01196     667.1393     596.4520   1426.01196     667.1393     596.4520
   1425.99670     670.2275     598.5799   1425.99670     670.2275     598.5799
   1425.98145     673.2938     600.4053   1425.98145     673.2938     600.4053
   1425.96619     674.0873     601.0882   1425.96619     674.0873     601.0882
   1425.95093     677.0165     602.3638   1425.95093     677.0165     602.3638
   1425.93567     680.4095     603.7669   1425.93567     680.4095     603.7669
   1425.92041     681.7770     605.4529   1425.92041     681.7770     605.4529
   1425.90515     684.8799     607.5956   1425.90515     684.8799     607.5956
   1425.88989     687.5257     606.8799   1425.88989     687.5257     606.8799
   1425.87463     689.3443     609.6491   1425.87463     689.3443     609.6491
   1425.85938     691.0459     611.3961   1425.85938     691.0459     611.3961
   1425.84412     693.2112     611.8479   1425.84412     693.2112     611.8479
   1425.82886     696.1117     613.9863   1425.82886     696.1117     613.9863
   1425.81360     698.2403     613.8167   1425.81360     698.2403     613.8167
   1425.79834     699.6712     615.5288   1425.79834     699.6712     615.5288
   1425.78308     701.6500     617.9458   1425.78308     701.6500     617.9458
   1425.76782     703.7711     617.3864   1425.76782     703.7711     617.3864
   1425.75256     706.6154     619.1709   1425.75256     706.6154     619.1709
   1425.73730     708.5029     619.4508   1425.73730     708.5029     619.4508
   1425.72205     710.2578     619.9482   1425.72205     710.2578     619.9482
   1425.70679     712.0690     621.9498   1425.70679     712.0690     621.9498
   1425.69153     714.5170     622.9678   1425.69153     714.5170     622.9678
   1425.67627     716.4904     624.1439   1425.67627     716.4904     624.1439
   1425.66101     719.5360     625.9239   1425.66101     719.5360     625.9239
   1425.64575     719.8328     625.5084   1425.64575     719.8328     625.5084
   1425.63049     721.2037     627.7557   1425.63049     721.2037     627.7557
   1425.61523     722.9193     627.8904   1425.61523     722.9193     627.8904
   1425.59998     724.8621     629.1783   1425.59998     724.8621     629.1783
   1425.58472     726.8453     630.2035   1425.58472     726.8453     630.2035
   1425.56946     729.1255     631.1084   1425.56946     729.1255     631.1084
   1425.55420     730.9921     631.3527   1425.55420     730.9921     631.3527
   1425.53894     731.8389     632.6502   1425.53894     731.8389     632.6502
   1425.52368     733.2820     632.7947   1425.52368     733.2820     632.7947
   1425.50842     734.7878     634.0157   1425.50842     734.7878     634.0157
   1425.49316     735.5808     634.2643   1425.49316     735.5808     634.2643
   1425.47791     736.7113     634.7413   1425.47791     736.7113     634.7413
   1425.46265     738.7288     636.2268   1425.46265     738.7288     636.2268
   1425.44739     740.6769     636.9107   1425.44739     740.6769     636.9107
   1425.43213     741.6959     636.4622   1425.43213     741.6959     636.4622
   1425.41687     742.5498     638.3640   1425.41687     742.5498     638.3640
   1425.40161     743.6492     638.9832   1425.40161     743.6492     638.9832
   1425.38635     745.2136     639.4594   1425.38635     745.2136     639.4594
   1425.37109     747.3427     639.5483   1425.37109     747.3427     639.5483
   1425.35583     748.2184     639.5145   1425.35583     748.2184     639.5145
   1425.34058     748.9957     641.2699   1425.34058     748.9957     641.2699
   1425.32532     750.1464     641.0163   1425.32532     750.1464     641.0163
   1425.31006     750.7755     641.0787   1425.31006     750.7755     641.0787
   1425.29480     752.4424     642.1470   1425.29480     752.4424     642.1470
   1425.27954     751.9796     642.4252   1425.27954     751.9796     642.4252
   1425.26428     754.3129     642.7394   1425.26428     754.3129     642.7394
   1425.24902     755.7232     642.5758   1425.24902     755.7232     642.5758
   1425.23376     756.6768     642.4559   1425.23376     756.6768     642.4559
   1425.21851     757.1075     643.7812   1425.21851     757.1075     643.7812
   1425.20325     758.2502     645.7560   1425.20325     758.2502     645.7560
   1425.18799     759.2842     643.6533   1425.18799     759.2842     643.6533
   1425.17273     760.0524     644.7161   1425.17273     760.0524     644.7161
   1425.15747     760.4698     645.2553   1425.15747     760.4698     645.2553
   1425.14221     760.5510     644.9960   1425.14221     760.5510     644.9960
   1425.12695     760.6475     645.7370   1425.12695     760.6475     645.7370
   1425.11169     761.5654     644.5446   1425.11169     761.5654     644.5446
   1425.09644     763.3859     645.4097   1425.09644     763.3859     645.4097
   1425.08118     763.4667     645.0853   1425.08118     763.4667     645.0853
   1425.06592     764.3871     644.9152   1425.06592     764.3871     644.9152
   1425.05066     765.1664     646.1267   1425.05066     765.1664     646.1267
   1425.03540     765.6273     646.0909   1425.03540     765.6273     646.0909
   1425.02014     766.3150     645.6660   1425.02014     766.3150     645.6660
   1425.00488     767.5323     646.3121   1425.00488     767.5323     646.3121
   1424.98962     768.2426     646.5920   1424.98962     768.2426     646.5920
   1424.97437     767.4263     647.3000   1424.97437     767.4263     647.3000
   1424.95911     767.7205     645.9421   1424.95911     767.7205     645.9421
   1424.94385     768.9070     646.6147   1424.94385     768.9070     646.6147
   1424.92859     767.9945     645.4113   1424.92859     767.9945     645.4113
   1424.91333     768.5297     645.0040   1424.91333     768.5297     645.0040
   1424.89807     769.6690     645.8030   1424.89807     769.6690     645.8030
   1424.88281     769.5983     646.2732   1424.88281     769.5983     646.2732
   1424.86755     770.1439     646.2956   1424.86755     770.1439     646.2956
   1424.85229     769.3508     646.3925   1424.85229     769.3508     646.3925
   1424.83704     770.3616     644.9712   1424.83704     770.3616     644.9712
   1424.82178     770.0080     645.6309   1424.82178     770.0080     645.6309
   1424.80652     769.5133     645.8691   1424.80652     769.5133     645.8691
   1424.79126     770.6844     644.8818   1424.79126     770.6844     644.8818
   1424.77600     770.1179     645.3826   1424.77600     770.1179     645.3826
   1424.76074     771.3624     644.7424   1424.76074     771.3624     644.7424
   1424.74548     772.5977     644.0761   1424.74548     772.5977     644.0761
   1424.73022     770.3190     643.4062   1424.73022     770.3190     643.4062
   1424.71497     771.8079     643.8992   1424.71497     771.8079     643.8992
   1424.69971     771.6725     643.4621   1424.69971     771.6725     643.4621
   1424.68445     771.2157     643.1910   1424.68445     771.2157     643.1910
   1424.66919     770.8889     642.3654   1424.66919     770.8889     642.3654
   1424.65393     771.2087     643.3392   1424.65393     771.2087     643.3392
   1424.63867     770.6427     642.7847   1424.63867     770.6427     642.7847
   1424.62341     770.4702     641.6185   1424.62341     770.4702     641.6185
   1424.60815     771.3999     642.5495   1424.60815     771.3999     642.5495
   1424.59290     771.6026     642.1545   1424.59290     771.6026     642.1545
   1424.57764     771.6243     640.6314   1424.57764     771.6243     640.6314
   1424.56238     769.3257     640.9962   1424.56238     769.3257     640.9962
   1424.54712     771.0040     640.7222   1424.54712     771.0040     640.7222
   1424.53186     770.1976     639.5740   1424.53186     770.1976     639.5740
   1424.51660     769.6034     638.6527   1424.51660     769.6034     638.6527
   1424.50134     770.0623     639.4743   1424.50134     770.0623     639.4743
   1424.48608     769.9945     639.3436   1424.48608     769.9945     639.3436
   1424.47083     770.3766     638.2006   1424.47083     770.3766     638.2006
   1424.45557     769.2888     637.1338   1424.45557     769.2888     637.1338
   1424.44031     769.7582     638.0837   1424.44031     769.7582     638.0837
   1424.42505     768.8656     637.1714   1424.42505     768.8656     637.1714
   1424.40979     768.4251     636.8906   1424.40979     768.4251     636.8906
   1424.39453     766.4963     635.5948   1424.39453     766.4963     635.5948
   1424.37927     766.4828     635.8594   1424.37927     766.4828     635.8594
   1424.36401     768.0867     634.4842   1424.36401     768.0867     634.4842
   1424.34875     767.4944     633.4487   1424.34875     767.4944     633.4487
   1424.33350     767.1114     633.2213   1424.33350     767.1114     633.2213
   1424.31824     767.2089     632.9547   1424.31824     767.2089     632.9547
   1424.30298     767.3481     632.9673   1424.30298     767.3481     632.9673
   1424.28772     766.6588     632.9538   1424.28772     766.6588     632.9538
   1424.27246     764.4548     630.2132   1424.27246     764.4548     630.2132
   1424.25720     764.5019     630.2035   1424.25720     764.5019     630.2035
   1424.24194     764.8301     629.5881   1424.24194     764.8301     629.5881
   1424.22668     765.7975     629.0670   1424.22668     765.7975     629.0670
   1424.21143     763.8812     629.3297   1424.21143     763.8812     629.3297
   1424.19617     762.9628     627.5416   1424.19617     762.9628     627.5416
   1424.18091     764.9257     626.5446   1424.18091     764.9257     626.5446
   1424.16565     763.8766     626.2465   1424.16565     763.8766     626.2465
   1424.15039     760.9971     625.6097   1424.15039     760.9971     625.6097
   1424.13513     761.1388     625.5526   1424.13513     761.1388     625.5526
   1424.11987     762.4291     624.8401   1424.11987     762.4291     624.8401
   1424.10461     761.1321     624.4653   1424.10461     761.1321     624.4653
   1424.08936     761.5182     623.7755   1424.08936     761.5182     623.7755
   1424.07410     760.2738     622.5085   1424.07410     760.2738     622.5085
   1424.05884     758.8466     620.9016   1424.05884     758.8466     620.9016
   1424.04358     759.5794     620.8061   1424.04358     759.5794     620.8061
   1424.02832     758.2681     620.1656   1424.02832     758.2681     620.1656
   1424.01306     758.3173     619.9974   1424.01306     758.3173     619.9974
   1423.99780     758.2589     619.1947   1423.99780     758.2589     619.1947
   1423.98254     757.0165     618.6061   1423.98254     757.0165     618.6061
   1423.96729     757.1330     617.0864   1423.96729     757.1330     617.0864
   1423.95203     757.6709     616.4137   1423.95203     757.6709     616.4137
   1423.93677     756.0886     616.9138   1423.93677     756.0886     616.9138
   1423.92151     755.2124     614.7709   1423.92151     755.2124     614.7709
   1423.90625     755.4379     613.4558   1423.90625     755.4379     613.4558
   1423.89099     755.1005     614.5681   1423.89099     755.1005     614.5681
   1423.87573     753.5496     613.3083   1423.87573     753.5496     613.3083
   1423.86047     753.8434     611.9286   1423.86047     753.8434     611.9286
   1423.84521     754.4107     611.3591   1423.84521     754.4107     611.3591
   1423.82996     751.6088     609.4154   1423.82996     751.6088     609.4154
   1423.81470     752.0604     609.7953   1423.81470     752.0604     609.7953
   1423.79944     750.9733     608.7239   1423.79944     750.9733     608.7239
   1423.78418     750.6149     608.2579   1423.78418     750.6149     608.2579
   1423.76892     750.2292     607.4484   1423.76892     750.2292     607.4484
   1423.75366     749.3533     606.3850   1423.75366     749.3533     606.3850
   1423.73840     749.7611     604.7106   1423.73840     749.7611     604.7106
   1423.72314     748.7698     604.7670   1423.72314     748.7698     604.7670
   1423.70789     747.8816     603.5992   1423.70789     747.8816     603.5992
   1423.69263     746.5228     603.0323   1423.69263     746.5228     603.0323
   1423.67737     747.3577     602.0000   1423.67737     747.3577     602.0000
   1423.66211     746.4527     601.8678   1423.66211     746.4527     601.8678
   1423.64685     746.8177     600.3102   1423.64685     746.8177     600.3102
   1423.63159     745.9542     599.7517   1423.63159     745.9542     599.7517
   1423.61633     745.6001     598.0001   1423.61633     745.6001     598.0001
   1423.60107     744.7340     598.0609   1423.60107     744.7340     598.0609
   1423.58582     744.9860     596.8438   1423.58582     744.9860     596.8438
   1423.57056     742.9914     596.1277   1423.57056     742.9914     596.1277
   1423.55530     743.7545     594.6979   1423.55530     743.7545     594.6979
   1423.54004     742.9476     594.7667   1423.54004     742.9476     594.7667
   1423.52478     741.9932     592.9328   1423.52478     741.9932     592.9328
   1423.50952     740.2856     591.9736   1423.50952     740.2856     591.9736
   1423.49426     742.2125     590.4251   1423.49426     742.2125     590.4251
   1423.47900     740.8757     590.8738   1423.47900     740.8757     590.8738
   1423.46375     741.0109     588.8224   1423.46375     741.0109     588.8224
   1423.44849     740.9926     589.0045   1423.44849     740.9926     589.0045
   1423.43323     741.2334     586.9753   1423.43323     741.2334     586.9753
   1423.41797     739.2767     587.6409   1423.41797     739.2767     587.6409
   1423.40271     739.7003     586.2335   1423.40271     739.7003     586.2335
   1423.38745     738.9191     584.6903   1423.38745     738.9191     584.6903
   1423.37219     738.6484     584.4041   1423.37219     738.6484     584.4041
   1423.35693     738.2477     582.6895   1423.35693     738.2477     582.6895
   1423.34167     737.7344     581.7128   1423.34167     737.7344     581.7128
   1423.32642     736.2851     580.7120   1423.32642     736.2851     580.7120
   1423.31116     737.1577     579.2003   1423.31116     737.1577     579.2003
   1423.29590     736.9846     579.5061   1423.29590     736.9846     579.5061
   1423.28064     735.6672     577.8154   1423.28064     735.6672     577.8154
   1423.26538     735.3507     577.6199   1423.26538     735.3507     577.6199
   1423.25012     735.5564     576.4210   1423.25012     735.5564     576.4210
   1423.23486     734.7969     575.8350   1423.23486     734.7969     575.8350
   1423.21960     733.2818     574.1861   1423.21960     733.2818     574.1861
   1423.20435     734.4245     573.3575   1423.20435     734.4245     573.3575
   1423.18909     733.3264     571.7167   1423.18909     733.3264     571.7167
   1423.17383     733.1509     572.4175   1423.17383     733.1509     572.4175
   1423.15857     732.8431     570.2773   1423.15857     732.8431     570.2773
   1423.14331     732.3028     569.7465   1423.14331     732.3028     569.7465
   1423.12805     733.3337     568.1656   1423.12805     733.3337     568.1656
   1423.11279     731.2845     567.2987   1423.11279     731.2845     567.2987
   1423.09753     730.4457     566.7916   1423.09753     730.4457     566.7916
   1423.08228     731.3621     565.6655   1423.08228     731.3621     565.6655
   1423.06702     729.0463     565.1644   1423.06702     729.0463     565.1644
   1423.05176     730.3878     563.2009   1423.05176     730.3878     563.2009
   1423.03650     729.6497     562.6107   1423.03650     729.6497     562.6107
   1423.02124     729.4993     560.9218   1423.02124     729.4993     560.9218
   1423.00598     728.1066     560.6039   1423.00598     728.1066     560.6039
   1422.99072     728.4341     559.6917   1422.99072     728.4341     559.6917
   1422.97546     728.2048     558.1766   1422.97546     728.2048     558.1766
   1422.96021     729.1534     557.9607   1422.96021     729.1534     557.9607
   1422.94495     727.9137     556.8952   1422.94495     727.9137     556.8952
   1422.92969     727.8286     556.3494   1422.92969     727.8286     556.3494
   1422.91443     727.6563     553.9947   1422.91443     727.6563     553.9947
   1422.89917     727.2345     552.7415   1422.89917     727.2345     552.7415
   1422.88391     727.0780     552.9410   1422.88391     727.0780     552.9410
   1422.86865     726.9960     550.9704   1422.86865     726.9960     550.9704
   1422.85339     725.3300     550.1287   1422.85339     725.3300     550.1287
   1422.83813     726.1320     549.1461   1422.83813     726.1320     549.1461
   1422.82288     726.4196     548.5343   1422.82288     726.4196     548.5343
   1422.80762     725.8792     547.0740   1422.80762     725.8792     547.0740
   1422.79236     725.2722     546.9238   1422.79236     725.2722     546.9238
   1422.77710     724.6529     545.6596   1422.77710     724.6529     545.6596
   1422.76184     724.7388     544.7087   1422.76184     724.7388     544.7087
   1422.74658     723.8132     543.7717   1422.74658     723.8132     543.7717
   1422.73132     724.8128     542.0317   1422.73132     724.8128     542.0317
   1422.71606     724.4065     541.3856   1422.71606     724.4065     541.3856
   1422.70081     724.1532     539.8807   1422.70081     724.1532     539.8807
   1422.68555     723.7545     539.5674   1422.68555     723.7545     539.5674
   1422.67029     722.7610     538.8410   1422.67029     722.7610     538.8410
   1422.65503     723.0920     537.4643   1422.65503     723.0920     537.4643
   1422.63977     723.4706     536.2014   1422.63977     723.4706     536.2014
   1422.62451     722.0019     535.2678   1422.62451     722.0019     535.2678
   1422.60925     722.9933     533.7563   1422.60925     722.9933     533.7563
   1422.59399     723.6511     533.1316   1422.59399     723.6511     533.1316
   1422.57874     721.5661     532.2793   1422.57874     721.5661     532.2793
   1422.56348     721.9694     530.7132   1422.56348     721.9694     530.7132
   1422.54822     721.5810     530.5148   1422.54822     721.5810     530.5148
   1422.53296     721.7277     528.7418   1422.53296     721.7277     528.7418
   1422.51770     722.0602     528.5468   1422.51770     722.0602     528.5468
   1422.50244     721.6057     526.5759   1422.50244     721.6057     526.5759
   1422.48718     721.2310     526.8600   1422.48718     721.2310     526.8600
   1422.47192     721.9140     525.6634   1422.47192     721.9140     525.6634
   1422.45667     721.4678     524.9667   1422.45667     721.4678     524.9667
   1422.44141     720.9223     523.2592   1422.44141     720.9223     523.2592
   1422.42615     720.7839     522.3269   1422.42615     720.7839     522.3269
   1422.41089     719.9233     520.8961   1422.41089     719.9233     520.8961
   1422.39563     720.2124     520.7319   1422.39563     720.2124     520.7319
   1422.38037     721.9387     519.4508   1422.38037     721.9387     519.4508
   1422.36511     720.0455     518.2018   1422.36511     720.0455     518.2018
   1422.34985     720.6645     516.8157   1422.34985     720.6645     516.8157
   1422.33459     719.9251     516.5238   1422.33459     719.9251     516.5238
   1422.31934     719.2363     515.7466   1422.31934     719.2363     515.7466
   1422.30408     720.7004     514.3841   1422.30408     720.7004     514.3841
   1422.28882     719.5323     513.5409   1422.28882     719.5323     513.5409
   1422.27356     718.7345     511.8204   1422.27356     718.7345     511.8204
   1422.25830     720.3271     511.7129   1422.25830     720.3271     511.7129
   1422.24304     718.2026     511.1799   1422.24304     718.2026     511.1799
   1422.22778     718.7845     509.6938   1422.22778     718.7845     509.6938
   1422.21252     719.5557     507.8206   1422.21252     719.5557     507.8206
   1422.19727     719.0842     507.5311   1422.19727     719.0842     507.5311
   1422.18201     718.6069     506.3201   1422.18201     718.6069     506.3201
   1422.16675     718.4344     505.0620   1422.16675     718.4344     505.0620
   1422.15149     719.1775     504.6678   1422.15149     719.1775     504.6678
   1422.13623     719.1689     503.0482   1422.13623     719.1689     503.0482
   1422.12097     719.3389     503.1888   1422.12097     719.3389     503.1888
   1422.10571     719.8535     501.2598   1422.10571     719.8535     501.2598
   1422.09045     718.6797     500.3482   1422.09045     718.6797     500.3482
   1422.07520     719.2076     499.6934   1422.07520     719.2076     499.6934
   1422.05994     718.4678     498.9824   1422.05994     718.4678     498.9824
   1422.04468     718.3483     497.9369   1422.04468     718.3483     497.9369
   1422.02942     717.3135     497.1750   1422.02942     717.3135     497.1750
   1422.01416     717.6588     495.1219   1422.01416     717.6588     495.1219
   1421.99890     717.4261     495.3075   1421.99890     717.4261     495.3075
   1421.98364     718.3573     494.3549   1421.98364     718.3573     494.3549
   1421.96838     718.2419     493.4635   1421.96838     718.2419     493.4635
   1421.95312     717.2755     492.1890   1421.95312     717.2755     492.1890
   1421.93787     718.9948     490.8799   1421.93787     718.9948     490.8799
   1421.92261     718.0219     490.0377   1421.92261     718.0219     490.0377
   1421.90735     718.0715     488.9202   1421.90735     718.0715     488.9202
   1421.89209     717.4274     487.8830   1421.89209     717.4274     487.8830
   1421.87683     717.7903     487.4418   1421.87683     717.7903     487.4418
   1421.86157     716.1205     486.3753   1421.86157     716.1205     486.3753
   1421.84631     716.7661     485.2166   1421.84631     716.7661     485.2166
   1421.83105     716.7369     484.4567   1421.83105     716.7369     484.4567
   1421.81580     718.3557     483.6424   1421.81580     718.3557     483.6424
   1421.80054     715.4135     483.2243   1421.80054     715.4135     483.2243
   1421.78528     716.2420     481.6441   1421.78528     716.2420     481.6441
   1421.77002     716.6985     481.6775   1421.77002     716.6985     481.6775
   1421.75476     716.8188     480.1986   1421.75476     716.8188     480.1986
   1421.73950     715.9013     479.1901   1421.73950     715.9013     479.1901
   1421.72424     716.4663     478.5306   1421.72424     716.4663     478.5306
   1421.70898     716.1663     477.3217   1421.70898     716.1663     477.3217
   1421.69373     715.1112     476.1509   1421.69373     715.1112     476.1509
   1421.67847     715.2074     475.9976   1421.67847     715.2074     475.9976
   1421.66321     715.3935     473.8041   1421.66321     715.3935     473.8041
   1421.64795     716.0792     473.6315   1421.64795     716.0792     473.6315
   1421.63269     715.6384     472.7682   1421.63269     715.6384     472.7682
   1421.61743     715.8163     471.6491   1421.61743     715.8163     471.6491
   1421.60217     715.0744     472.0320   1421.60217     715.0744     472.0320
   1421.58691     715.3616     470.3513   1421.58691     715.3616     470.3513
   1421.57166     715.9194     469.0707   1421.57166     715.9194     469.0707
   1421.55640     715.3262     468.1913   1421.55640     715.3262     468.1913
   1421.54114     714.2264     467.7967   1421.54114     714.2264     467.7967
   1421.52588     715.2325     466.6771   1421.52588     715.2325     466.6771
   1421.51062     714.0298     466.5227   1421.51062     714.0298     466.5227
   1421.49536     714.3356     464.8617   1421.49536     714.3356     464.8617
   1421.48010     714.2161     463.6131   1421.48010     714.2161     463.6131
   1421.46484     714.4793     463.7509   1421.46484     714.4793     463.7509
   1421.44958     713.0203     461.9794   1421.44958     713.0203     461.9794
   1421.43433     713.8528     461.1608   1421.43433     713.8528     461.1608
   1421.41907     713.6872     459.8741   1421.41907     713.6872     459.8741
   1421.40381     714.6374     460.4460   1421.40381     714.6374     460.4460
   1421.38855     713.0411     458.9503   1421.38855     713.0411     458.9503
   1421.37329     712.8903     458.9042   1421.37329     712.8903     458.9042
   1421.35803     713.6358     457.4689   1421.35803     713.6358     457.4689
   1421.34277     712.2897     457.2279   1421.34277     712.2897     457.2279
   1421.32751     712.4766     455.6155   1421.32751     712.4766     455.6155
   1421.31226     713.0301     454.5135   1421.31226     713.0301     454.5135
   1421.29700     712.8189     454.1933   1421.29700     712.8189     454.1933
   1421.28174     712.2845     452.8170   1421.28174     712.2845     452.8170
   1421.26648     711.7457     452.1431   1421.26648     711.7457     452.1431
   1421.25122     713.8812     451.7713   1421.25122     713.8812     451.7713
   1421.23596     712.0320     451.2024   1421.23596     712.0320     451.2024
   1421.22070     711.3239     449.6753   1421.22070     711.3239     449.6753
   1421.20544     711.3575     449.2682   1421.20544     711.3575     449.2682
   1421.19019     711.1866     448.1172   1421.19019     711.1866     448.1172
   1421.17493     710.4257     447.5273   1421.17493     710.4257     447.5273
   1421.15967     711.3455     446.3904   1421.15967     711.3455     446.3904
   1421.14441     710.2751     446.2505   1421.14441     710.2751     446.2505
   1421.12915     709.1298     444.9874   1421.12915     709.1298     444.9874
   1421.11389     710.5226     444.3909   1421.11389     710.5226     444.3909
   1421.09863     710.0082     443.4575   1421.09863     710.0082     443.4575
   1421.08337     709.1512     442.0464   1421.08337     709.1512     442.0464
   1421.06812     709.3409     441.9337   1421.06812     709.3409     441.9337
   1421.05286     708.2838     441.1434   1421.05286     708.2838     441.1434
   1421.03760     708.8118     440.2566   1421.03760     708.8118     440.2566
   1421.02234     708.2728     439.2013   1421.02234     708.2728     439.2013
   1421.00708     709.4436     439.2065   1421.00708     709.4436     439.2065
   1420.99182     710.0882     437.9962   1420.99182     710.0882     437.9962
   1420.97656     709.9913     438.0810   1420.97656     709.9913     438.0810
   1420.96130     709.3411     436.8813   1420.96130     709.3411     436.8813
   1420.94604     708.5089     435.9236   1420.94604     708.5089     435.9236
   1420.93079     707.0744     435.6979   1420.93079     707.0744     435.6979
   1420.91553     708.5062     435.6935   1420.91553     708.5062     435.6935
   1420.90027     708.7490     434.2058   1420.90027     708.7490     434.2058
   1420.88501     708.1437     433.1194   1420.88501     708.1437     433.1194
   1420.86975     708.5609     432.5378   1420.86975     708.5609     432.5378
   1420.85449     707.1008     431.8176   1420.85449     707.1008     431.8176
   1420.83923     707.1418     432.1781   1420.83923     707.1418     432.1781
   1420.82397     707.2607     430.6944   1420.82397     707.2607     430.6944
   1420.80872     708.2546     430.4587   1420.80872     708.2546     430.4587
   1420.79346     706.6539     430.6796   1420.79346     706.6539     430.6796
   1420.77820     707.5588     428.8439   1420.77820     707.5588     428.8439
   1420.76294     707.6450     428.7930   1420.76294     707.6450     428.7930
   1420.74768     707.8104     428.5123   1420.74768     707.8104     428.5123
   1420.73242     707.2291     427.7397   1420.73242     707.2291     427.7397
   1420.71716     707.6577     426.9093   1420.71716     707.6577     426.9093
   1420.70190     706.5897     426.6432   1420.70190     706.5897     426.6432
   1420.68665     707.6641     426.4999   1420.68665     707.6641     426.4999
   1420.67139     707.4766     425.1730   1420.67139     707.4766     425.1730
   1420.65613     708.3689     425.5508   1420.65613     708.3689     425.5508
   1420.64087     709.1816     425.0314   1420.64087     709.1816     425.0314
   1420.62561     708.5635     424.3875   1420.62561     708.5635     424.3875
   1420.61035     708.4628     423.1443   1420.61035     708.4628     423.1443
   1420.59509     708.5651     423.9175   1420.59509     708.5651     423.9175
   1420.57983     709.1223     423.6828   1420.57983     709.1223     423.6828
   1420.56458     710.9878     424.0577   1420.56458     710.9878     424.0577
   1420.54932     713.4768     424.3222   1420.54932     713.4768     424.3222
   1420.53406     714.8242     424.8549   1420.53406     714.8242     424.8549
   1420.51880     719.7852     426.4606   1420.51880     719.7852     426.4606
   1420.50354     721.1923     428.6556   1420.50354     721.1923     428.6556
   1420.48828     726.5116     430.3187   1420.48828     726.5116     430.3187
   1420.47302     734.5859     435.6394   1420.47302     734.5859     435.6394
   1420.45776     747.2634     441.0289   1420.45776     747.2634     441.0289
   1420.44250     768.3121     452.5549   1420.44250     768.3121     452.5549
   1420.42725     798.6846     470.0782   1420.42725     798.6846     470.0782
   1420.41199     831.8417     488.1800   1420.41199     831.8417     488.1800
   1420.39673     867.0672     506.1905   1420.39673     867.0672     506.1905
   1420.38147     943.8568     549.8656   1420.38147     943.8568     549.8656
   1420.36621    1195.5654     691.7421   1420.36621    1195.5654     691.7421
   1420.35095    1672.2664     961.9249   1420.35095    1672.2664     961.9249
   1420.33569    1975.5392    1134.8667   1420.33569    1975.5392    1134.8667
   1420.32043    2103.6846    1203.3096   1420.32043    2103.6846    1203.3096
   1420.30518    2442.5010    1395.6744   1420.30518    2442.5010    1395.6744
   1420.28992    2601.0103    1487.9442   1420.28992    2601.0103    1487.9442
   1420.27466    2733.3704    1560.8441   1420.27466    2733.3704    1560.8441
   1420.25940    2877.6101    1635.9580   1420.25940    2877.6101    1635.9580
   1420.24414    2272.4082    1296.6821   1420.24414    2272.4082    1296.6821
   1420.22888    1572.0868     902.0616   1420.22888    1572.0868     902.0616
   1420.21362    1057.2521     608.2338   1420.21362    1057.2521     608.2338
   1420.19836     850.1895     491.8058   1420.19836     850.1895     491.8058
   1420.18311     774.8593     448.8407   1420.18311     774.8593     448.8407
   1420.16785     741.5325     430.1718   1420.16785     741.5325     430.1718
   1420.15259     725.3690     420.1832   1420.15259     725.3690     420.1832
   1420.13733     717.3113     415.5938   1420.13733     717.3113     415.5938
   1420.12207     710.6625     411.8388   1420.12207     710.6625     411.8388
   1420.10681     707.9713     408.3234   1420.10681     707.9713     408.3234
   1420.09155     704.4844     407.1614   1420.09155     704.4844     407.1614
   1420.07629     702.0069     405.1510   1420.07629     702.0069     405.1510
   1420.06104     699.7072     404.1454   1420.06104     699.7072     404.1454
   1420.04578     698.8596     403.1138   1420.04578     698.8596     403.1138
   1420.03052     698.2139     402.1625   1420.03052     698.2139     402.1625
   1420.01526     698.4863     401.8374   1420.01526     698.4863     401.8374
   1420.00000     699.2912     402.6078   1420.00000     699.2912     402.6078
   1419.98474     700.0957     403.3784   1419.98474     700.0957     403.3784
   1419.96948     698.6750     400.3364   1419.96948     698.6750     400.3364
   1419.95422     697.5185     399.6679   1419.95422     697.5185     399.6679
   1419.93896     695.6184     399.0047   1419.93896     695.6184     399.0047
   1419.92371     695.1178     397.8146   1419.92371     695.1178     397.8146
   1419.90845     694.6865     398.1062   1419.90845     694.6865     398.1062
   1419.89319     695.5698     397.9723   1419.89319     695.5698     397.9723
   1419.87793     695.9228     397.6594   1419.87793     695.9228     397.6594
   1419.86267     695.0627     396.9347   1419.86267     695.0627     396.9347
   1419.84741     694.8618     396.7107   1419.84741     694.8618     396.7107
   1419.83215     695.8926     395.6212   1419.83215     695.8926     395.6212
   1419.81689     695.1781     396.1727   1419.81689     695.1781     396.1727
   1419.80164     695.2218     395.1333   1419.80164     695.2218     395.1333
   1419.78638     694.2791     394.9450   1419.78638     694.2791     394.9450
   1419.77112     694.0761     394.5192   1419.77112     694.0761     394.5192
   1419.75586     695.1925     394.3598   1419.75586     695.1925     394.3598
   1419.74060     694.5989     393.7096   1419.74060     694.5989     393.7096
   1419.72534     694.3626     393.9672   1419.72534     694.3626     393.9672
   1419.71008     694.7518     393.6623   1419.71008     694.7518     393.6623
   1419.69482     693.8392     393.1071   1419.69482     693.8392     393.1071
   1419.67957     694.9965     393.6102   1419.67957     694.9965     393.6102
   1419.66431     694.6450     392.8312   1419.66431     694.6450     392.8312
   1419.64905     693.8459     393.3101   1419.64905     693.8459     393.3101
   1419.63379     695.3398     392.6933   1419.63379     695.3398     392.6933
   1419.61853     694.7504     392.9173   1419.61853     694.7504     392.9173
   1419.60327     694.6465     391.7901   1419.60327     694.6465     391.7901
   1419.58801     695.5133     392.6534   1419.58801     695.5133     392.6534
   1419.57275     695.9343     392.2513   1419.57275     695.9343     392.2513
   1419.55750     695.3276     392.0828   1419.55750     695.3276     392.0828
   1419.54224     694.5693     392.1722   1419.54224     694.5693     392.1722
   1419.52698     696.1539     391.5280   1419.52698     696.1539     391.5280
   1419.51172     696.3856     392.2603   1419.51172     696.3856     392.2603
   1419.49646     696.4030     391.6442   1419.49646     696.4030     391.6442
   1419.48120     696.1530     391.7386   1419.48120     696.1530     391.7386
   1419.46594     697.0757     391.0356   1419.46594     697.0757     391.0356
   1419.45068     695.7665     391.6516   1419.45068     695.7665     391.6516
   1419.43542     696.9019     391.4999   1419.43542     696.9019     391.4999
   1419.42017     697.7015     391.9782   1419.42017     697.7015     391.9782
   1419.40491     698.1754     390.9677   1419.40491     698.1754     390.9677
   1419.38965     697.5839     391.1980   1419.38965     697.5839     391.1980
   1419.37439     698.4821     391.5284   1419.37439     698.4821     391.5284
   1419.35913     697.0068     391.1363   1419.35913     697.0068     391.1363
   1419.34387     698.4974     391.5105   1419.34387     698.4974     391.5105
   1419.32861     698.9974     392.2047   1419.32861     698.9974     392.2047
   1419.31335     698.7540     391.1908   1419.31335     698.7540     391.1908
   1419.29810     699.0536     392.1350   1419.29810     699.0536     392.1350
   1419.28284     699.1588     391.4954   1419.28284     699.1588     391.4954
   1419.26758     700.5815     391.1049   1419.26758     700.5815     391.1049
   1419.25232     699.7787     391.9214   1419.25232     699.7787     391.9214
   1419.23706     701.2980     392.8838   1419.23706     701.2980     392.8838
   1419.22180     701.5192     391.5220   1419.22180     701.5192     391.5220
   1419.20654     700.7949     392.0606   1419.20654     700.7949     392.0606
   1419.19128     700.8877     391.8210   1419.19128     700.8877     391.8210
   1419.17603     700.8879     392.2989   1419.17603     700.8879     392.2989
   1419.16077     703.1516     392.6031   1419.16077     703.1516     392.6031
   1419.14551     703.0699     392.9734   1419.14551     703.0699     392.9734
   1419.13025     703.5979     392.8383   1419.13025     703.5979     392.8383
   1419.11499     703.8135     392.9713   1419.11499     703.8135     392.9713
   1419.09973     703.5923     393.3372   1419.09973     703.5923     393.3372
   1419.08447     704.4921     393.7508   1419.08447     704.4921     393.7508
   1419.06921     705.0082     394.1049   1419.06921     705.0082     394.1049
   1419.05396     704.4987     393.8235   1419.05396     704.4987     393.8235
   1419.03870     704.7798     393.9560   1419.03870     704.7798     393.9560
   1419.02344     706.8101     394.7939   1419.02344     706.8101     394.7939
   1419.00818     706.3742     394.7652   1419.00818     706.3742     394.7652
   1418.99292     707.2974     395.2147   1418.99292     707.2974     395.2147
   1418.97766     706.4213     394.7342   1418.97766     706.4213     394.7342
   1418.96240     709.0494     394.5809   1418.96240     709.0494     394.5809
   1418.94714     708.0613     395.6407   1418.94714     708.0613     395.6407
   1418.93188     708.9593     395.4438   1418.93188     708.9593     395.4438
   1418.91663     709.0062     396.4025   1418.91663     709.0062     396.4025
   1418.90137     709.4807     396.3673   1418.90137     709.4807     396.3673
   1418.88611     710.5519     396.3120   1418.88611     710.5519     396.3120
   1418.87085     710.8956     396.2780   1418.87085     710.8956     396.2780
   1418.85559     710.6002     397.5779   1418.85559     710.6002     397.5779
   1418.84033     711.7462     398.2986   1418.84033     711.7462     398.2986
   1418.82507     711.9539     398.4219   1418.82507     711.9539     398.4219
   1418.80981     712.8362     398.7099   1418.80981     712.8362     398.7099
   1418.79456     714.4146     398.6288   1418.79456     714.4146     398.6288
   1418.77930     714.1884     398.7761   1418.77930     714.1884     398.7761
   1418.76404     713.8820     399.5401   1418.76404     713.8820     399.5401
   1418.74878     714.8933     399.6935   1418.74878     714.8933     399.6935
   1418.73352     716.9351     400.9514   1418.73352     716.9351     400.9514
   1418.71826     716.7892     400.8498   1418.71826     716.7892     400.8498
   1418.70300     717.3805     400.8821   1418.70300     717.3805     400.8821
   1418.68774     718.5015     401.3921   1418.68774     718.5015     401.3921
   1418.67249     718.6013     401.5971   1418.67249     718.6013     401.5971
   1418.65723     718.6516     402.9382   1418.65723     718.6516     402.9382
   1418.64197     720.3544     402.6790   1418.64197     720.3544     402.6790
   1418.62671     718.8764     403.1635   1418.62671     718.8764     403.1635
   1418.61145     721.5076     404.4594   1418.61145     721.5076     404.4594
   1418.59619     721.5100     404.9079   1418.59619     721.5100     404.9079
   1418.58093     721.7775     405.1663   1418.58093     721.7775     405.1663
   1418.56567     723.3303     405.7008   1418.56567     723.3303     405.7008
   1418.55042     724.1068     406.3966   1418.55042     724.1068     406.3966
   1418.53516     725.0981     406.6407   1418.53516     725.0981     406.6407
   1418.51990     725.7411     407.5318   1418.51990     725.7411     407.5318
   1418.50464     725.7881     407.3298   1418.50464     725.7881     407.3298
   1418.48938     726.3517     407.8027   1418.48938     726.3517     407.8027
   1418.47412     726.8678     409.2957   1418.47412     726.8678     409.2957
   1418.45886     728.0349     409.1408   1418.45886     728.0349     409.1408
   1418.44360     728.4867     410.1888   1418.44360     728.4867     410.1888
   1418.42834     729.0653     409.7863   1418.42834     729.0653     409.7863
   1418.41309     730.4431     411.4243   1418.41309     730.4431     411.4243
   1418.39783     731.6989     412.4009   1418.39783     731.6989     412.4009
   1418.38257     731.3392     412.4651   1418.38257     731.3392     412.4651
   1418.36731     731.8844     413.8026   1418.36731     731.8844     413.8026
   1418.35205     732.3773     414.0182   1418.35205     732.3773     414.0182
   1418.33679     734.2514     414.4810   1418.33679     734.2514     414.4810
   1418.32153     734.6320     414.5079   1418.32153     734.6320     414.5079
   1418.30627     734.8985     415.7770   1418.30627     734.8985     415.7770
   1418.29102     735.2205     416.8440   1418.29102     735.2205     416.8440
   1418.27576     736.7833     417.4606   1418.27576     736.7833     417.4606
   1418.26050     737.4157     418.1354   1418.26050     737.4157     418.1354
   1418.24524     738.0344     418.4094   1418.24524     738.0344     418.4094
   1418.22998     739.6154     419.6180   1418.22998     739.6154     419.6180
   1418.21472     738.7564     420.2649   1418.21472     738.7564     420.2649
   1418.19946     739.8960     420.9584   1418.19946     739.8960     420.9584
   1418.18420     740.1201     422.0410   1418.18420     740.1201     422.0410
   1418.16895     742.7307     421.7552   1418.16895     742.7307     421.7552
   1418.15369     743.1408     423.1405   1418.15369     743.1408     423.1405
   1418.13843     743.9459     423.2825   1418.13843     743.9459     423.2825
   1418.12317     744.7833     424.4633   1418.12317     744.7833     424.4633
   1418.10791     743.9340     425.1178   1418.10791     743.9340     425.1178
   1418.09265     746.7870     426.0402   1418.09265     746.7870     426.0402
   1418.07739     746.8333     426.4671   1418.07739     746.8333     426.4671
   1418.06213     746.7361     428.4937   1418.06213     746.7361     428.4937
   1418.04688     748.5972     428.8579   1418.04688     748.5972     428.8579
   1418.03162     749.7659     428.9581   1418.03162     749.7659     428.9581
   1418.01636     750.7969     430.4581   1418.01636     750.7969     430.4581
   1418.00110     751.6994     431.2380   1418.00110     751.6994     431.2380
   1417.98584     752.4592     431.6367   1417.98584     752.4592     431.6367
   1417.97058     752.7664     431.6926   1417.97058     752.7664     431.6926
   1417.95532     753.7562     433.9746   1417.95532     753.7562     433.9746
   1417.94006     754.3484     434.0779   1417.94006     754.3484     434.0779
   1417.92480     755.2290     435.0621   1417.92480     755.2290     435.0621
   1417.90955     756.2350     435.5865   1417.90955     756.2350     435.5865
   1417.89429     757.3096     436.6077   1417.89429     757.3096     436.6077
   1417.87903     757.5609     437.8268   1417.87903     757.5609     437.8268
   1417.86377     759.2317     439.1395   1417.86377     759.2317     439.1395
   1417.84851     759.9039     439.7065   1417.84851     759.9039     439.7065
   1417.83325     759.8510     440.9624   1417.83325     759.8510     440.9624
   1417.81799     761.4048     441.8462   1417.81799     761.4048     441.8462
   1417.80273     762.5407     442.8156   1417.80273     762.5407     442.8156
   1417.78748     763.7299     443.1384   1417.78748     763.7299     443.1384
   1417.77222     763.3394     444.5580   1417.77222     763.3394     444.5580
   1417.75696     764.4556     444.9550   1417.75696     764.4556     444.9550
   1417.74170     765.3742     446.2234   1417.74170     765.3742     446.2234
   1417.72644     765.1929     446.3818   1417.72644     765.1929     446.3818
   1417.71118     766.5847     447.1904   1417.71118     766.5847     447.1904
   1417.69592     768.2081     448.8198   1417.69592     768.2081     448.8198
   1417.68066     768.3638     449.8179   1417.68066     768.3638     449.8179
   1417.66541     769.1241     450.4641   1417.66541     769.1241     450.4641
   1417.65015     771.2397     452.0443   1417.65015     771.2397     452.0443
   1417.63489     771.2028     452.7777   1417.63489     771.2028     452.7777
   1417.61963     773.2794     453.7569   1417.61963     773.2794     453.7569
   1417.60437     772.3690     453.9203   1417.60437     772.3690     453.9203
   1417.58911     772.5220     455.3510   1417.58911     772.5220     455.3510
   1417.57385     774.2350     456.3311   1417.57385     774.2350     456.3311
   1417.55859     776.0565     457.3257   1417.55859     776.0565     457.3257
   1417.54333     776.5642     458.4040   1417.54333     776.5642     458.4040
   1417.52808     775.8223     459.5162   1417.52808     775.8223     459.5162
   1417.51282     776.3949     460.8109   1417.51282     776.3949     460.8109
   1417.49756     777.9445     462.6719   1417.49756     777.9445     462.6719
   1417.48230     778.5361     462.6965   1417.48230     778.5361     462.6965
   1417.46704     778.3530     463.9543   1417.46704     778.3530     463.9543
   1417.45178     778.3103     464.9634   1417.45178     778.3103     464.9634
   1417.43652     780.1593     466.3292   1417.43652     780.1593     466.3292
   1417.42126     781.1475     466.2656   1417.42126     781.1475     466.2656
   1417.40601     781.6727     467.5913   1417.40601     781.6727     467.5913
   1417.39075     782.3246     468.2041   1417.39075     782.3246     468.2041
   1417.37549     784.3035     469.2865   1417.37549     784.3035     469.2865
   1417.36023     784.2841     469.4053   1417.36023     784.2841     469.4053
   1417.34497     784.6154     470.9610   1417.34497     784.6154     470.9610
   1417.32971     785.7380     472.5078   1417.32971     785.7380     472.5078
   1417.31445     786.2946     473.3214   1417.31445     786.2946     473.3214
   1417.29919     786.8653     474.3070   1417.29919     786.8653     474.3070
   1417.28394     786.9626     475.8066   1417.28394     786.9626     475.8066
   1417.26868     787.5230     476.2097   1417.26868     787.5230     476.2097
   1417.25342     788.9282     477.5797   1417.25342     788.9282     477.5797
   1417.23816     789.0358     478.8694   1417.23816     789.0358     478.8694
   1417.22290     789.5296     479.2944   1417.22290     789.5296     479.2944
   1417.20764     790.8295     480.2488   1417.20764     790.8295     480.2488
   1417.19238     789.8838     481.4444   1417.19238     789.8838     481.4444
   1417.17712     791.8679     482.0409   1417.17712     791.8679     482.0409
   1417.16187     791.9147     483.1572   1417.16187     791.9147     483.1572
   1417.14661     792.4710     483.9874   1417.14661     792.4710     483.9874
   1417.13135     793.0558     484.8513   1417.13135     793.0558     484.8513
   1417.11609     793.6075     485.0265   1417.11609     793.6075     485.0265
   1417.10083     794.0142     486.8531   1417.10083     794.0142     486.8531
   1417.08557     792.7941     488.4879   1417.08557     792.7941     488.4879
   1417.07031     793.6443     488.4365   1417.07031     793.6443     488.4365
   1417.05505     795.4959     489.7223   1417.05505     795.4959     489.7223
   1417.03979     795.8482     490.8619   1417.03979     795.8482     490.8619
   1417.02454     796.2726     491.9422   1417.02454     796.2726     491.9422
   1417.00928     795.8218     492.5558   1417.00928     795.8218     492.5558
   1416.99402     797.4872     493.8700   1416.99402     797.4872     493.8700
   1416.97876     798.8181     494.1333   1416.97876     798.8181     494.1333
   1416.96350     798.6694     495.1584   1416.96350     798.6694     495.1584
   1416.94824     797.9471     496.1180   1416.94824     797.9471     496.1180
   1416.93298     798.0170     496.7394   1416.93298     798.0170     496.7394
   1416.91772     798.2204     497.3001   1416.91772     798.2204     497.3001
   1416.90247     798.2109     498.1187   1416.90247     798.2109     498.1187
   1416.88721     798.9385     498.4157   1416.88721     798.9385     498.4157
   1416.87195     799.5173     498.4168   1416.87195     799.5173     498.4168
   1416.85669     800.0306     500.7318   1416.85669     800.0306     500.7318
   1416.84143     799.5734     501.3108   1416.84143     799.5734     501.3108
   1416.82617     799.4438     501.4587   1416.82617     799.4438     501.4587
   1416.81091     799.1738     503.2539   1416.81091     799.1738     503.2539
   1416.79565     800.1719     503.5174   1416.79565     800.1719     503.5174
   1416.78040     800.2732     504.7359   1416.78040     800.2732     504.7359
   1416.76514     800.8594     504.1685   1416.76514     800.8594     504.1685
   1416.74988     800.7714     505.6075   1416.74988     800.7714     505.6075
   1416.73462     799.9151     506.2243   1416.73462     799.9151     506.2243
   1416.71936     799.8179     506.8152   1416.71936     799.8179     506.8152
   1416.70410     801.6729     507.5822   1416.70410     801.6729     507.5822
   1416.68884     800.6291     508.3984   1416.68884     800.6291     508.3984
   1416.67358     801.3582     508.0821   1416.67358     801.3582     508.0821
   1416.65833     800.2794     509.2123   1416.65833     800.2794     509.2123
   1416.64307     800.3778     509.7763   1416.64307     800.3778     509.7763
   1416.62781     798.6326     510.6310   1416.62781     798.6326     510.6310
   1416.61255     800.4166     511.2958   1416.61255     800.4166     511.2958
   1416.59729     800.7527     510.6535   1416.59729     800.7527     510.6535
   1416.58203     800.4062     512.2825   1416.58203     800.4062     512.2825
   1416.56677     799.0753     512.0459   1416.56677     799.0753     512.0459
   1416.55151     799.9504     512.7213   1416.55151     799.9504     512.7213
   1416.53625     799.6365     513.1045   1416.53625     799.6365     513.1045
   1416.52100     798.6608     512.5245   1416.52100     798.6608     512.5245
   1416.50574     800.3695     513.5280   1416.50574     800.3695     513.5280
   1416.49048     799.0119     514.2125   1416.49048     799.0119     514.2125
   1416.47522     798.8641     514.5441   1416.47522     798.8641     514.5441
   1416.45996     799.2317     515.3771   1416.45996     799.2317     515.3771
   1416.44470     799.6080     515.4313   1416.44470     799.6080     515.4313
   1416.42944     797.7098     515.7974   1416.42944     797.7098     515.7974
   1416.41418     798.1827     516.8138   1416.41418     798.1827     516.8138
   1416.39893     797.9012     516.1599   1416.39893     797.9012     516.1599
   1416.38367     795.8590     516.4134   1416.38367     795.8590     516.4134
   1416.36841     797.1992     515.9512   1416.36841     797.1992     515.9512
   1416.35315     795.2368     516.6774   1416.35315     795.2368     516.6774
   1416.33789     795.9736     517.9380   1416.33789     795.9736     517.9380
   1416.32263     797.1589     517.3589   1416.32263     797.1589     517.3589
   1416.30737     794.3704     517.1448   1416.30737     794.3704     517.1448
   1416.29211     794.4175     518.8677   1416.29211     794.4175     518.8677
   1416.27686     794.8763     518.1467   1416.27686     794.8763     518.1467
   1416.26160     794.0822     518.1813   1416.26160     794.0822     518.1813
   1416.24634     793.3148     518.3076   1416.24634     793.3148     518.3076
   1416.23108     793.9561     518.2444   1416.23108     793.9561     518.2444
   1416.21582     793.1666     517.8724   1416.21582     793.1666     517.8724
   1416.20056     792.6752     518.8542   1416.20056     792.6752     518.8542
   1416.18530     790.5777     518.9033   1416.18530     790.5777     518.9033
   1416.17004     792.7897     519.7146   1416.17004     792.7897     519.7146
   1416.15479     792.0516     519.3355   1416.15479     792.0516     519.3355
   1416.13953     789.7194     517.9340   1416.13953     789.7194     517.9340
   1416.12427     790.4882     518.3252   1416.12427     790.4882     518.3252
   1416.10901     788.8002     519.4155   1416.10901     788.8002     519.4155
   1416.09375     789.0305     518.6195   1416.09375     789.0305     518.6195
   1416.07849     788.1241     518.4006   1416.07849     788.1241     518.4006
   1416.06323     786.5321     519.0540   1416.06323     786.5321     519.0540
   1416.04797     787.9091     518.3712   1416.04797     787.9091     518.3712
   1416.03271     786.4598     518.9566   1416.03271     786.4598     518.9566
   1416.01746     785.2939     518.3838   1416.01746     785.2939     518.3838
   1416.00220     785.4938     518.8036   1416.00220     785.4938     518.8036
   1415.98694     784.6248     518.4648   1415.98694     784.6248     518.4648
   1415.97168     782.5696     518.4909   1415.97168     782.5696     518.4909
   1415.95642     783.1261     517.9866   1415.95642     783.1261     517.9866
   1415.94116     782.7115     518.1585   1415.94116     782.7115     518.1585
   1415.92590     781.6777     518.5922   1415.92590     781.6777     518.5922
   1415.91064     781.0059     518.1962   1415.91064     781.0059     518.1962
   1415.89539     779.9333     517.8643   1415.89539     779.9333     517.8643
   1415.88013     779.2835     518.2090   1415.88013     779.2835     518.2090
   1415.86487     778.9939     517.7531   1415.86487     778.9939     517.7531
   1415.84961     777.2810     518.3113   1415.84961     777.2810     518.3113
   1415.83435     776.7667     517.9873   1415.83435     776.7667     517.9873
   1415.81909     776.4262     517.0513   1415.81909     776.4262     517.0513
   1415.80383     774.0002     517.6588   1415.80383     774.0002     517.6588
   1415.78857     774.2274     517.4113   1415.78857     774.2274     517.4113
   1415.77332     773.8259     516.9047   1415.77332     773.8259     516.9047
   1415.75806     773.6230     516.8716   1415.75806     773.6230     516.8716
   1415.74280     771.7773     516.7686   1415.74280     771.7773     516.7686
   1415.72754     771.5240     516.1979   1415.72754     771.5240     516.1979
   1415.71228     770.3524     515.7497   1415.71228     770.3524     515.7497
   1415.69702     769.6560     516.9434   1415.69702     769.6560     516.9434
   1415.68176     768.1751     516.2081   1415.68176     768.1751     516.2081
   1415.66650     768.2973     515.4738   1415.66650     768.2973     515.4738
   1415.65125     766.6131     514.8738   1415.65125     766.6131     514.8738
   1415.63599     766.8205     514.8934   1415.63599     766.8205     514.8934
   1415.62073     765.5353     514.3681   1415.62073     765.5353     514.3681
   1415.60547     764.0370     515.1584   1415.60547     764.0370     515.1584
   1415.59021     763.6544     514.9137   1415.59021     763.6544     514.9137
   1415.57495     762.3660     514.3017   1415.57495     762.3660     514.3017
   1415.55969     762.6137     513.8393   1415.55969     762.6137     513.8393
   1415.54443     761.0094     513.5067   1415.54443     761.0094     513.5067
   1415.52917     758.9461     513.3641   1415.52917     758.9461     513.3641
   1415.51392     757.7261     512.9382   1415.51392     757.7261     512.9382
   1415.49866     757.9319     513.0082   1415.49866     757.9319     513.0082
   1415.48340     756.5201     513.0446   1415.48340     756.5201     513.0446
   1415.46814     755.9453     513.1149   1415.46814     755.9453     513.1149
   1415.45288     755.9643     512.2005   1415.45288     755.9643     512.2005
   1415.43762     752.6903     511.5138   1415.43762     752.6903     511.5138
   1415.42236     752.0822     512.1774   1415.42236     752.0822     512.1774
   1415.40710     750.0899     511.0548   1415.40710     750.0899     511.0548
   1415.39185     750.9037     510.8810   1415.39185     750.9037     510.8810
   1415.37659     748.7656     510.0595   1415.37659     748.7656     510.0595
   1415.36133     748.8285     510.9525   1415.36133     748.8285     510.9525
   1415.34607     746.8503     509.7427   1415.34607     746.8503     509.7427
   1415.33081     747.0994     509.6443   1415.33081     747.0994     509.6443
   1415.31555     745.5750     509.1547   1415.31555     745.5750     509.1547
   1415.30029     743.5701     508.2291   1415.30029     743.5701     508.2291
   1415.28503     742.7218     507.5847   1415.28503     742.7218     507.5847
   1415.26978     742.1083     507.5800   1415.26978     742.1083     507.5800
   1415.25452     740.0010     506.6030   1415.25452     740.0010     506.6030
   1415.23926     739.4309     506.6937   1415.23926     739.4309     506.6937
   1415.22400     739.2134     506.6616   1415.22400     739.2134     506.6616
   1415.20874     735.8733     506.0333   1415.20874     735.8733     506.0333
   1415.19348     734.4984     505.3366   1415.19348     734.4984     505.3366
   1415.17822     734.2510     505.2321   1415.17822     734.2510     505.2321
   1415.16296     731.5608     504.9171   1415.16296     731.5608     504.9171
   1415.14771     732.1188     504.7516   1415.14771     732.1188     504.7516
   1415.13245     729.6036     503.1592   1415.13245     729.6036     503.1592
   1415.11719     728.2539     502.6888   1415.11719     728.2539     502.6888
   1415.10193     726.7308     503.1366   1415.10193     726.7308     503.1366
   1415.08667     727.2133     501.2057   1415.08667     727.2133     501.2057
   1415.07141     724.8627     501.1873   1415.07141     724.8627     501.1873
   1415.05615     725.0414     501.9936   1415.05615     725.0414     501.9936
   1415.04089     720.9165     500.5752   1415.04089     720.9165     500.5752
   1415.02563     720.5469     500.0967   1415.02563     720.5469     500.0967
   1415.01038     719.4054     498.9297   1415.01038     719.4054     498.9297
   1414.99512     718.1794     498.8716   1414.99512     718.1794     498.8716
   1414.97986     716.5152     497.7942   1414.97986     716.5152     497.7942
   1414.96460     715.8802     497.9868   1414.96460     715.8802     497.9868
   1414.94934     714.0280     497.7581   1414.94934     714.0280     497.7581
   1414.93408     712.0146     496.9015   1414.93408     712.0146     496.9015
   1414.91882     709.5190     495.8065   1414.91882     709.5190     495.8065
   1414.90356     708.4015     494.8137   1414.90356     708.4015     494.8137
   1414.88831     707.2293     494.8958   1414.88831     707.2293     494.8958
   1414.87305     705.1657     493.5927   1414.87305     705.1657     493.5927
   1414.85779     703.0859     493.0972   1414.85779     703.0859     493.0972
   1414.84253     703.1756     493.2755   1414.84253     703.1756     493.2755
   1414.82727     701.7846     491.8161   1414.82727     701.7846     491.8161
   1414.81201     699.2926     490.6736   1414.81201     699.2926     490.6736
   1414.79675     697.1075     490.1599   1414.79675     697.1075     490.1599
   1414.78149     696.1798     489.7566   1414.78149     696.1798     489.7566
   1414.76624     692.9975     488.4667   1414.76624     692.9975     488.4667
   1414.75098     691.9001     487.5577   1414.75098     691.9001     487.5577
   1414.73572     690.1967     486.3660   1414.73572     690.1967     486.3660
   1414.72046     689.1054     485.9795   1414.72046     689.1054     485.9795
   1414.70520     687.2250     484.5367   1414.70520     687.2250     484.5367
   1414.68994     685.8237     484.1956   1414.68994     685.8237     484.1956
   1414.67468     683.7864     483.6942   1414.67468     683.7864     483.6942
   1414.65942     681.5136     482.4354   1414.65942     681.5136     482.4354
   1414.64417     679.9877     481.0822   1414.64417     679.9877     481.0822
   1414.62891     677.2029     480.1911   1414.62891     677.2029     480.1911
   1414.61365     677.1243     480.1577   1414.61365     677.1243     480.1577
   1414.59839     674.2180     478.8457   1414.59839     674.2180     478.8457
   1414.58313     672.6229     477.5675   1414.58313     672.6229     477.5675
   1414.56787     671.1259     478.0716   1414.56787     671.1259     478.0716
   1414.55261     667.4289     475.9308   1414.55261     667.4289     475.9308
   1414.53735     666.2045     475.2704   1414.53735     666.2045     475.2704
   1414.52209     663.7426     474.8353   1414.52209     663.7426     474.8353
   1414.50684     661.9516     473.0368   1414.50684     661.9516     473.0368
   1414.49158     659.5085     471.7422   1414.49158     659.5085     471.7422
   1414.47632     658.8276     470.8486   1414.47632     658.8276     470.8486
   1414.46106     655.7818     469.3238   1414.46106     655.7818     469.3238
   1414.44580     653.1151     469.1892   1414.44580     653.1151     469.1892
   1414.43054     652.9026     468.7435   1414.43054     652.9026     468.7435
   1414.41528     649.6335     466.6444   1414.41528     649.6335     466.6444
   1414.40002     647.6939     465.2601   1414.40002     647.6939     465.2601
   1414.38477     644.8020     463.5553   1414.38477     644.8020     463.5553
   1414.36951     643.9427     463.4023   1414.36951     643.9427     463.4023
   1414.35425     640.3177     461.8473   1414.35425     640.3177     461.8473
   1414.33899     639.1300     460.5606   1414.33899     639.1300     460.5606
   1414.32373     636.2512     458.9167   1414.32373     636.2512     458.9167
   1414.30847     633.5963     458.0197   1414.30847     633.5963     458.0197
   1414.29321     633.2048     457.1813   1414.29321     633.2048     457.1813
   1414.27795     629.8120     455.6318   1414.27795     629.8120     455.6318
   1414.26270     627.3638     454.4055   1414.26270     627.3638     454.4055
   1414.24744     625.1905     453.3506   1414.24744     625.1905     453.3506
   1414.23218     622.3629     451.4218   1414.23218     622.3629     451.4218
   1414.21692     620.1731     449.7922   1414.21692     620.1731     449.7922
   1414.20166     618.0040     449.0683   1414.20166     618.0040     449.0683
   1414.18640     615.3097     448.6543   1414.18640     615.3097     448.6543
   1414.17114     612.9338     446.1369   1414.17114     612.9338     446.1369
   1414.15588     610.8757     445.4537   1414.15588     610.8757     445.4537
   1414.14062     607.3463     443.2477   1414.14062     607.3463     443.2477
   1414.12537     605.5645     442.8169   1414.12537     605.5645     442.8169
   1414.11011     602.4946     441.2029   1414.11011     602.4946     441.2029
   1414.09485     600.5209     440.1278   1414.09485     600.5209     440.1278
   1414.07959     598.3322     438.3106   1414.07959     598.3322     438.3106
   1414.06433     594.9406     436.8802   1414.06433     594.9406     436.8802
   1414.04907     593.6563     435.7400   1414.04907     593.6563     435.7400
   1414.03381     591.1293     434.5345   1414.03381     591.1293     434.5345
   1414.01855     588.8776     432.5145   1414.01855     588.8776     432.5145
   1414.00330     600.8665     437.3158   1414.00330     600.8665     437.3158
   1413.98804     584.4489     430.3926   1413.98804     584.4489     430.3926
   1413.97278     580.7162     427.8167   1413.97278     580.7162     427.8167
   1413.95752     578.0104     427.0508   1413.95752     578.0104     427.0508
   1413.94226     575.8105     425.1441   1413.94226     575.8105     425.1441
   1413.92700     573.0528     423.4129   1413.92700     573.0528     423.4129
   1413.91174     570.3733     422.3937   1413.91174     570.3733     422.3937
   1413.89648     566.8729     421.0959   1413.89648     566.8729     421.0959
   1413.88123     564.0107     418.7403   1413.88123     564.0107     418.7403
   1413.86597     561.3136     417.9375   1413.86597     561.3136     417.9375
   1413.85071     560.0859     416.5417   1413.85071     560.0859     416.5417
   1413.83545     555.8307     414.7143   1413.83545     555.8307     414.7143
   1413.82019     552.8385     412.7045   1413.82019     552.8385     412.7045
   1413.80493     550.8909     411.1040   1413.80493     550.8909     411.1040
   1413.78967     547.6720     409.9339   1413.78967     547.6720     409.9339
   1413.77441     546.2195     408.1801   1413.77441     546.2195     408.1801
   1413.75916     543.5239     407.3376   1413.75916     543.5239     407.3376
   1413.74390     539.6057     405.3915   1413.74390     539.6057     405.3915
   1413.72864     537.6180     403.3857   1413.72864     537.6180     403.3857
   1413.71338     535.0521     401.9679   1413.71338     535.0521     401.9679
   1413.69812     532.8616     401.2039   1413.69812     532.8616     401.2039
   1413.68286     529.2061     399.1198   1413.68286     529.2061     399.1198
   1413.66760     526.3775     397.3153   1413.66760     526.3775     397.3153
   1413.65234     524.1828     395.5984   1413.65234     524.1828     395.5984
   1413.63708     521.5645     393.7584   1413.63708     521.5645     393.7584
   1413.62183     518.2696     392.9981   1413.62183     518.2696     392.9981
   1413.60657     515.7504     391.0734   1413.60657     515.7504     391.0734
   1413.59131     513.0662     390.1974   1413.59131     513.0662     390.1974
   1413.57605     510.4444     388.3494   1413.57605     510.4444     388.3494
   1413.56079     507.5815     386.1200   1413.56079     507.5815     386.1200
   1413.54553     504.9032     385.2195   1413.54553     504.9032     385.2195
   1413.53027     502.4990     383.4771   1413.53027     502.4990     383.4771
   1413.51501     499.2904     381.7278   1413.51501     499.2904     381.7278
   1413.49976     496.4855     379.8820   1413.49976     496.4855     379.8820
   1413.48450     494.4103     378.6593   1413.48450     494.4103     378.6593
   1413.46924     492.6678     377.1778   1413.46924     492.6678     377.1778
   1413.45398     489.3297     375.6332   1413.45398     489.3297     375.6332
   1413.43872     485.5765     373.9444   1413.43872     485.5765     373.9444
   1413.42346     483.5734     373.0338   1413.42346     483.5734     373.0338
   1413.40820     481.1505     371.6673   1413.40820     481.1505     371.6673
   1413.39294     478.9469     369.9864   1413.39294     478.9469     369.9864
   1413.37769     476.2835     367.9562   1413.37769     476.2835     367.9562
   1413.36243     472.9310     366.0904   1413.36243     472.9310     366.0904
   1413.34717     470.9052     365.4167   1413.34717     470.9052     365.4167
   1413.33191     468.5953     363.8351   1413.33191     468.5953     363.8351
   1413.31665     465.8278     362.0207   1413.31665     465.8278     362.0207
   1413.30139     463.5889     361.1201   1413.30139     463.5889     361.1201
   1413.28613     460.3804     359.6479   1413.28613     460.3804     359.6479
   1413.27087     458.8093     358.4819   1413.27087     458.8093     358.4819
   1413.25562     456.6026     356.9586   1413.25562     456.6026     356.9586
   1413.24036     453.7213     355.7757   1413.24036     453.7213     355.7757
   1413.22510     450.9202     354.1571   1413.22510     450.9202     354.1571
   1413.20984     448.9051     353.2011   1413.20984     448.9051     353.2011
   1413.19458     446.5928     351.8835   1413.19458     446.5928     351.8835
   1413.17932     443.6646     351.0854   1413.17932     443.6646     351.0854
   1413.16406     442.5644     349.6983   1413.16406     442.5644     349.6983
   1413.14880     439.5943     347.6334   1413.14880     439.5943     347.6334
   1413.13354     436.8614     347.0677   1413.13354     436.8614     347.0677
   1413.11829     434.5340     345.8675   1413.11829     434.5340     345.8675
   1413.10303     431.8903     343.9971   1413.10303     431.8903     343.9971
   1413.08777     430.5874     343.8953   1413.08777     430.5874     343.8953
   1413.07251     428.3994     342.7789   1413.07251     428.3994     342.7789
   1413.05725     426.0738     341.7657   1413.05725     426.0738     341.7657
   1413.04199     424.3613     340.0995   1413.04199     424.3613     340.0995
   1413.02673     421.9831     338.7623   1413.02673     421.9831     338.7623
   1413.01147     420.3817     338.3156   1413.01147     420.3817     338.3156
   1412.99622     418.2097     337.0500   1412.99622     418.2097     337.0500
   1412.98096     415.4940     336.4024   1412.98096     415.4940     336.4024
   1412.96570     414.2142     335.2857   1412.96570     414.2142     335.2857
   1412.95044     412.3449     334.6185   1412.95044     412.3449     334.6185
   1412.93518     410.7623     333.4042   1412.93518     410.7623     333.4042
   1412.91992     408.4196     333.6331   1412.91992     408.4196     333.6331
   1412.90466     406.7376     332.7083   1412.90466     406.7376     332.7083
   1412.88940     404.9463     331.3734   1412.88940     404.9463     331.3734
   1412.87415     402.9818     330.9924   1412.87415     402.9818     330.9924
   1412.85889     402.1615     330.6818   1412.85889     402.1615     330.6818
   1412.84363     400.1980     330.1895   1412.84363     400.1980     330.1895
   1412.82837     398.5044     329.0761   1412.82837     398.5044     329.0761
   1412.81311     396.5417     328.3599   1412.81311     396.5417     328.3599
   1412.79785     396.1724     328.2475   1412.79785     396.1724     328.2475
   1412.78259     394.3456     327.6317   1412.78259     394.3456     327.6317
   1412.76733     392.6855     326.8856   1412.76733     392.6855     326.8856
   1412.75208     391.2940     327.1013   1412.75208     391.2940     327.1013
   1412.73682     389.8646     326.9277   1412.73682     389.8646     326.9277
   1412.72156     389.4596     326.3772   1412.72156     389.4596     326.3772
   1412.70630     387.1468     326.3796   1412.70630     387.1468     326.3796
   1412.69104     386.9402     326.1763   1412.69104     386.9402     326.1763
   1412.67578     385.6690     325.9646   1412.67578     385.6690     325.9646
   1412.66052     384.4203     325.6605   1412.66052     384.4203     325.6605
   1412.64526     383.5840     326.0768   1412.64526     383.5840     326.0768
   1412.63000     382.4648     325.4062   1412.63000     382.4648     325.4062
   1412.61475     381.6131     325.8006   1412.61475     381.6131     325.8006
   1412.59949     380.6782     325.7628   1412.59949     380.6782     325.7628
   1412.58423     379.9353     325.9901   1412.58423     379.9353     325.9901
   1412.56897     378.7808     326.2657   1412.56897     378.7808     326.2657
   1412.55371     378.5515     326.0838   1412.55371     378.5515     326.0838
   1412.53845     377.4034     326.4352   1412.53845     377.4034     326.4352
   1412.52319     377.2814     326.8444   1412.52319     377.2814     326.8444
   1412.50793     375.8131     327.4751   1412.50793     375.8131     327.4751
   1412.49268     375.9296     327.7833   1412.49268     375.9296     327.7833
   1412.47742     375.3317     328.4017   1412.47742     375.3317     328.4017
   1412.46216     374.5394     329.0687   1412.46216     374.5394     329.0687
   1412.44690     374.2888     329.0034   1412.44690     374.2888     329.0034
   1412.43164     374.3831     329.2164   1412.43164     374.3831     329.2164
   1412.41638     373.6427     330.2416   1412.41638     373.6427     330.2416
   1412.40112     374.0876     331.9657   1412.40112     374.0876     331.9657
   1412.38586     373.4614     331.8116   1412.38586     373.4614     331.8116
   1412.37061     374.4072     332.5583   1412.37061     374.4072     332.5583
   1412.35535     373.5816     333.3160   1412.35535     373.5816     333.3160
   1412.34009     373.2046     334.2345   1412.34009     373.2046     334.2345
   1412.32483     373.5590     335.4268   1412.32483     373.5590     335.4268
   1412.30957     373.6222     336.2041   1412.30957     373.6222     336.2041
   1412.29431     373.5871     337.4726   1412.29431     373.5871     337.4726
   1412.27905     373.7699     338.1752   1412.27905     373.7699     338.1752
   1412.26379     373.9838     339.2532   1412.26379     373.9838     339.2532
   1412.24854     374.8634     340.6294   1412.24854     374.8634     340.6294
   1412.23328     374.9101     341.5015   1412.23328     374.9101     341.5015
   1412.21802     375.5107     342.6840   1412.21802     375.5107     342.6840
   1412.20276     376.1333     344.2742   1412.20276     376.1333     344.2742