#     FILENAME=!Skynet_57528_lach-hhg-140_20462_20964.cyb.fits
#     BASENAME=Skynet_57528_lach-hhg-140_20462_20964
#     SRC_NAME=lach-hhg-140
#     OBSERVER=hhgmadison16_9500
#     DATE_OBS=2016-05-20T17:17:30.680
#        OBSID=20462
#      SCANNUM=20964
#          MJD=57528.7215
#          UTC=62340
#     SCANTYPE=track
#     DATAMODE=HIRES
#     TUNEFREQ=1420.0000
# Actual_FREQ1=1420.0000
# Actual_FREQ2=1420.0000
#    LO1Tuning=6870.000
#     RFFILTER=1355_1435
#        OBSBW=-15.6250
#        NCHAN=1024 
#        FOCUS=37.0709
#           RA=03:07:14.94
#          DEC=58:17:51.17
#      RA(hrs)=3.120800
#     DEC(deg)=58.297500
#    AZIM(deg)=343.112
#    ELEV(deg)=68.709
#     IFattens=11.00, 9.00
#      WARNING=None
#    TCAL_XL1=7.9635
#    TCAL_YR1=9.1340
#    TCAL_XL2=7.9635
#    TCAL_YR2=9.1340
#     TRX_XL1=11.7060
#     TRX_YR1=11.7060
#     TRX_XL2=11.7060
#     TRX_YR2=11.7060
#        TAVE=1.0000
#Freq1(MHz)          XL1          YR1  Freq2(MHz)          XL2          YR2 

   1427.81250     381.7864     251.6275   1427.81250     381.7864     251.6275
   1427.79724     382.9038     252.9846   1427.79724     382.9038     252.9846
   1427.78198     383.9515     253.8090   1427.78198     383.9515     253.8090
   1427.76672     384.2715     254.8076   1427.76672     384.2715     254.8076
   1427.75146     384.8761     255.5563   1427.75146     384.8761     255.5563
   1427.73621     385.9006     256.5408   1427.73621     385.9006     256.5408
   1427.72095     386.8369     257.9776   1427.72095     386.8369     257.9776
   1427.70569     388.1110     259.3252   1427.70569     388.1110     259.3252
   1427.69043     388.6586     260.1255   1427.69043     388.6586     260.1255
   1427.67517     390.1877     261.1142   1427.67517     390.1877     261.1142
   1427.65991     391.2371     262.4561   1427.65991     391.2371     262.4561
   1427.64465     391.8784     263.6530   1427.64465     391.8784     263.6530
   1427.62939     393.3866     264.9258   1427.62939     393.3866     264.9258
   1427.61414     394.3322     266.0765   1427.61414     394.3322     266.0765
   1427.59888     396.3654     267.9521   1427.59888     396.3654     267.9521
   1427.58362     397.4260     269.0346   1427.58362     397.4260     269.0346
   1427.56836     399.5019     270.1134   1427.56836     399.5019     270.1134
   1427.55310     400.4708     271.8125   1427.55310     400.4708     271.8125
   1427.53784     401.9853     273.1407   1427.53784     401.9853     273.1407
   1427.52258     403.7755     274.3643   1427.52258     403.7755     274.3643
   1427.50732     406.0078     276.2183   1427.50732     406.0078     276.2183
   1427.49207     406.9293     277.8946   1427.49207     406.9293     277.8946
   1427.47681     409.1783     279.0801   1427.47681     409.1783     279.0801
   1427.46155     410.7996     281.0250   1427.46155     410.7996     281.0250
   1427.44629     412.7180     281.9228   1427.44629     412.7180     281.9228
   1427.43103     415.2916     284.2393   1427.43103     415.2916     284.2393
   1427.41577     416.9890     285.4900   1427.41577     416.9890     285.4900
   1427.40051     418.9845     287.7138   1427.40051     418.9845     287.7138
   1427.38525     420.9127     289.0622   1427.38525     420.9127     289.0622
   1427.37000     423.1834     290.6850   1427.37000     423.1834     290.6850
   1427.35474     425.0999     292.7900   1427.35474     425.0999     292.7900
   1427.33948     426.8074     294.3680   1427.33948     426.8074     294.3680
   1427.32422     429.3724     295.9033   1427.32422     429.3724     295.9033
   1427.30896     432.2900     298.0598   1427.30896     432.2900     298.0598
   1427.29370     434.0645     299.7266   1427.29370     434.0645     299.7266
   1427.27844     436.3127     301.7819   1427.27844     436.3127     301.7819
   1427.26318     439.1251     303.4475   1427.26318     439.1251     303.4475
   1427.24792     441.6217     305.3480   1427.24792     441.6217     305.3480
   1427.23267     444.3353     306.7307   1427.23267     444.3353     306.7307
   1427.21741     446.7174     309.3314   1427.21741     446.7174     309.3314
   1427.20215     449.3745     311.3336   1427.20215     449.3745     311.3336
   1427.18689     451.8086     312.6161   1427.18689     451.8086     312.6161
   1427.17163     454.6232     315.1748   1427.17163     454.6232     315.1748
   1427.15637     457.2625     317.0833   1427.15637     457.2625     317.0833
   1427.14111     459.4883     319.3650   1427.14111     459.4883     319.3650
   1427.12585     462.7625     320.7958   1427.12585     462.7625     320.7958
   1427.11060     465.3736     323.2947   1427.11060     465.3736     323.2947
   1427.09534     468.6060     324.3089   1427.09534     468.6060     324.3089
   1427.08008     470.1846     327.2294   1427.08008     470.1846     327.2294
   1427.06482     473.4739     329.1093   1427.06482     473.4739     329.1093
   1427.04956     476.8210     330.3386   1427.04956     476.8210     330.3386
   1427.03430     479.7098     332.8242   1427.03430     479.7098     332.8242
   1427.01904     483.0041     334.4744   1427.01904     483.0041     334.4744
   1427.00378     485.0065     336.6718   1427.00378     485.0065     336.6718
   1426.98853     488.0750     339.1158   1426.98853     488.0750     339.1158
   1426.97327     490.9566     340.8224   1426.97327     490.9566     340.8224
   1426.95801     494.4439     342.6164   1426.95801     494.4439     342.6164
   1426.94275     497.4594     345.2874   1426.94275     497.4594     345.2874
   1426.92749     500.6714     347.9307   1426.92749     500.6714     347.9307
   1426.91223     504.5866     349.6137   1426.91223     504.5866     349.6137
   1426.89697     508.2071     351.7436   1426.89697     508.2071     351.7436
   1426.88171     510.9111     353.3202   1426.88171     510.9111     353.3202
   1426.86646     512.9796     355.9267   1426.86646     512.9796     355.9267
   1426.85120     517.1395     357.3454   1426.85120     517.1395     357.3454
   1426.83594     519.8101     359.7125   1426.83594     519.8101     359.7125
   1426.82068     523.2294     361.3783   1426.82068     523.2294     361.3783
   1426.80542     526.4160     363.6217   1426.80542     526.4160     363.6217
   1426.79016     529.4025     365.6377   1426.79016     529.4025     365.6377
   1426.77490     532.0620     367.8832   1426.77490     532.0620     367.8832
   1426.75964     536.0081     369.2986   1426.75964     536.0081     369.2986
   1426.74438     539.7589     371.5471   1426.74438     539.7589     371.5471
   1426.72913     541.3630     373.6853   1426.72913     541.3630     373.6853
   1426.71387     545.1150     376.3828   1426.71387     545.1150     376.3828
   1426.69861     548.9433     377.6664   1426.69861     548.9433     377.6664
   1426.68335     552.6586     380.1321   1426.68335     552.6586     380.1321
   1426.66809     555.6682     381.9942   1426.66809     555.6682     381.9942
   1426.65283     559.0735     383.6357   1426.65283     559.0735     383.6357
   1426.63757     561.3350     385.6129   1426.63757     561.3350     385.6129
   1426.62231     564.6249     388.6275   1426.62231     564.6249     388.6275
   1426.60706     568.5048     390.4227   1426.60706     568.5048     390.4227
   1426.59180     571.7429     391.5016   1426.59180     571.7429     391.5016
   1426.57654     574.9497     393.1729   1426.57654     574.9497     393.1729
   1426.56128     577.9320     395.2832   1426.56128     577.9320     395.2832
   1426.54602     581.8892     397.0289   1426.54602     581.8892     397.0289
   1426.53076     584.8555     398.8586   1426.53076     584.8555     398.8586
   1426.51550     587.8746     400.6930   1426.51550     587.8746     400.6930
   1426.50024     591.2601     402.5876   1426.50024     591.2601     402.5876
   1426.48499     593.2208     405.0486   1426.48499     593.2208     405.0486
   1426.46973     597.1757     406.4969   1426.46973     597.1757     406.4969
   1426.45447     601.3212     408.5314   1426.45447     601.3212     408.5314
   1426.43921     604.3738     410.0565   1426.43921     604.3738     410.0565
   1426.42395     607.0227     411.6617   1426.42395     607.0227     411.6617
   1426.40869     610.4719     414.2219   1426.40869     610.4719     414.2219
   1426.39343     614.2902     416.0081   1426.39343     614.2902     416.0081
   1426.37817     617.6026     417.8033   1426.37817     617.6026     417.8033
   1426.36292     620.3463     419.3693   1426.36292     620.3463     419.3693
   1426.34766     623.0231     421.3149   1426.34766     623.0231     421.3149
   1426.33240     626.6214     422.5225   1426.33240     626.6214     422.5225
   1426.31714     630.0854     424.3807   1426.31714     630.0854     424.3807
   1426.30188     632.8708     426.3449   1426.30188     632.8708     426.3449
   1426.28662     636.1360     427.0788   1426.28662     636.1360     427.0788
   1426.27136     638.1725     428.6480   1426.27136     638.1725     428.6480
   1426.25610     642.2574     430.0959   1426.25610     642.2574     430.0959
   1426.24084     644.5234     431.8467   1426.24084     644.5234     431.8467
   1426.22559     647.1516     433.3221   1426.22559     647.1516     433.3221
   1426.21033     650.2929     435.0956   1426.21033     650.2929     435.0956
   1426.19507     654.2500     436.9697   1426.19507     654.2500     436.9697
   1426.17981     657.2511     437.7005   1426.17981     657.2511     437.7005
   1426.16455     659.9614     439.8659   1426.16455     659.9614     439.8659
   1426.14929     662.6133     441.0710   1426.14929     662.6133     441.0710
   1426.13403     665.7812     442.3284   1426.13403     665.7812     442.3284
   1426.11877     668.2864     443.9673   1426.11877     668.2864     443.9673
   1426.10352     670.4728     445.5076   1426.10352     670.4728     445.5076
   1426.08826     674.5409     446.7485   1426.08826     674.5409     446.7485
   1426.07300     676.4471     447.5216   1426.07300     676.4471     447.5216
   1426.05774     679.2863     449.5455   1426.05774     679.2863     449.5455
   1426.04248     682.5914     450.7875   1426.04248     682.5914     450.7875
   1426.02722     685.0847     452.5154   1426.02722     685.0847     452.5154
   1426.01196     687.2169     453.0271   1426.01196     687.2169     453.0271
   1425.99670     691.0739     454.3182   1425.99670     691.0739     454.3182
   1425.98145     693.7960     455.7820   1425.98145     693.7960     455.7820
   1425.96619     695.2670     456.4912   1425.96619     695.2670     456.4912
   1425.95093     697.7396     458.2449   1425.95093     697.7396     458.2449
   1425.93567     700.1648     459.5270   1425.93567     700.1648     459.5270
   1425.92041     701.9989     460.8269   1425.92041     701.9989     460.8269
   1425.90515     704.8443     462.3944   1425.90515     704.8443     462.3944
   1425.88989     707.8596     463.6553   1425.88989     707.8596     463.6553
   1425.87463     710.8398     464.6710   1425.87463     710.8398     464.6710
   1425.85938     712.6578     465.3570   1425.85938     712.6578     465.3570
   1425.84412     716.0064     465.8300   1425.84412     716.0064     465.8300
   1425.82886     717.9344     467.8856   1425.82886     717.9344     467.8856
   1425.81360     719.2109     469.0487   1425.81360     719.2109     469.0487
   1425.79834     722.1509     470.0830   1425.79834     722.1509     470.0830
   1425.78308     725.3408     470.9541   1425.78308     725.3408     470.9541
   1425.76782     726.2688     471.6993   1425.76782     726.2688     471.6993
   1425.75256     727.7160     473.0587   1425.75256     727.7160     473.0587
   1425.73730     731.5163     473.7062   1425.73730     731.5163     473.7062
   1425.72205     732.8986     474.7060   1425.72205     732.8986     474.7060
   1425.70679     734.3629     476.1962   1425.70679     734.3629     476.1962
   1425.69153     736.7902     476.0654   1425.69153     736.7902     476.0654
   1425.67627     736.3185     477.5371   1425.67627     736.3185     477.5371
   1425.66101     739.5153     478.4083   1425.66101     739.5153     478.4083
   1425.64575     743.0952     479.2581   1425.64575     743.0952     479.2581
   1425.63049     744.2119     479.9102   1425.63049     744.2119     479.9102
   1425.61523     747.5023     480.7307   1425.61523     747.5023     480.7307
   1425.59998     747.7648     481.7502   1425.59998     747.7648     481.7502
   1425.58472     749.8469     482.3148   1425.58472     749.8469     482.3148
   1425.56946     750.7314     482.8141   1425.56946     750.7314     482.8141
   1425.55420     753.0205     483.4931   1425.55420     753.0205     483.4931
   1425.53894     755.2386     485.4444   1425.53894     755.2386     485.4444
   1425.52368     757.8826     485.7199   1425.52368     757.8826     485.7199
   1425.50842     757.8541     486.7223   1425.50842     757.8541     486.7223
   1425.49316     760.4878     487.0527   1425.49316     760.4878     487.0527
   1425.47791     761.8887     488.2415   1425.47791     761.8887     488.2415
   1425.46265     761.9478     488.2512   1425.46265     761.9478     488.2512
   1425.44739     764.1475     489.3334   1425.44739     764.1475     489.3334
   1425.43213     765.6941     490.1736   1425.43213     765.6941     490.1736
   1425.41687     767.5231     491.1775   1425.41687     767.5231     491.1775
   1425.40161     768.2441     490.8344   1425.40161     768.2441     490.8344
   1425.38635     769.6411     491.1450   1425.38635     769.6411     491.1450
   1425.37109     771.4941     492.7106   1425.37109     771.4941     492.7106
   1425.35583     772.3560     492.5211   1425.35583     772.3560     492.5211
   1425.34058     773.6879     494.2560   1425.34058     773.6879     494.2560
   1425.32532     775.6284     492.8475   1425.32532     775.6284     492.8475
   1425.31006     775.5731     494.1926   1425.31006     775.5731     494.1926
   1425.29480     776.4453     495.0302   1425.29480     776.4453     495.0302
   1425.27954     777.2861     495.3884   1425.27954     777.2861     495.3884
   1425.26428     779.7747     495.6436   1425.26428     779.7747     495.6436
   1425.24902     779.2249     497.1994   1425.24902     779.2249     497.1994
   1425.23376     780.8395     496.8554   1425.23376     780.8395     496.8554
   1425.21851     781.7935     497.0665   1425.21851     781.7935     497.0665
   1425.20325     782.8622     498.0699   1425.20325     782.8622     498.0699
   1425.18799     783.5731     498.7218   1425.18799     783.5731     498.7218
   1425.17273     785.5312     498.5705   1425.17273     785.5312     498.5705
   1425.15747     785.8617     498.6545   1425.15747     785.8617     498.6545
   1425.14221     785.4871     499.4036   1425.14221     785.4871     499.4036
   1425.12695     785.7874     500.4962   1425.12695     785.7874     500.4962
   1425.11169     787.5266     499.6463   1425.11169     787.5266     499.6463
   1425.09644     789.2975     500.9547   1425.09644     789.2975     500.9547
   1425.08118     788.8950     501.3531   1425.08118     788.8950     501.3531
   1425.06592     790.5651     501.3900   1425.06592     790.5651     501.3900
   1425.05066     790.3414     502.0568   1425.05066     790.3414     502.0568
   1425.03540     790.3333     502.4719   1425.03540     790.3333     502.4719
   1425.02014     791.6921     503.1618   1425.02014     791.6921     503.1618
   1425.00488     792.2729     502.9612   1425.00488     792.2729     502.9612
   1424.98962     792.9292     503.3586   1424.98962     792.9292     503.3586
   1424.97437     793.4563     503.2077   1424.97437     793.4563     503.2077
   1424.95911     793.6663     503.8644   1424.95911     793.6663     503.8644
   1424.94385     794.3023     504.2919   1424.94385     794.3023     504.2919
   1424.92859     794.1232     504.3283   1424.92859     794.1232     504.3283
   1424.91333     794.7509     505.0247   1424.91333     794.7509     505.0247
   1424.89807     794.2639     504.4111   1424.89807     794.2639     504.4111
   1424.88281     797.2167     505.2287   1424.88281     797.2167     505.2287
   1424.86755     796.1750     505.4628   1424.86755     796.1750     505.4628
   1424.85229     797.3064     505.5250   1424.85229     797.3064     505.5250
   1424.83704     796.6534     506.1240   1424.83704     796.6534     506.1240
   1424.82178     796.7688     505.1803   1424.82178     796.7688     505.1803
   1424.80652     796.2854     506.3450   1424.80652     796.2854     506.3450
   1424.79126     797.2735     506.3847   1424.79126     797.2735     506.3847
   1424.77600     797.2390     507.3625   1424.77600     797.2390     507.3625
   1424.76074     797.5441     506.6446   1424.76074     797.5441     506.6446
   1424.74548     798.5784     507.2686   1424.74548     798.5784     507.2686
   1424.73022     797.9330     506.6161   1424.73022     797.9330     506.6161
   1424.71497     798.5037     507.4131   1424.71497     798.5037     507.4131
   1424.69971     796.9687     506.5229   1424.69971     796.9687     506.5229
   1424.68445     798.3594     507.7244   1424.68445     798.3594     507.7244
   1424.66919     797.4785     507.7538   1424.66919     797.4785     507.7538
   1424.65393     797.9263     507.6818   1424.65393     797.9263     507.6818
   1424.63867     797.3617     508.0861   1424.63867     797.3617     508.0861
   1424.62341     795.9319     508.0174   1424.62341     795.9319     508.0174
   1424.60815     796.9940     507.3708   1424.60815     796.9940     507.3708
   1424.59290     797.7346     508.4232   1424.59290     797.7346     508.4232
   1424.57764     797.0539     507.9412   1424.57764     797.0539     507.9412
   1424.56238     797.4986     508.8242   1424.56238     797.4986     508.8242
   1424.54712     798.4421     507.9554   1424.54712     798.4421     507.9554
   1424.53186     797.1565     507.9133   1424.53186     797.1565     507.9133
   1424.51660     795.7684     508.6427   1424.51660     795.7684     508.6427
   1424.50134     797.0803     508.9857   1424.50134     797.0803     508.9857
   1424.48608     795.4227     508.5265   1424.48608     795.4227     508.5265
   1424.47083     797.0657     508.7043   1424.47083     797.0657     508.7043
   1424.45557     796.5287     509.3546   1424.45557     796.5287     509.3546
   1424.44031     795.3833     508.5338   1424.44031     795.3833     508.5338
   1424.42505     795.7804     508.1034   1424.42505     795.7804     508.1034
   1424.40979     795.9260     508.5667   1424.40979     795.9260     508.5667
   1424.39453     795.6534     508.3612   1424.39453     795.6534     508.3612
   1424.37927     794.3160     508.6981   1424.37927     794.3160     508.6981
   1424.36401     794.8386     509.2995   1424.36401     794.8386     509.2995
   1424.34875     793.9630     509.7061   1424.34875     793.9630     509.7061
   1424.33350     792.7551     509.0313   1424.33350     792.7551     509.0313
   1424.31824     792.7186     509.7814   1424.31824     792.7186     509.7814
   1424.30298     792.6278     509.2484   1424.30298     792.6278     509.2484
   1424.28772     792.2015     509.0097   1424.28772     792.2015     509.0097
   1424.27246     792.9952     509.5471   1424.27246     792.9952     509.5471
   1424.25720     791.0482     508.7652   1424.25720     791.0482     508.7652
   1424.24194     791.4170     508.6277   1424.24194     791.4170     508.6277
   1424.22668     790.4178     508.8546   1424.22668     790.4178     508.8546
   1424.21143     789.2585     508.7366   1424.21143     789.2585     508.7366
   1424.19617     791.2424     509.0479   1424.19617     791.2424     509.0479
   1424.18091     789.8548     508.6074   1424.18091     789.8548     508.6074
   1424.16565     789.6154     507.3863   1424.16565     789.6154     507.3863
   1424.15039     787.6972     508.0947   1424.15039     787.6972     508.0947
   1424.13513     788.0322     508.2140   1424.13513     788.0322     508.2140
   1424.11987     788.3719     507.9400   1424.11987     788.3719     507.9400
   1424.10461     786.0253     507.4092   1424.10461     786.0253     507.4092
   1424.08936     786.5107     507.6486   1424.08936     786.5107     507.6486
   1424.07410     786.3118     507.7885   1424.07410     786.3118     507.7885
   1424.05884     785.7269     508.3094   1424.05884     785.7269     508.3094
   1424.04358     785.6429     507.4731   1424.04358     785.6429     507.4731
   1424.02832     783.8465     507.3286   1424.02832     783.8465     507.3286
   1424.01306     784.3813     507.8447   1424.01306     784.3813     507.8447
   1423.99780     783.4434     507.1475   1423.99780     783.4434     507.1475
   1423.98254     782.0800     507.1536   1423.98254     782.0800     507.1536
   1423.96729     782.3402     506.1340   1423.96729     782.3402     506.1340
   1423.95203     781.6349     506.9196   1423.95203     781.6349     506.9196
   1423.93677     780.3464     506.3716   1423.93677     780.3464     506.3716
   1423.92151     779.9069     506.1227   1423.92151     779.9069     506.1227
   1423.90625     779.6324     505.6995   1423.90625     779.6324     505.6995
   1423.89099     780.1888     505.0476   1423.89099     780.1888     505.0476
   1423.87573     779.3599     506.1564   1423.87573     779.3599     506.1564
   1423.86047     779.3145     505.1243   1423.86047     779.3145     505.1243
   1423.84521     778.6341     505.1923   1423.84521     778.6341     505.1923
   1423.82996     777.2673     504.8810   1423.82996     777.2673     504.8810
   1423.81470     777.1509     505.1389   1423.81470     777.1509     505.1389
   1423.79944     775.5898     504.7055   1423.79944     775.5898     504.7055
   1423.78418     775.9394     504.5264   1423.78418     775.9394     504.5264
   1423.76892     775.0759     503.2840   1423.76892     775.0759     503.2840
   1423.75366     774.7183     502.7903   1423.75366     774.7183     502.7903
   1423.73840     773.9890     503.3957   1423.73840     773.9890     503.3957
   1423.72314     773.4694     502.8020   1423.72314     773.4694     502.8020
   1423.70789     771.3356     502.2690   1423.70789     771.3356     502.2690
   1423.69263     771.8181     502.2432   1423.69263     771.8181     502.2432
   1423.67737     771.6191     501.7020   1423.67737     771.6191     501.7020
   1423.66211     770.2761     501.5301   1423.66211     770.2761     501.5301
   1423.64685     769.2475     502.1381   1423.64685     769.2475     502.1381
   1423.63159     768.6871     502.0363   1423.63159     768.6871     502.0363
   1423.61633     768.5286     500.7459   1423.61633     768.5286     500.7459
   1423.60107     767.7563     501.4795   1423.60107     767.7563     501.4795
   1423.58582     767.8680     500.4787   1423.58582     767.8680     500.4787
   1423.57056     765.5153     500.5149   1423.57056     765.5153     500.5149
   1423.55530     767.2749     500.0266   1423.55530     767.2749     500.0266
   1423.54004     767.3323     499.2602   1423.54004     767.3323     499.2602
   1423.52478     765.3782     498.1255   1423.52478     765.3782     498.1255
   1423.50952     764.0202     498.6907   1423.50952     764.0202     498.6907
   1423.49426     764.1909     498.4946   1423.49426     764.1909     498.4946
   1423.47900     764.4985     497.2886   1423.47900     764.4985     497.2886
   1423.46375     762.2700     497.7515   1423.46375     762.2700     497.7515
   1423.44849     761.9269     496.4388   1423.44849     761.9269     496.4388
   1423.43323     760.7167     496.5756   1423.43323     760.7167     496.5756
   1423.41797     760.8976     495.8218   1423.41797     760.8976     495.8218
   1423.40271     760.0156     496.0022   1423.40271     760.0156     496.0022
   1423.38745     761.5902     494.6598   1423.38745     761.5902     494.6598
   1423.37219     758.9105     495.4197   1423.37219     758.9105     495.4197
   1423.35693     758.1430     494.7821   1423.35693     758.1430     494.7821
   1423.34167     757.2219     494.5117   1423.34167     757.2219     494.5117
   1423.32642     758.3759     493.3842   1423.32642     758.3759     493.3842
   1423.31116     757.7411     493.8665   1423.31116     757.7411     493.8665
   1423.29590     756.8098     492.9897   1423.29590     756.8098     492.9897
   1423.28064     756.1470     492.4164   1423.28064     756.1470     492.4164
   1423.26538     755.5414     492.0375   1423.26538     755.5414     492.0375
   1423.25012     754.6401     491.9396   1423.25012     754.6401     491.9396
   1423.23486     754.3212     491.3139   1423.23486     754.3212     491.3139
   1423.21960     753.6179     490.0314   1423.21960     753.6179     490.0314
   1423.20435     752.8538     489.9713   1423.20435     752.8538     489.9713
   1423.18909     753.1324     489.2385   1423.18909     753.1324     489.2385
   1423.17383     752.2244     488.9351   1423.17383     752.2244     488.9351
   1423.15857     751.7103     488.3476   1423.15857     751.7103     488.3476
   1423.14331     750.2242     488.1117   1423.14331     750.2242     488.1117
   1423.12805     750.5201     487.7145   1423.12805     750.5201     487.7145
   1423.11279     751.3604     487.2486   1423.11279     751.3604     487.2486
   1423.09753     750.1729     485.7189   1423.09753     750.1729     485.7189
   1423.08228     748.5445     485.5537   1423.08228     748.5445     485.5537
   1423.06702     749.5555     485.3944   1423.06702     749.5555     485.3944
   1423.05176     748.1430     485.1687   1423.05176     748.1430     485.1687
   1423.03650     747.3621     484.2599   1423.03650     747.3621     484.2599
   1423.02124     747.3602     483.3191   1423.02124     747.3602     483.3191
   1423.00598     747.5072     482.6154   1423.00598     747.5072     482.6154
   1422.99072     746.6103     481.8383   1422.99072     746.6103     481.8383
   1422.97546     746.0648     481.2797   1422.97546     746.0648     481.2797
   1422.96021     746.0411     480.3782   1422.96021     746.0411     480.3782
   1422.94495     745.6336     480.7622   1422.94495     745.6336     480.7622
   1422.92969     745.6282     479.5758   1422.92969     745.6282     479.5758
   1422.91443     745.5469     479.0120   1422.91443     745.5469     479.0120
   1422.89917     744.1400     478.3755   1422.89917     744.1400     478.3755
   1422.88391     743.5992     477.6029   1422.88391     743.5992     477.6029
   1422.86865     743.5062     476.9645   1422.86865     743.5062     476.9645
   1422.85339     744.0256     476.3349   1422.85339     744.0256     476.3349
   1422.83813     742.8090     475.5543   1422.83813     742.8090     475.5543
   1422.82288     741.1821     474.7318   1422.82288     741.1821     474.7318
   1422.80762     741.8729     474.0593   1422.80762     741.8729     474.0593
   1422.79236     741.4658     473.5013   1422.79236     741.4658     473.5013
   1422.77710     740.8575     472.5762   1422.77710     740.8575     472.5762
   1422.76184     740.4683     472.3089   1422.76184     740.4683     472.3089
   1422.74658     739.9352     471.4403   1422.74658     739.9352     471.4403
   1422.73132     739.5997     471.1981   1422.73132     739.5997     471.1981
   1422.71606     738.2203     470.0048   1422.71606     738.2203     470.0048
   1422.70081     738.8433     469.8951   1422.70081     738.8433     469.8951
   1422.68555     738.7983     468.6883   1422.68555     738.7983     468.6883
   1422.67029     738.9760     467.3040   1422.67029     738.9760     467.3040
   1422.65503     738.4160     467.1400   1422.65503     738.4160     467.1400
   1422.63977     737.9598     466.2505   1422.63977     737.9598     466.2505
   1422.62451     737.1058     464.8756   1422.62451     737.1058     464.8756
   1422.60925     737.2829     465.2453   1422.60925     737.2829     465.2453
   1422.59399     735.5937     464.3960   1422.59399     735.5937     464.3960
   1422.57874     737.0127     463.9288   1422.57874     737.0127     463.9288
   1422.56348     735.7776     462.6989   1422.56348     735.7776     462.6989
   1422.54822     736.4747     461.4547   1422.54822     736.4747     461.4547
   1422.53296     735.0104     461.4100   1422.53296     735.0104     461.4100
   1422.51770     735.4871     460.6443   1422.51770     735.4871     460.6443
   1422.50244     735.1187     459.5100   1422.50244     735.1187     459.5100
   1422.48718     734.5295     458.1028   1422.48718     734.5295     458.1028
   1422.47192     735.1837     457.8661   1422.47192     735.1837     457.8661
   1422.45667     733.7506     457.3261   1422.45667     733.7506     457.3261
   1422.44141     734.6077     456.2450   1422.44141     734.6077     456.2450
   1422.42615     733.6489     455.6034   1422.42615     733.6489     455.6034
   1422.41089     733.9688     454.5573   1422.41089     733.9688     454.5573
   1422.39563     733.2071     454.2871   1422.39563     733.2071     454.2871
   1422.38037     732.2517     452.8058   1422.38037     732.2517     452.8058
   1422.36511     733.1075     451.8542   1422.36511     733.1075     451.8542
   1422.34985     731.7960     451.7786   1422.34985     731.7960     451.7786
   1422.33459     731.8680     451.1308   1422.33459     731.8680     451.1308
   1422.31934     731.8492     450.2910   1422.31934     731.8492     450.2910
   1422.30408     730.9576     449.0906   1422.30408     730.9576     449.0906
   1422.28882     730.1512     448.4685   1422.28882     730.1512     448.4685
   1422.27356     731.1294     447.7329   1422.27356     731.1294     447.7329
   1422.25830     731.0672     446.2176   1422.25830     731.0672     446.2176
   1422.24304     730.9303     446.9849   1422.24304     730.9303     446.9849
   1422.22778     730.5938     445.2283   1422.22778     730.5938     445.2283
   1422.21252     730.4092     444.4996   1422.21252     730.4092     444.4996
   1422.19727     730.4420     443.1001   1422.19727     730.4420     443.1001
   1422.18201     729.5232     442.1607   1422.18201     729.5232     442.1607
   1422.16675     730.0157     441.2379   1422.16675     730.0157     441.2379
   1422.15149     728.8088     440.9469   1422.15149     728.8088     440.9469
   1422.13623     728.3686     439.3959   1422.13623     728.3686     439.3959
   1422.12097     729.3116     439.1501   1422.12097     729.3116     439.1501
   1422.10571     728.5923     438.0611   1422.10571     728.5923     438.0611
   1422.09045     728.3340     436.5665   1422.09045     728.3340     436.5665
   1422.07520     728.5025     436.2927   1422.07520     728.5025     436.2927
   1422.05994     728.1295     435.3476   1422.05994     728.1295     435.3476
   1422.04468     726.4028     434.1320   1422.04468     726.4028     434.1320
   1422.02942     729.5861     433.5646   1422.02942     729.5861     433.5646
   1422.01416     727.6529     432.4793   1422.01416     727.6529     432.4793
   1421.99890     727.4052     432.3262   1421.99890     727.4052     432.3262
   1421.98364     726.8784     431.1208   1421.98364     726.8784     431.1208
   1421.96838     726.2232     430.1232   1421.96838     726.2232     430.1232
   1421.95312     727.1113     429.8131   1421.95312     727.1113     429.8131
   1421.93787     727.5153     427.8009   1421.93787     727.5153     427.8009
   1421.92261     726.8308     427.1027   1421.92261     726.8308     427.1027
   1421.90735     725.8491     427.1754   1421.90735     725.8491     427.1754
   1421.89209     725.2073     425.9797   1421.89209     725.2073     425.9797
   1421.87683     726.4318     424.6658   1421.87683     726.4318     424.6658
   1421.86157     725.4034     423.7557   1421.86157     725.4034     423.7557
   1421.84631     726.0268     423.5350   1421.84631     726.0268     423.5350
   1421.83105     725.6459     422.0157   1421.83105     725.6459     422.0157
   1421.81580     724.8611     421.3727   1421.81580     724.8611     421.3727
   1421.80054     724.7029     421.1758   1421.80054     724.7029     421.1758
   1421.78528     725.9767     419.5607   1421.78528     725.9767     419.5607
   1421.77002     724.6956     418.4143   1421.77002     724.6956     418.4143
   1421.75476     725.6280     417.7248   1421.75476     725.6280     417.7248
   1421.73950     724.0171     416.9608   1421.73950     724.0171     416.9608
   1421.72424     724.6202     415.8897   1421.72424     724.6202     415.8897
   1421.70898     723.6277     415.6955   1421.70898     723.6277     415.6955
   1421.69373     723.8580     414.1262   1421.69373     723.8580     414.1262
   1421.67847     723.5745     413.7874   1421.67847     723.5745     413.7874
   1421.66321     723.5631     412.4696   1421.66321     723.5631     412.4696
   1421.64795     722.2783     410.8385   1421.64795     722.2783     410.8385
   1421.63269     723.3514     410.5858   1421.63269     723.3514     410.5858
   1421.61743     723.8134     410.6535   1421.61743     723.8134     410.6535
   1421.60217     722.7812     408.8173   1421.60217     722.7812     408.8173
   1421.58691     723.0452     408.1307   1421.58691     723.0452     408.1307
   1421.57166     722.0137     407.3812   1421.57166     722.0137     407.3812
   1421.55640     722.0917     406.1602   1421.55640     722.0917     406.1602
   1421.54114     720.9265     405.6713   1421.54114     720.9265     405.6713
   1421.52588     721.6874     404.9313   1421.52588     721.6874     404.9313
   1421.51062     722.2661     403.8521   1421.51062     722.2661     403.8521
   1421.49536     721.6055     402.9449   1421.49536     721.6055     402.9449
   1421.48010     721.4003     402.2351   1421.48010     721.4003     402.2351
   1421.46484     721.3436     400.9653   1421.46484     721.3436     400.9653
   1421.44958     720.2835     400.4834   1421.44958     720.2835     400.4834
   1421.43433     721.8095     399.7012   1421.43433     721.8095     399.7012
   1421.41907     721.7510     398.3942   1421.41907     721.7510     398.3942
   1421.40381     721.3087     397.7730   1421.40381     721.3087     397.7730
   1421.38855     720.8567     396.6766   1421.38855     720.8567     396.6766
   1421.37329     721.2957     396.4254   1421.37329     721.2957     396.4254
   1421.35803     720.3807     395.0939   1421.35803     720.3807     395.0939
   1421.34277     720.3116     394.8550   1421.34277     720.3116     394.8550
   1421.32751     720.5289     393.7064   1421.32751     720.5289     393.7064
   1421.31226     720.8304     392.8881   1421.31226     720.8304     392.8881
   1421.29700     720.4662     391.7055   1421.29700     720.4662     391.7055
   1421.28174     719.9782     391.4037   1421.28174     719.9782     391.4037
   1421.26648     719.3618     390.9315   1421.26648     719.3618     390.9315
   1421.25122     719.5352     388.7975   1421.25122     719.5352     388.7975
   1421.23596     719.5482     387.8619   1421.23596     719.5482     387.8619
   1421.22070     719.4384     387.4010   1421.22070     719.4384     387.4010
   1421.20544     720.1048     387.0340   1421.20544     720.1048     387.0340
   1421.19019     719.6832     386.0450   1421.19019     719.6832     386.0450
   1421.17493     720.5704     385.4878   1421.17493     720.5704     385.4878
   1421.15967     719.8409     385.3965   1421.15967     719.8409     385.3965
   1421.14441     722.6102     385.3227   1421.14441     722.6102     385.3227
   1421.12915     721.6813     385.0993   1421.12915     721.6813     385.0993
   1421.11389     725.0416     384.9384   1421.11389     725.0416     384.9384
   1421.09863     725.9696     385.4168   1421.09863     725.9696     385.4168
   1421.08337     730.3612     387.0637   1421.08337     730.3612     387.0637
   1421.06812     734.9313     389.7044   1421.06812     734.9313     389.7044
   1421.05286     736.3013     388.0850   1421.05286     736.3013     388.0850
   1421.03760     734.2238     386.5075   1421.03760     734.2238     386.5075
   1421.02234     732.6953     384.6299   1421.02234     732.6953     384.6299
   1421.00708     731.0078     383.7344   1421.00708     731.0078     383.7344
   1420.99182     729.8395     382.0807   1420.99182     729.8395     382.0807
   1420.97656     727.5684     380.6823   1420.97656     727.5684     380.6823
   1420.96130     727.0198     379.9214   1420.96130     727.0198     379.9214
   1420.94604     727.2509     378.9513   1420.94604     727.2509     378.9513
   1420.93079     728.1595     379.2477   1420.93079     728.1595     379.2477
   1420.91553     733.2751     380.8667   1420.91553     733.2751     380.8667
   1420.90027     739.7365     384.5662   1420.90027     739.7365     384.5662
   1420.88501     758.9006     392.4765   1420.88501     758.9006     392.4765
   1420.86975     792.4417     408.7941   1420.86975     792.4417     408.7941
   1420.85449     877.5790     451.2783   1420.85449     877.5790     451.2783
   1420.83923    1028.0519     522.6732   1420.83923    1028.0519     522.6732
   1420.82397    1103.8853     560.2523   1420.82397    1103.8853     560.2523
   1420.80872    1012.7783     514.6761   1420.80872    1012.7783     514.6761
   1420.79346     936.5382     476.6026   1420.79346     936.5382     476.6026
   1420.77820     962.8852     490.0902   1420.77820     962.8852     490.0902
   1420.76294    1016.9798     515.4993   1420.76294    1016.9798     515.4993
   1420.74768     994.4212     503.4000   1420.74768     994.4212     503.4000
   1420.73242     931.0134     471.1169   1420.73242     931.0134     471.1169
   1420.71716     933.2657     471.5651   1420.71716     933.2657     471.5651
   1420.70190    1051.9587     528.6226   1420.70190    1051.9587     528.6226
   1420.68665    1284.1312     640.6494   1420.68665    1284.1312     640.6494
   1420.67139    1493.5054     744.2668   1420.67139    1493.5054     744.2668
   1420.65613    1782.5389     882.2214   1420.65613    1782.5389     882.2214
   1420.64087    2109.0862    1040.8652   1420.64087    2109.0862    1040.8652
   1420.62561    2328.1235    1147.1589   1420.62561    2328.1235    1147.1589
   1420.61035    2396.3081    1177.2535   1420.61035    2396.3081    1177.2535
   1420.59509    2394.0312    1172.5438   1420.59509    2394.0312    1172.5438
   1420.57983    2273.8364    1111.3271   1420.57983    2273.8364    1111.3271
   1420.56458    1927.2062     944.8488   1420.56458    1927.2062     944.8488
   1420.54932    1505.6534     739.3743   1420.54932    1505.6534     739.3743
   1420.53406    1401.3265     687.0212   1420.53406    1401.3265     687.0212
   1420.51880    1536.2710     751.7202   1420.51880    1536.2710     751.7202
   1420.50354    1590.4897     776.0641   1420.50354    1590.4897     776.0641
   1420.48828    1584.0396     772.2028   1420.48828    1584.0396     772.2028
   1420.47302    1518.3787     738.2131   1420.47302    1518.3787     738.2131
   1420.45776    1368.2256     667.2174   1420.45776    1368.2256     667.2174
   1420.44250    1543.7272     749.8201   1420.44250    1543.7272     749.8201
   1420.42725    1924.0175     930.6782   1420.42725    1924.0175     930.6782
   1420.41199    1905.8557     919.5085   1420.41199    1905.8557     919.5085
   1420.39673    1588.7437     767.8805   1420.39673    1588.7437     767.8805
   1420.38147    1177.3115     571.2268   1420.38147    1177.3115     571.2268
   1420.36621     873.7401     425.4750   1420.36621     873.7401     425.4750
   1420.35095     778.2728     380.2547   1420.35095     778.2728     380.2547
   1420.33569     746.5832     365.4510   1420.33569     746.5832     365.4510
   1420.32043     734.4547     358.6247   1420.32043     734.4547     358.6247
   1420.30518     727.6204     355.2613   1420.30518     727.6204     355.2613
   1420.28992     722.0488     353.1582   1420.28992     722.0488     353.1582
   1420.27466     720.2117     350.6827   1420.27466     720.2117     350.6827
   1420.25940     718.3108     349.5601   1420.25940     718.3108     349.5601
   1420.24414     716.4877     348.6033   1420.24414     716.4877     348.6033
   1420.22888     714.8422     348.0634   1420.22888     714.8422     348.0634
   1420.21362     715.0962     346.2046   1420.21362     715.0962     346.2046
   1420.19836     713.4120     345.5943   1420.19836     713.4120     345.5943
   1420.18311     712.1813     344.7099   1420.18311     712.1813     344.7099
   1420.16785     711.3612     344.2573   1420.16785     711.3612     344.2573
   1420.15259     710.6071     343.0053   1420.15259     710.6071     343.0053
   1420.13733     710.6002     342.4043   1420.13733     710.6002     342.4043
   1420.12207     709.8496     341.3237   1420.12207     709.8496     341.3237
   1420.10681     709.4340     341.7961   1420.10681     709.4340     341.7961
   1420.09155     710.2148     340.8808   1420.09155     710.2148     340.8808
   1420.07629     707.7948     339.6039   1420.07629     707.7948     339.6039
   1420.06104     707.7501     339.2652   1420.06104     707.7501     339.2652
   1420.04578     707.1766     338.8583   1420.04578     707.1766     338.8583
   1420.03052     706.3481     338.7959   1420.03052     706.3481     338.7959
   1420.01526     708.5662     340.5358   1420.01526     708.5662     340.5358
   1420.00000     708.5812     340.6839   1420.00000     708.5812     340.6839
   1419.98474     708.5963     340.8321   1419.98474     708.5963     340.8321
   1419.96948     709.1104     338.5616   1419.96948     709.1104     338.5616
   1419.95422     707.1397     337.0036   1419.95422     707.1397     337.0036
   1419.93896     707.2562     336.6711   1419.93896     707.2562     336.6711
   1419.92371     706.8597     335.9379   1419.92371     706.8597     335.9379
   1419.90845     706.1583     335.8155   1419.90845     706.1583     335.8155
   1419.89319     706.7064     335.8789   1419.89319     706.7064     335.8789
   1419.87793     706.0411     335.6510   1419.87793     706.0411     335.6510
   1419.86267     706.8897     334.3635   1419.86267     706.8897     334.3635
   1419.84741     707.0270     335.2407   1419.84741     707.0270     335.2407
   1419.83215     707.3444     335.0600   1419.83215     707.3444     335.0600
   1419.81689     707.0032     334.1152   1419.81689     707.0032     334.1152
   1419.80164     706.8123     334.0463   1419.80164     706.8123     334.0463
   1419.78638     707.4575     333.4554   1419.78638     707.4575     333.4554
   1419.77112     707.0834     333.8862   1419.77112     707.0834     333.8862
   1419.75586     707.4588     333.9066   1419.75586     707.4588     333.9066
   1419.74060     709.0491     333.3024   1419.74060     709.0491     333.3024
   1419.72534     708.5609     333.4361   1419.72534     708.5609     333.4361
   1419.71008     708.4154     333.4014   1419.71008     708.4154     333.4014
   1419.69482     708.3358     332.8581   1419.69482     708.3358     332.8581
   1419.67957     709.3042     332.8292   1419.67957     709.3042     332.8292
   1419.66431     708.0863     332.8929   1419.66431     708.0863     332.8929
   1419.64905     708.2081     332.5774   1419.64905     708.2081     332.5774
   1419.63379     709.0551     332.7260   1419.63379     709.0551     332.7260
   1419.61853     709.3914     332.6961   1419.61853     709.3914     332.6961
   1419.60327     710.0750     332.2871   1419.60327     710.0750     332.2871
   1419.58801     709.1427     332.5252   1419.58801     709.1427     332.5252
   1419.57275     711.0124     332.4677   1419.57275     711.0124     332.4677
   1419.55750     711.0494     332.2414   1419.55750     711.0494     332.2414
   1419.54224     710.3074     332.1150   1419.54224     710.3074     332.1150
   1419.52698     710.9901     332.3610   1419.52698     710.9901     332.3610
   1419.51172     710.9120     332.2372   1419.51172     710.9120     332.2372
   1419.49646     712.3293     332.6164   1419.49646     712.3293     332.6164
   1419.48120     710.9258     332.3277   1419.48120     710.9258     332.3277
   1419.46594     712.1957     332.3647   1419.46594     712.1957     332.3647
   1419.45068     712.8626     332.6255   1419.45068     712.8626     332.6255
   1419.43542     712.8784     331.9023   1419.43542     712.8784     331.9023
   1419.42017     714.0650     332.5787   1419.42017     714.0650     332.5787
   1419.40491     713.2238     332.5302   1419.40491     713.2238     332.5302
   1419.38965     714.9056     332.3791   1419.38965     714.9056     332.3791
   1419.37439     713.8774     332.7995   1419.37439     713.8774     332.7995
   1419.35913     714.3253     332.5049   1419.35913     714.3253     332.5049
   1419.34387     715.3120     332.1026   1419.34387     715.3120     332.1026
   1419.32861     716.1073     332.6398   1419.32861     716.1073     332.6398
   1419.31335     715.5008     332.5185   1419.31335     715.5008     332.5185
   1419.29810     717.1180     332.7048   1419.29810     717.1180     332.7048
   1419.28284     716.5564     332.9582   1419.28284     716.5564     332.9582
   1419.26758     717.4457     334.3849   1419.26758     717.4457     334.3849
   1419.25232     717.1442     333.3922   1419.25232     717.1442     333.3922
   1419.23706     717.4114     333.3221   1419.23706     717.4114     333.3221
   1419.22180     718.4134     333.6529   1419.22180     718.4134     333.6529
   1419.20654     718.2487     334.1916   1419.20654     718.2487     334.1916
   1419.19128     719.0428     333.8764   1419.19128     719.0428     333.8764
   1419.17603     719.7874     334.5171   1419.17603     719.7874     334.5171
   1419.16077     719.7077     334.1078   1419.16077     719.7077     334.1078
   1419.14551     719.6122     334.7724   1419.14551     719.6122     334.7724
   1419.13025     720.1656     334.0769   1419.13025     720.1656     334.0769
   1419.11499     720.8306     334.9633   1419.11499     720.8306     334.9633
   1419.09973     721.6077     335.2808   1419.09973     721.6077     335.2808
   1419.08447     722.4351     335.4165   1419.08447     722.4351     335.4165
   1419.06921     722.8854     335.7112   1419.06921     722.8854     335.7112
   1419.05396     723.0276     335.8975   1419.05396     723.0276     335.8975
   1419.03870     721.5192     336.0279   1419.03870     721.5192     336.0279
   1419.02344     725.0393     336.1976   1419.02344     725.0393     336.1976
   1419.00818     725.8321     336.9846   1419.00818     725.8321     336.9846
   1418.99292     724.5580     336.7528   1418.99292     724.5580     336.7528
   1418.97766     725.9459     337.3573   1418.97766     725.9459     337.3573
   1418.96240     726.6552     337.7675   1418.96240     726.6552     337.7675
   1418.94714     727.0677     337.8386   1418.94714     727.0677     337.8386
   1418.93188     727.3179     338.1402   1418.93188     727.3179     338.1402
   1418.91663     727.1110     338.6430   1418.91663     727.1110     338.6430
   1418.90137     729.4164     338.8441   1418.90137     729.4164     338.8441
   1418.88611     729.1577     338.7956   1418.88611     729.1577     338.7956
   1418.87085     730.6830     339.8058   1418.87085     730.6830     339.8058
   1418.85559     730.9871     339.6147   1418.85559     730.9871     339.6147
   1418.84033     730.0038     340.2819   1418.84033     730.0038     340.2819
   1418.82507     731.8664     340.8405   1418.82507     731.8664     340.8405
   1418.80981     732.3277     341.4930   1418.80981     732.3277     341.4930
   1418.79456     734.1997     341.6840   1418.79456     734.1997     341.6840
   1418.77930     732.8856     342.1383   1418.77930     732.8856     342.1383
   1418.76404     734.9548     342.7969   1418.76404     734.9548     342.7969
   1418.74878     734.9312     343.1886   1418.74878     734.9312     343.1886
   1418.73352     735.9431     343.2559   1418.73352     735.9431     343.2559
   1418.71826     736.7428     343.9389   1418.71826     736.7428     343.9389
   1418.70300     737.1482     343.9585   1418.70300     737.1482     343.9585
   1418.68774     737.9875     344.3237   1418.68774     737.9875     344.3237
   1418.67249     738.5655     344.7166   1418.67249     738.5655     344.7166
   1418.65723     739.5798     345.3082   1418.65723     739.5798     345.3082
   1418.64197     740.0392     345.8910   1418.64197     740.0392     345.8910
   1418.62671     740.6429     346.8024   1418.62671     740.6429     346.8024
   1418.61145     741.9513     346.9530   1418.61145     741.9513     346.9530
   1418.59619     741.5918     347.8567   1418.59619     741.5918     347.8567
   1418.58093     741.8194     348.5442   1418.58093     741.8194     348.5442
   1418.56567     743.7363     348.6434   1418.56567     743.7363     348.6434
   1418.55042     743.9354     348.5732   1418.55042     743.9354     348.5732
   1418.53516     745.0001     349.4128   1418.53516     745.0001     349.4128
   1418.51990     745.7802     350.0189   1418.51990     745.7802     350.0189
   1418.50464     745.6164     351.0348   1418.50464     745.6164     351.0348
   1418.48938     746.9260     351.5040   1418.48938     746.9260     351.5040
   1418.47412     748.3586     352.0290   1418.47412     748.3586     352.0290
   1418.45886     748.8354     352.8564   1418.45886     748.8354     352.8564
   1418.44360     749.9862     353.1615   1418.44360     749.9862     353.1615
   1418.42834     750.0591     353.9845   1418.42834     750.0591     353.9845
   1418.41309     750.5375     354.7665   1418.41309     750.5375     354.7665
   1418.39783     752.2927     354.9384   1418.39783     752.2927     354.9384
   1418.38257     752.8794     355.6524   1418.38257     752.8794     355.6524
   1418.36731     753.6978     356.7674   1418.36731     753.6978     356.7674
   1418.35205     754.0553     356.5432   1418.35205     754.0553     356.5432
   1418.33679     755.2933     358.2002   1418.33679     755.2933     358.2002
   1418.32153     756.3329     357.7633   1418.32153     756.3329     357.7633
   1418.30627     755.9985     359.2784   1418.30627     755.9985     359.2784
   1418.29102     759.5308     359.9019   1418.29102     759.5308     359.9019
   1418.27576     761.0281     360.0660   1418.27576     761.0281     360.0660
   1418.26050     759.5693     361.3545   1418.26050     759.5693     361.3545
   1418.24524     760.2720     361.4095   1418.24524     760.2720     361.4095
   1418.22998     762.5776     362.1365   1418.22998     762.5776     362.1365
   1418.21472     761.2585     362.8315   1418.21472     761.2585     362.8315
   1418.19946     762.8621     363.9438   1418.19946     762.8621     363.9438
   1418.18420     764.6206     364.4460   1418.18420     764.6206     364.4460
   1418.16895     765.6332     366.0250   1418.16895     765.6332     366.0250
   1418.15369     764.5289     366.1987   1418.15369     764.5289     366.1987
   1418.13843     766.9354     366.9877   1418.13843     766.9354     366.9877
   1418.12317     765.9163     366.9482   1418.12317     765.9163     366.9482
   1418.10791     768.9354     368.3036   1418.10791     768.9354     368.3036
   1418.09265     770.2538     369.5941   1418.09265     770.2538     369.5941
   1418.07739     768.5764     370.5364   1418.07739     768.5764     370.5364
   1418.06213     770.0639     371.8063   1418.06213     770.0639     371.8063
   1418.04688     771.3799     371.2839   1418.04688     771.3799     371.2839
   1418.03162     773.1797     372.3373   1418.03162     773.1797     372.3373
   1418.01636     774.0544     372.9242   1418.01636     774.0544     372.9242
   1418.00110     775.8832     373.5827   1418.00110     775.8832     373.5827
   1417.98584     775.8176     374.6713   1417.98584     775.8176     374.6713
   1417.97058     776.3770     375.5616   1417.97058     776.3770     375.5616
   1417.95532     776.6489     376.5697   1417.95532     776.6489     376.5697
   1417.94006     777.1884     377.4648   1417.94006     777.1884     377.4648
   1417.92480     778.5800     377.4447   1417.92480     778.5800     377.4447
   1417.90955     778.7795     378.3745   1417.90955     778.7795     378.3745
   1417.89429     780.5588     379.5308   1417.89429     780.5588     379.5308
   1417.87903     782.5028     380.9052   1417.87903     782.5028     380.9052
   1417.86377     782.6458     381.3951   1417.86377     782.6458     381.3951
   1417.84851     783.8657     382.0791   1417.84851     783.8657     382.0791
   1417.83325     784.2004     383.1312   1417.83325     784.2004     383.1312
   1417.81799     786.1618     383.7950   1417.81799     786.1618     383.7950
   1417.80273     787.8757     384.8496   1417.80273     787.8757     384.8496
   1417.78748     786.9947     385.7709   1417.78748     786.9947     385.7709
   1417.77222     789.3970     387.1014   1417.77222     789.3970     387.1014
   1417.75696     789.2665     387.5455   1417.75696     789.2665     387.5455
   1417.74170     790.5732     388.5417   1417.74170     790.5732     388.5417
   1417.72644     790.7632     388.8867   1417.72644     790.7632     388.8867
   1417.71118     791.7380     390.5700   1417.71118     791.7380     390.5700
   1417.69592     792.5532     390.8987   1417.69592     792.5532     390.8987
   1417.68066     794.6556     391.9209   1417.68066     794.6556     391.9209
   1417.66541     796.3719     392.8144   1417.66541     796.3719     392.8144
   1417.65015     796.0403     394.2398   1417.65015     796.0403     394.2398
   1417.63489     795.9710     394.9875   1417.63489     795.9710     394.9875
   1417.61963     797.0507     395.9556   1417.61963     797.0507     395.9556
   1417.60437     799.7491     396.3303   1417.60437     799.7491     396.3303
   1417.58911     798.5526     397.8310   1417.58911     798.5526     397.8310
   1417.57385     800.1585     398.3185   1417.57385     800.1585     398.3185
   1417.55859     802.1392     398.8678   1417.55859     802.1392     398.8678
   1417.54333     802.0703     400.1612   1417.54333     802.0703     400.1612
   1417.52808     803.6172     401.3865   1417.52808     803.6172     401.3865
   1417.51282     803.5803     402.1029   1417.51282     803.5803     402.1029
   1417.49756     804.9846     402.8680   1417.49756     804.9846     402.8680
   1417.48230     805.4763     403.7807   1417.48230     805.4763     403.7807
   1417.46704     805.9003     405.3273   1417.46704     805.9003     405.3273
   1417.45178     808.5732     406.0154   1417.45178     808.5732     406.0154
   1417.43652     808.1141     407.1611   1417.43652     808.1141     407.1611
   1417.42126     809.4555     407.4271   1417.42126     809.4555     407.4271
   1417.40601     811.6232     408.8260   1417.40601     811.6232     408.8260
   1417.39075     809.6977     409.6368   1417.39075     809.6977     409.6368
   1417.37549     813.6181     410.1305   1417.37549     813.6181     410.1305
   1417.36023     811.6863     410.9930   1417.36023     811.6863     410.9930
   1417.34497     812.7170     412.3100   1417.34497     812.7170     412.3100
   1417.32971     814.5640     412.5845   1417.32971     814.5640     412.5845
   1417.31445     813.2772     414.6348   1417.31445     813.2772     414.6348
   1417.29919     816.2243     415.5262   1417.29919     816.2243     415.5262
   1417.28394     817.0266     416.3930   1417.28394     817.0266     416.3930
   1417.26868     818.3036     417.2722   1417.26868     818.3036     417.2722
   1417.25342     819.0806     418.5430   1417.25342     819.0806     418.5430
   1417.23816     818.8051     419.4147   1417.23816     818.8051     419.4147
   1417.22290     820.0405     420.3244   1417.22290     820.0405     420.3244
   1417.20764     819.8081     420.2534   1417.20764     819.8081     420.2534
   1417.19238     820.7857     421.5643   1417.19238     820.7857     421.5643
   1417.17712     821.7145     421.8671   1417.17712     821.7145     421.8671
   1417.16187     822.2996     422.8753   1417.16187     822.2996     422.8753
   1417.14661     823.8954     423.7069   1417.14661     823.8954     423.7069
   1417.13135     823.3173     425.3307   1417.13135     823.3173     425.3307
   1417.11609     824.9785     425.7851   1417.11609     824.9785     425.7851
   1417.10083     826.8543     427.0257   1417.10083     826.8543     427.0257
   1417.08557     826.4744     427.6743   1417.08557     826.4744     427.6743
   1417.07031     827.2863     428.3997   1417.07031     827.2863     428.3997
   1417.05505     827.5676     429.5913   1417.05505     827.5676     429.5913
   1417.03979     827.8105     430.3491   1417.03979     827.8105     430.3491
   1417.02454     827.6818     431.5017   1417.02454     827.6818     431.5017
   1417.00928     830.0387     431.2696   1417.00928     830.0387     431.2696
   1416.99402     829.6780     432.6020   1416.99402     829.6780     432.6020
   1416.97876     830.6821     432.9504   1416.97876     830.6821     432.9504
   1416.96350     831.2496     434.0643   1416.96350     831.2496     434.0643
   1416.94824     832.7547     434.9565   1416.94824     832.7547     434.9565
   1416.93298     832.4952     434.9956   1416.93298     832.4952     434.9956
   1416.91772     833.8926     436.7119   1416.91772     833.8926     436.7119
   1416.90247     832.9591     437.2136   1416.90247     832.9591     437.2136
   1416.88721     832.6284     437.3234   1416.88721     832.6284     437.3234
   1416.87195     834.8959     438.5996   1416.87195     834.8959     438.5996
   1416.85669     835.7399     438.7834   1416.85669     835.7399     438.7834
   1416.84143     835.1890     439.7730   1416.84143     835.1890     439.7730
   1416.82617     835.9780     440.3976   1416.82617     835.9780     440.3976
   1416.81091     835.9536     440.7831   1416.81091     835.9536     440.7831
   1416.79565     836.4780     441.9023   1416.79565     836.4780     441.9023
   1416.78040     837.1830     442.5209   1416.78040     837.1830     442.5209
   1416.76514     836.6427     442.8191   1416.76514     836.6427     442.8191
   1416.74988     837.7108     443.8504   1416.74988     837.7108     443.8504
   1416.73462     838.0416     444.1315   1416.73462     838.0416     444.1315
   1416.71936     838.6264     445.1972   1416.71936     838.6264     445.1972
   1416.70410     837.8770     445.4890   1416.70410     837.8770     445.4890
   1416.68884     838.6476     445.6792   1416.68884     838.6476     445.6792
   1416.67358     839.3187     446.9018   1416.67358     839.3187     446.9018
   1416.65833     838.5276     446.8384   1416.65833     838.5276     446.8384
   1416.64307     839.6767     447.2533   1416.64307     839.6767     447.2533
   1416.62781     839.1813     447.4012   1416.62781     839.1813     447.4012
   1416.61255     840.4806     448.0822   1416.61255     840.4806     448.0822
   1416.59729     840.7578     447.7353   1416.59729     840.7578     447.7353
   1416.58203     838.2007     449.0204   1416.58203     838.2007     449.0204
   1416.56677     840.6333     449.2307   1416.56677     840.6333     449.2307
   1416.55151     838.7394     449.6394   1416.55151     838.7394     449.6394
   1416.53625     839.5298     449.8513   1416.53625     839.5298     449.8513
   1416.52100     839.7943     449.6849   1416.52100     839.7943     449.6849
   1416.50574     839.3060     450.5649   1416.50574     839.3060     450.5649
   1416.49048     839.5649     450.6475   1416.49048     839.5649     450.6475
   1416.47522     839.4908     450.5310   1416.47522     839.4908     450.5310
   1416.45996     840.4468     451.3568   1416.45996     840.4468     451.3568
   1416.44470     839.1729     451.2438   1416.44470     839.1729     451.2438
   1416.42944     838.5889     451.1211   1416.42944     838.5889     451.1211
   1416.41418     839.5545     451.0606   1416.41418     839.5545     451.0606
   1416.39893     839.2153     451.7475   1416.39893     839.2153     451.7475
   1416.38367     837.6096     451.8034   1416.38367     837.6096     451.8034
   1416.36841     838.1313     451.7126   1416.36841     838.1313     451.7126
   1416.35315     837.2502     451.8324   1416.35315     837.2502     451.8324
   1416.33789     840.6210     451.5949   1416.33789     840.6210     451.5949
   1416.32263     837.5400     452.7108   1416.32263     837.5400     452.7108
   1416.30737     838.2278     452.8788   1416.30737     838.2278     452.8788
   1416.29211     837.3593     452.3576   1416.29211     837.3593     452.3576
   1416.27686     837.5209     451.7758   1416.27686     837.5209     451.7758
   1416.26160     836.9964     451.3822   1416.26160     836.9964     451.3822
   1416.24634     836.8649     451.6817   1416.24634     836.8649     451.6817
   1416.23108     837.2337     451.9106   1416.23108     837.2337     451.9106
   1416.21582     838.2217     451.6151   1416.21582     838.2217     451.6151
   1416.20056     834.9335     451.2492   1416.20056     834.9335     451.2492
   1416.18530     834.0644     451.6054   1416.18530     834.0644     451.6054
   1416.17004     834.8220     451.1253   1416.17004     834.8220     451.1253
   1416.15479     836.2269     450.4625   1416.15479     836.2269     450.4625
   1416.13953     832.2061     450.6727   1416.13953     832.2061     450.6727
   1416.12427     832.2950     450.4706   1416.12427     832.2950     450.4706
   1416.10901     831.6501     451.2540   1416.10901     831.6501     451.2540
   1416.09375     830.9430     449.8261   1416.09375     830.9430     449.8261
   1416.07849     830.9223     450.3988   1416.07849     830.9223     450.3988
   1416.06323     831.5264     449.9629   1416.06323     831.5264     449.9629
   1416.04797     829.4899     449.0239   1416.04797     829.4899     449.0239
   1416.03271     829.5051     449.2637   1416.03271     829.5051     449.2637
   1416.01746     828.6765     448.7707   1416.01746     828.6765     448.7707
   1416.00220     828.3566     447.5967   1416.00220     828.3566     447.5967
   1415.98694     828.4689     449.0667   1415.98694     828.4689     449.0667
   1415.97168     827.4991     447.2201   1415.97168     827.4991     447.2201
   1415.95642     825.4441     447.9197   1415.95642     825.4441     447.9197
   1415.94116     826.9670     446.7401   1415.94116     826.9670     446.7401
   1415.92590     825.3580     447.1364   1415.92590     825.3580     447.1364
   1415.91064     824.0474     446.3192   1415.91064     824.0474     446.3192
   1415.89539     823.3965     446.0749   1415.89539     823.3965     446.0749
   1415.88013     823.2393     445.4121   1415.88013     823.2393     445.4121
   1415.86487     820.9316     444.9986   1415.86487     820.9316     444.9986
   1415.84961     823.1584     444.9028   1415.84961     823.1584     444.9028
   1415.83435     821.9673     443.9074   1415.83435     821.9673     443.9074
   1415.81909     821.0416     443.6530   1415.81909     821.0416     443.6530
   1415.80383     818.8406     443.5145   1415.80383     818.8406     443.5145
   1415.78857     818.1934     443.2966   1415.78857     818.1934     443.2966
   1415.77332     817.0526     441.7502   1415.77332     817.0526     441.7502
   1415.75806     815.6337     442.1241   1415.75806     815.6337     442.1241
   1415.74280     816.0000     441.5886   1415.74280     816.0000     441.5886
   1415.72754     814.0168     441.6112   1415.72754     814.0168     441.6112
   1415.71228     813.3819     440.4983   1415.71228     813.3819     440.4983
   1415.69702     813.1761     440.5965   1415.69702     813.1761     440.5965
   1415.68176     811.1339     439.8825   1415.68176     811.1339     439.8825
   1415.66650     809.8902     438.6341   1415.66650     809.8902     438.6341
   1415.65125     810.0009     438.3011   1415.65125     810.0009     438.3011
   1415.63599     808.8069     439.1271   1415.63599     808.8069     439.1271
   1415.62073     808.1822     437.8070   1415.62073     808.1822     437.8070
   1415.60547     807.8085     437.8944   1415.60547     807.8085     437.8944
   1415.59021     805.7767     436.3247   1415.59021     805.7767     436.3247
   1415.57495     805.6957     435.3411   1415.57495     805.6957     435.3411
   1415.55969     804.8239     435.6140   1415.55969     804.8239     435.6140
   1415.54443     802.4928     435.3249   1415.54443     802.4928     435.3249
   1415.52917     802.0096     435.1335   1415.52917     802.0096     435.1335
   1415.51392     801.0163     434.1936   1415.51392     801.0163     434.1936
   1415.49866     801.4680     433.5768   1415.49866     801.4680     433.5768
   1415.48340     798.9439     431.7937   1415.48340     798.9439     431.7937
   1415.46814     797.6949     432.4778   1415.46814     797.6949     432.4778
   1415.45288     800.4305     432.4247   1415.45288     800.4305     432.4247
   1415.43762     795.2509     431.6698   1415.43762     795.2509     431.6698
   1415.42236     794.7395     430.7934   1415.42236     794.7395     430.7934
   1415.40710     792.3254     429.6352   1415.40710     792.3254     429.6352
   1415.39185     793.0427     429.0461   1415.39185     793.0427     429.0461
   1415.37659     791.1368     427.6251   1415.37659     791.1368     427.6251
   1415.36133     789.3832     427.7051   1415.36133     789.3832     427.7051
   1415.34607     788.0109     427.1505   1415.34607     788.0109     427.1505
   1415.33081     787.6616     427.1458   1415.33081     787.6616     427.1458
   1415.31555     785.6170     425.9347   1415.31555     785.6170     425.9347
   1415.30029     785.6703     425.7576   1415.30029     785.6703     425.7576
   1415.28503     783.1854     425.2211   1415.28503     783.1854     425.2211
   1415.26978     781.5321     424.4469   1415.26978     781.5321     424.4469
   1415.25452     781.5101     424.1089   1415.25452     781.5101     424.1089
   1415.23926     779.0970     423.0594   1415.23926     779.0970     423.0594
   1415.22400     777.7848     421.6682   1415.22400     777.7848     421.6682
   1415.20874     775.8060     421.2111   1415.20874     775.8060     421.2111
   1415.19348     774.6992     420.8476   1415.19348     774.6992     420.8476
   1415.17822     773.0298     420.3312   1415.17822     773.0298     420.3312
   1415.16296     771.9734     419.7522   1415.16296     771.9734     419.7522
   1415.14771     770.0707     418.2124   1415.14771     770.0707     418.2124
   1415.13245     768.0112     417.4851   1415.13245     768.0112     417.4851
   1415.11719     768.2327     417.0580   1415.11719     768.2327     417.0580
   1415.10193     767.2505     416.5646   1415.10193     767.2505     416.5646
   1415.08667     764.8095     415.6343   1415.08667     764.8095     415.6343
   1415.07141     763.1472     415.0301   1415.07141     763.1472     415.0301
   1415.05615     760.9535     414.5066   1415.05615     760.9535     414.5066
   1415.04089     759.5333     412.5468   1415.04089     759.5333     412.5468
   1415.02563     758.3425     412.6577   1415.02563     758.3425     412.6577
   1415.01038     757.2645     411.7044   1415.01038     757.2645     411.7044
   1414.99512     754.7667     410.7348   1414.99512     754.7667     410.7348
   1414.97986     752.3983     410.3413   1414.97986     752.3983     410.3413
   1414.96460     751.6698     408.7639   1414.96460     751.6698     408.7639
   1414.94934     750.2878     408.4270   1414.94934     750.2878     408.4270
   1414.93408     747.3993     407.2130   1414.93408     747.3993     407.2130
   1414.91882     746.8677     407.2606   1414.91882     746.8677     407.2606
   1414.90356     744.4403     405.9380   1414.90356     744.4403     405.9380
   1414.88831     742.9858     405.0605   1414.88831     742.9858     405.0605
   1414.87305     739.9590     404.3341   1414.87305     739.9590     404.3341
   1414.85779     738.9477     404.0913   1414.85779     738.9477     404.0913
   1414.84253     738.9702     402.9754   1414.84253     738.9702     402.9754
   1414.82727     734.8245     401.2218   1414.82727     734.8245     401.2218
   1414.81201     732.6857     400.1011   1414.81201     732.6857     400.1011
   1414.79675     731.9948     399.4506   1414.79675     731.9948     399.4506
   1414.78149     728.8059     398.3742   1414.78149     728.8059     398.3742
   1414.76624     727.8360     397.6795   1414.76624     727.8360     397.6795
   1414.75098     725.5789     396.1609   1414.75098     725.5789     396.1609
   1414.73572     723.8491     395.6841   1414.73572     723.8491     395.6841
   1414.72046     722.1971     394.1250   1414.72046     722.1971     394.1250
   1414.70520     719.6885     393.6442   1414.70520     719.6885     393.6442
   1414.68994     717.7675     393.3506   1414.68994     717.7675     393.3506
   1414.67468     714.4728     391.3027   1414.67468     714.4728     391.3027
   1414.65942     712.3738     390.5763   1414.65942     712.3738     390.5763
   1414.64417     711.8931     389.5992   1414.64417     711.8931     389.5992
   1414.62891     709.4476     388.7199   1414.62891     709.4476     388.7199
   1414.61365     706.8026     387.5176   1414.61365     706.8026     387.5176
   1414.59839     704.1851     386.3548   1414.59839     704.1851     386.3548
   1414.58313     701.7255     385.5471   1414.58313     701.7255     385.5471
   1414.56787     698.5190     383.4898   1414.56787     698.5190     383.4898
   1414.55261     698.0936     383.0350   1414.55261     698.0936     383.0350
   1414.53735     695.7398     382.0610   1414.53735     695.7398     382.0610
   1414.52209     693.8961     381.0713   1414.52209     693.8961     381.0713
   1414.50684     691.0223     380.0320   1414.50684     691.0223     380.0320
   1414.49158     688.5596     379.2903   1414.49158     688.5596     379.2903
   1414.47632     685.3929     377.9197   1414.47632     685.3929     377.9197
   1414.46106     683.4442     375.6519   1414.46106     683.4442     375.6519
   1414.44580     680.9409     375.4627   1414.44580     680.9409     375.4627
   1414.43054     679.3215     374.4245   1414.43054     679.3215     374.4245
   1414.41528     677.4439     373.0857   1414.41528     677.4439     373.0857
   1414.40002     674.1353     371.9612   1414.40002     674.1353     371.9612
   1414.38477     672.4133     371.1136   1414.38477     672.4133     371.1136
   1414.36951     668.5639     369.2571   1414.36951     668.5639     369.2571
   1414.35425     666.0203     368.4659   1414.35425     666.0203     368.4659
   1414.33899     664.7314     367.2853   1414.33899     664.7314     367.2853
   1414.32373     662.4591     365.7074   1414.32373     662.4591     365.7074
   1414.30847     659.8044     364.4051   1414.30847     659.8044     364.4051
   1414.29321     655.6900     362.7653   1414.29321     655.6900     362.7653
   1414.27795     653.4916     361.9638   1414.27795     653.4916     361.9638
   1414.26270     650.7142     360.9583   1414.26270     650.7142     360.9583
   1414.24744     648.8710     359.2621   1414.24744     648.8710     359.2621
   1414.23218     645.7356     358.2839   1414.23218     645.7356     358.2839
   1414.21692     643.7399     356.9911   1414.21692     643.7399     356.9911
   1414.20166     639.9762     355.3014   1414.20166     639.9762     355.3014
   1414.18640     637.5709     354.4398   1414.18640     637.5709     354.4398
   1414.17114     635.0038     353.0263   1414.17114     635.0038     353.0263
   1414.15588     633.4653     351.7342   1414.15588     633.4653     351.7342
   1414.14062     629.0993     349.8840   1414.14062     629.0993     349.8840
   1414.12537     626.8273     349.0555   1414.12537     626.8273     349.0555
   1414.11011     624.7380     347.8882   1414.11011     624.7380     347.8882
   1414.09485     620.7310     346.7975   1414.09485     620.7310     346.7975
   1414.07959     618.3319     345.7846   1414.07959     618.3319     345.7846
   1414.06433     616.3997     343.4947   1414.06433     616.3997     343.4947
   1414.04907     613.3857     342.8620   1414.04907     613.3857     342.8620
   1414.03381     610.7220     341.1124   1414.03381     610.7220     341.1124
   1414.01855     607.8339     339.9393   1414.01855     607.8339     339.9393
   1414.00330     634.6316     346.5057   1414.00330     634.6316     346.5057
   1413.98804     604.3541     337.7112   1413.98804     604.3541     337.7112
   1413.97278     598.5274     335.3214   1413.97278     598.5274     335.3214
   1413.95752     596.9053     334.2778   1413.95752     596.9053     334.2778
   1413.94226     592.6428     332.6473   1413.94226     592.6428     332.6473
   1413.92700     590.0278     330.9188   1413.92700     590.0278     330.9188
   1413.91174     587.8867     330.0561   1413.91174     587.8867     330.0561
   1413.89648     584.6979     328.5159   1413.89648     584.6979     328.5159
   1413.88123     581.3950     327.4520   1413.88123     581.3950     327.4520
   1413.86597     578.8211     325.7314   1413.86597     578.8211     325.7314
   1413.85071     576.2523     324.3801   1413.85071     576.2523     324.3801
   1413.83545     572.9753     323.1832   1413.83545     572.9753     323.1832
   1413.82019     570.6657     321.4618   1413.82019     570.6657     321.4618
   1413.80493     566.3629     320.3190   1413.80493     566.3629     320.3190
   1413.78967     563.4540     318.8611   1413.78967     563.4540     318.8611
   1413.77441     561.3043     317.3147   1413.77441     561.3043     317.3147
   1413.75916     558.0679     315.7720   1413.75916     558.0679     315.7720
   1413.74390     555.1874     314.2990   1413.74390     555.1874     314.2990
   1413.72864     552.3063     313.2876   1413.72864     552.3063     313.2876
   1413.71338     549.2770     311.3324   1413.71338     549.2770     311.3324
   1413.69812     545.6536     309.9264   1413.69812     545.6536     309.9264
   1413.68286     544.3161     308.7328   1413.68286     544.3161     308.7328
   1413.66760     540.9367     307.3056   1413.66760     540.9367     307.3056
   1413.65234     537.2787     306.3640   1413.65234     537.2787     306.3640
   1413.63708     534.7564     304.7238   1413.63708     534.7564     304.7238
   1413.62183     532.2245     303.1942   1413.62183     532.2245     303.1942
   1413.60657     527.8165     302.2121   1413.60657     527.8165     302.2121
   1413.59131     525.8401     300.4074   1413.59131     525.8401     300.4074
   1413.57605     522.6520     298.6807   1413.57605     522.6520     298.6807
   1413.56079     519.8379     297.8500   1413.56079     519.8379     297.8500
   1413.54553     517.6683     295.9175   1413.54553     517.6683     295.9175
   1413.53027     513.8551     295.0583   1413.53027     513.8551     295.0583
   1413.51501     511.9503     293.6196   1413.51501     511.9503     293.6196
   1413.49976     508.6133     291.7504   1413.49976     508.6133     291.7504
   1413.48450     505.6759     290.7058   1413.48450     505.6759     290.7058
   1413.46924     502.5534     289.2487   1413.46924     502.5534     289.2487
   1413.45398     499.6719     288.6973   1413.45398     499.6719     288.6973
   1413.43872     496.9037     287.0642   1413.43872     496.9037     287.0642
   1413.42346     494.3256     285.1013   1413.42346     494.3256     285.1013
   1413.40820     491.1098     283.8208   1413.40820     491.1098     283.8208
   1413.39294     488.4238     282.6413   1413.39294     488.4238     282.6413
   1413.37769     485.9690     281.6879   1413.37769     485.9690     281.6879
   1413.36243     483.2422     280.0182   1413.36243     483.2422     280.0182
   1413.34717     480.4508     279.0579   1413.34717     480.4508     279.0579
   1413.33191     477.3989     278.2737   1413.33191     477.3989     278.2737
   1413.31665     475.0289     276.2552   1413.31665     475.0289     276.2552
   1413.30139     471.8494     275.0113   1413.30139     471.8494     275.0113
   1413.28613     470.1670     274.0034   1413.28613     470.1670     274.0034
   1413.27087     467.2804     272.9413   1413.27087     467.2804     272.9413
   1413.25562     465.1099     271.5037   1413.25562     465.1099     271.5037
   1413.24036     462.5630     270.3154   1413.24036     462.5630     270.3154
   1413.22510     459.5931     269.2897   1413.22510     459.5931     269.2897
   1413.20984     456.8316     267.8748   1413.20984     456.8316     267.8748
   1413.19458     454.5173     266.8882   1413.19458     454.5173     266.8882
   1413.17932     451.5852     265.9410   1413.17932     451.5852     265.9410
   1413.16406     449.6873     264.6430   1413.16406     449.6873     264.6430
   1413.14880     447.3324     263.8119   1413.14880     447.3324     263.8119
   1413.13354     444.9800     262.6918   1413.13354     444.9800     262.6918
   1413.11829     442.7974     261.7486   1413.11829     442.7974     261.7486
   1413.10303     439.8830     260.4945   1413.10303     439.8830     260.4945
   1413.08777     437.9339     259.2035   1413.08777     437.9339     259.2035
   1413.07251     436.1092     258.8754   1413.07251     436.1092     258.8754
   1413.05725     433.4643     257.8322   1413.05725     433.4643     257.8322
   1413.04199     430.1895     256.9708   1413.04199     430.1895     256.9708
   1413.02673     428.9703     256.0018   1413.02673     428.9703     256.0018
   1413.01147     426.8170     255.4686   1413.01147     426.8170     255.4686
   1412.99622     425.1391     254.1447   1412.99622     425.1391     254.1447
   1412.98096     422.8956     253.5699   1412.98096     422.8956     253.5699
   1412.96570     421.0171     252.3239   1412.96570     421.0171     252.3239
   1412.95044     419.1350     251.7634   1412.95044     419.1350     251.7634
   1412.93518     417.1100     250.7819   1412.93518     417.1100     250.7819
   1412.91992     415.1180     250.2725   1412.91992     415.1180     250.2725
   1412.90466     412.9395     249.0683   1412.90466     412.9395     249.0683
   1412.88940     410.8954     248.8054   1412.88940     410.8954     248.8054
   1412.87415     409.8488     247.6296   1412.87415     409.8488     247.6296
   1412.85889     407.5820     247.4195   1412.85889     407.5820     247.4195
   1412.84363     406.2488     247.0648   1412.84363     406.2488     247.0648
   1412.82837     404.3706     246.3837   1412.82837     404.3706     246.3837
   1412.81311     402.4442     245.3985   1412.81311     402.4442     245.3985
   1412.79785     401.2649     244.8055   1412.79785     401.2649     244.8055
   1412.78259     399.3584     244.7919   1412.78259     399.3584     244.7919
   1412.76733     398.7125     244.2990   1412.76733     398.7125     244.2990
   1412.75208     397.3745     243.6053   1412.75208     397.3745     243.6053
   1412.73682     395.1101     243.5003   1412.73682     395.1101     243.5003
   1412.72156     394.8362     243.2938   1412.72156     394.8362     243.2938
   1412.70630     392.0223     243.0017   1412.70630     392.0223     243.0017
   1412.69104     391.9101     241.9740   1412.69104     391.9101     241.9740
   1412.67578     390.6942     241.7723   1412.67578     390.6942     241.7723
   1412.66052     389.0829     241.8694   1412.66052     389.0829     241.8694
   1412.64526     388.3953     241.2348   1412.64526     388.3953     241.2348
   1412.63000     387.7029     241.3406   1412.63000     387.7029     241.3406
   1412.61475     386.6479     241.4470   1412.61475     386.6479     241.4470
   1412.59949     385.0165     241.3274   1412.59949     385.0165     241.3274
   1412.58423     384.6074     240.8768   1412.58423     384.6074     240.8768
   1412.56897     383.9028     241.1306   1412.56897     383.9028     241.1306
   1412.55371     383.1271     241.0983   1412.55371     383.1271     241.0983
   1412.53845     382.4985     241.1422   1412.53845     382.4985     241.1422
   1412.52319     381.7004     241.2936   1412.52319     381.7004     241.2936
   1412.50793     381.6595     240.9934   1412.50793     381.6595     240.9934
   1412.49268     380.8078     241.4999   1412.49268     380.8078     241.4999
   1412.47742     380.3036     241.8348   1412.47742     380.3036     241.8348
   1412.46216     379.1359     241.6406   1412.46216     379.1359     241.6406
   1412.44690     378.8925     241.8376   1412.44690     378.8925     241.8376
   1412.43164     379.2847     242.4339   1412.43164     379.2847     242.4339
   1412.41638     379.1635     243.0332   1412.41638     379.1635     243.0332
   1412.40112     378.4903     243.2679   1412.40112     378.4903     243.2679
   1412.38586     378.9132     243.2665   1412.38586     378.9132     243.2665
   1412.37061     378.1781     243.8816   1412.37061     378.1781     243.8816
   1412.35535     378.4529     244.4023   1412.35535     378.4529     244.4023
   1412.34009     378.4352     244.9554   1412.34009     378.4352     244.9554
   1412.32483     379.2589     245.6719   1412.32483     379.2589     245.6719
   1412.30957     378.7782     245.6929   1412.30957     378.7782     245.6929
   1412.29431     379.3199     246.7911   1412.29431     379.3199     246.7911
   1412.27905     379.0817     247.2975   1412.27905     379.0817     247.2975
   1412.26379     379.5527     247.7202   1412.26379     379.5527     247.7202
   1412.24854     379.2227     248.3025   1412.24854     379.2227     248.3025
   1412.23328     380.1481     249.2551   1412.23328     380.1481     249.2551
   1412.21802     380.8626     250.2945   1412.21802     380.8626     250.2945
   1412.20276     381.8293     250.8976   1412.20276     381.8293     250.8976