#     FILENAME=!Skynet_57528_lach-hhg-115_20387_20939.cyb.fits
#     BASENAME=Skynet_57528_lach-hhg-115_20387_20939
#     SRC_NAME=lach-hhg-115
#     OBSERVER=hhgmadison16_9500
#     DATE_OBS=2016-05-20T16:27:42.500
#        OBSID=20387
#      SCANNUM=20939
#          MJD=57528.6870
#          UTC=59351
#     SCANTYPE=track
#     DATAMODE=HIRES
#     TUNEFREQ=1420.0000
# Actual_FREQ1=1420.0000
# Actual_FREQ2=1420.0000
#    LO1Tuning=6870.000
#     RFFILTER=1355_1435
#        OBSBW=-15.6250
#        NCHAN=1024 
#        FOCUS=37.0709
#           RA=23:43:31.73
#          DEC=61:49:14.71
#      RA(hrs)=23.725500
#     DEC(deg)=61.820800
#    AZIM(deg)=323.859
#    ELEV(deg)=51.754
#     IFattens=10.00, 10.00
#      WARNING=None
#    TCAL_XL1=7.9635
#    TCAL_YR1=9.1340
#    TCAL_XL2=7.9635
#    TCAL_YR2=9.1340
#     TRX_XL1=11.7060
#     TRX_YR1=11.7060
#     TRX_XL2=11.7060
#     TRX_YR2=11.7060
#        TAVE=1.0000
#Freq1(MHz)          XL1          YR1  Freq2(MHz)          XL2          YR2 

   1427.81250     299.3160     277.8448   1427.81250     299.3160     277.8448
   1427.79724     299.6304     278.4968   1427.79724     299.6304     278.4968
   1427.78198     300.7291     279.4025   1427.78198     300.7291     279.4025
   1427.76672     301.0592     280.4766   1427.76672     301.0592     280.4766
   1427.75146     301.8234     280.9299   1427.75146     301.8234     280.9299
   1427.73621     302.3509     281.8829   1427.73621     302.3509     281.8829
   1427.72095     303.3364     283.4610   1427.72095     303.3364     283.4610
   1427.70569     304.1395     283.7385   1427.70569     304.1395     283.7385
   1427.69043     305.2417     285.1664   1427.69043     305.2417     285.1664
   1427.67517     306.1397     285.6570   1427.67517     306.1397     285.6570
   1427.65991     306.8384     286.9119   1427.65991     306.8384     286.9119
   1427.64465     307.5863     287.4811   1427.64465     307.5863     287.4811
   1427.62939     308.7393     288.6576   1427.62939     308.7393     288.6576
   1427.61414     309.8862     290.0283   1427.61414     309.8862     290.0283
   1427.59888     310.5677     290.9865   1427.59888     310.5677     290.9865
   1427.58362     312.5882     292.6534   1427.58362     312.5882     292.6534
   1427.56836     312.9854     293.7647   1427.56836     312.9854     293.7647
   1427.55310     313.9630     295.0598   1427.55310     313.9630     295.0598
   1427.53784     315.2925     296.7657   1427.53784     315.2925     296.7657
   1427.52258     317.1518     298.3964   1427.52258     317.1518     298.3964
   1427.50732     318.7205     299.3053   1427.50732     318.7205     299.3053
   1427.49207     319.5514     300.7320   1427.49207     319.5514     300.7320
   1427.47681     321.1784     302.0435   1427.47681     321.1784     302.0435
   1427.46155     322.7330     304.0241   1427.46155     322.7330     304.0241
   1427.44629     323.9417     305.3922   1427.44629     323.9417     305.3922
   1427.43103     325.2892     307.1775   1427.43103     325.2892     307.1775
   1427.41577     327.3515     308.2736   1427.41577     327.3515     308.2736
   1427.40051     328.4320     309.9692   1427.40051     328.4320     309.9692
   1427.38525     330.2323     312.2708   1427.38525     330.2323     312.2708
   1427.37000     331.4622     314.1404   1427.37000     331.4622     314.1404
   1427.35474     333.7257     315.5645   1427.35474     333.7257     315.5645
   1427.33948     334.9729     317.0938   1427.33948     334.9729     317.0938
   1427.32422     337.1798     319.2719   1427.32422     337.1798     319.2719
   1427.30896     338.6054     321.0045   1427.30896     338.6054     321.0045
   1427.29370     340.6634     323.2235   1427.29370     340.6634     323.2235
   1427.27844     342.0094     324.9843   1427.27844     342.0094     324.9843
   1427.26318     343.6960     326.8813   1427.26318     343.6960     326.8813
   1427.24792     346.2271     328.8888   1427.24792     346.2271     328.8888
   1427.23267     348.5587     331.1616   1427.23267     348.5587     331.1616
   1427.21741     350.1574     332.9514   1427.21741     350.1574     332.9514
   1427.20215     351.9948     335.2779   1427.20215     351.9948     335.2779
   1427.18689     353.6896     337.0172   1427.18689     353.6896     337.0172
   1427.17163     355.7365     339.3880   1427.17163     355.7365     339.3880
   1427.15637     357.6892     341.2962   1427.15637     357.6892     341.2962
   1427.14111     360.7557     343.4904   1427.14111     360.7557     343.4904
   1427.12585     362.7253     345.3802   1427.12585     362.7253     345.3802
   1427.11060     364.4894     347.8880   1427.11060     364.4894     347.8880
   1427.09534     366.7101     350.1434   1427.09534     366.7101     350.1434
   1427.08008     368.7064     352.6453   1427.08008     368.7064     352.6453
   1427.06482     370.9204     354.7661   1427.06482     370.9204     354.7661
   1427.04956     373.2699     357.2739   1427.04956     373.2699     357.2739
   1427.03430     375.0916     359.5586   1427.03430     375.0916     359.5586
   1427.01904     377.7569     361.5254   1427.01904     377.7569     361.5254
   1427.00378     379.6588     363.9639   1427.00378     379.6588     363.9639
   1426.98853     382.1801     366.3510   1426.98853     382.1801     366.3510
   1426.97327     384.1620     369.1855   1426.97327     384.1620     369.1855
   1426.95801     386.6023     371.0951   1426.95801     386.6023     371.0951
   1426.94275     389.3924     373.7642   1426.94275     389.3924     373.7642
   1426.92749     391.2692     375.7374   1426.92749     391.2692     375.7374
   1426.91223     393.8500     378.5392   1426.91223     393.8500     378.5392
   1426.89697     395.9070     380.2498   1426.89697     395.9070     380.2498
   1426.88171     398.8987     382.7306   1426.88171     398.8987     382.7306
   1426.86646     401.1378     386.0673   1426.86646     401.1378     386.0673
   1426.85120     403.2370     388.3860   1426.85120     403.2370     388.3860
   1426.83594     405.7203     390.2462   1426.83594     405.7203     390.2462
   1426.82068     408.2971     392.9565   1426.82068     408.2971     392.9565
   1426.80542     411.1267     395.6028   1426.80542     411.1267     395.6028
   1426.79016     412.8227     397.9919   1426.79016     412.8227     397.9919
   1426.77490     415.6431     401.2874   1426.77490     415.6431     401.2874
   1426.75964     417.9746     403.5304   1426.75964     417.9746     403.5304
   1426.74438     420.2958     405.7966   1426.74438     420.2958     405.7966
   1426.72913     423.1568     407.9088   1426.72913     423.1568     407.9088
   1426.71387     424.7516     410.5024   1426.71387     424.7516     410.5024
   1426.69861     427.9550     412.6852   1426.69861     427.9550     412.6852
   1426.68335     429.2086     415.7893   1426.68335     429.2086     415.7893
   1426.66809     431.3714     418.1404   1426.66809     431.3714     418.1404
   1426.65283     434.8317     421.4369   1426.65283     434.8317     421.4369
   1426.63757     437.5621     423.3215   1426.63757     437.5621     423.3215
   1426.62231     440.3667     425.6454   1426.62231     440.3667     425.6454
   1426.60706     441.5786     428.1499   1426.60706     441.5786     428.1499
   1426.59180     444.8290     430.2441   1426.59180     444.8290     430.2441
   1426.57654     447.2648     433.3694   1426.57654     447.2648     433.3694
   1426.56128     449.4890     436.1844   1426.56128     449.4890     436.1844
   1426.54602     451.6915     438.7286   1426.54602     451.6915     438.7286
   1426.53076     453.5400     440.5187   1426.53076     453.5400     440.5187
   1426.51550     456.2638     443.4743   1426.51550     456.2638     443.4743
   1426.50024     459.0473     446.0562   1426.50024     459.0473     446.0562
   1426.48499     461.3195     448.7552   1426.48499     461.3195     448.7552
   1426.46973     464.2149     451.9845   1426.46973     464.2149     451.9845
   1426.45447     466.6098     453.5422   1426.45447     466.6098     453.5422
   1426.43921     468.5247     456.0990   1426.43921     468.5247     456.0990
   1426.42395     470.9918     458.1410   1426.42395     470.9918     458.1410
   1426.40869     472.8779     461.1461   1426.40869     472.8779     461.1461
   1426.39343     475.5346     463.7416   1426.39343     475.5346     463.7416
   1426.37817     477.6487     465.4712   1426.37817     477.6487     465.4712
   1426.36292     480.3425     468.1011   1426.36292     480.3425     468.1011
   1426.34766     483.2801     469.9883   1426.34766     483.2801     469.9883
   1426.33240     483.9228     472.5275   1426.33240     483.9228     472.5275
   1426.31714     486.7675     476.2406   1426.31714     486.7675     476.2406
   1426.30188     489.4645     478.3305   1426.30188     489.4645     478.3305
   1426.28662     491.6454     480.2751   1426.28662     491.6454     480.2751
   1426.27136     494.1875     482.9612   1426.27136     494.1875     482.9612
   1426.25610     495.8128     485.1712   1426.25610     495.8128     485.1712
   1426.24084     498.8352     487.4737   1426.24084     498.8352     487.4737
   1426.22559     500.3167     489.2103   1426.22559     500.3167     489.2103
   1426.21033     502.7112     492.4432   1426.21033     502.7112     492.4432
   1426.19507     504.8066     493.5778   1426.19507     504.8066     493.5778
   1426.17981     506.4401     496.5583   1426.17981     506.4401     496.5583
   1426.16455     509.0010     499.0687   1426.16455     509.0010     499.0687
   1426.14929     510.7315     501.1652   1426.14929     510.7315     501.1652
   1426.13403     512.7064     503.2762   1426.13403     512.7064     503.2762
   1426.11877     515.1342     505.1462   1426.11877     515.1342     505.1462
   1426.10352     517.3990     508.1826   1426.10352     517.3990     508.1826
   1426.08826     518.7827     509.8400   1426.08826     518.7827     509.8400
   1426.07300     520.9766     512.2874   1426.07300     520.9766     512.2874
   1426.05774     522.5287     514.5474   1426.05774     522.5287     514.5474
   1426.04248     524.8295     517.3745   1426.04248     524.8295     517.3745
   1426.02722     526.7458     519.4942   1426.02722     526.7458     519.4942
   1426.01196     528.3456     521.3087   1426.01196     528.3456     521.3087
   1425.99670     530.6038     522.8253   1425.99670     530.6038     522.8253
   1425.98145     532.5157     526.0244   1425.98145     532.5157     526.0244
   1425.96619     534.6506     527.6702   1425.96619     534.6506     527.6702
   1425.95093     535.8267     529.5886   1425.95093     535.8267     529.5886
   1425.93567     537.5957     531.8133   1425.93567     537.5957     531.8133
   1425.92041     539.3803     533.5861   1425.92041     539.3803     533.5861
   1425.90515     541.7097     536.0697   1425.90515     541.7097     536.0697
   1425.88989     542.9011     537.3461   1425.88989     542.9011     537.3461
   1425.87463     544.6104     538.9329   1425.87463     544.6104     538.9329
   1425.85938     546.3360     541.9252   1425.85938     546.3360     541.9252
   1425.84412     548.0420     542.9908   1425.84412     548.0420     542.9908
   1425.82886     549.1279     545.6445   1425.82886     549.1279     545.6445
   1425.81360     551.3745     547.0651   1425.81360     551.3745     547.0651
   1425.79834     552.2953     549.2682   1425.79834     552.2953     549.2682
   1425.78308     553.7413     550.8889   1425.78308     553.7413     550.8889
   1425.76782     555.0820     552.8409   1425.76782     555.0820     552.8409
   1425.75256     557.3138     554.3392   1425.75256     557.3138     554.3392
   1425.73730     558.3818     557.0295   1425.73730     558.3818     557.0295
   1425.72205     560.5917     558.5140   1425.72205     560.5917     558.5140
   1425.70679     561.6921     560.2725   1425.70679     561.6921     560.2725
   1425.69153     562.4208     561.7233   1425.69153     562.4208     561.7233
   1425.67627     563.2755     564.8033   1425.67627     563.2755     564.8033
   1425.66101     565.1652     565.8846   1425.66101     565.1652     565.8846
   1425.64575     566.6336     568.2745   1425.64575     566.6336     568.2745
   1425.63049     567.6993     569.6085   1425.63049     567.6993     569.6085
   1425.61523     568.5082     571.3673   1425.61523     568.5082     571.3673
   1425.59998     570.6781     572.4776   1425.59998     570.6781     572.4776
   1425.58472     571.6940     575.0104   1425.58472     571.6940     575.0104
   1425.56946     572.8745     574.9069   1425.56946     572.8745     574.9069
   1425.55420     574.0809     577.8754   1425.55420     574.0809     577.8754
   1425.53894     574.6835     579.2664   1425.53894     574.6835     579.2664
   1425.52368     576.1446     581.0880   1425.52368     576.1446     581.0880
   1425.50842     577.2628     582.5784   1425.50842     577.2628     582.5784
   1425.49316     578.6678     584.2166   1425.49316     578.6678     584.2166
   1425.47791     578.4917     584.9554   1425.47791     578.4917     584.9554
   1425.46265     580.0492     586.9625   1425.46265     580.0492     586.9625
   1425.44739     581.6029     589.1249   1425.44739     581.6029     589.1249
   1425.43213     582.2940     589.9528   1425.43213     582.2940     589.9528
   1425.41687     583.2149     591.7486   1425.41687     583.2149     591.7486
   1425.40161     584.1196     592.4448   1425.40161     584.1196     592.4448
   1425.38635     585.5435     594.7158   1425.38635     585.5435     594.7158
   1425.37109     586.6526     596.7723   1425.37109     586.6526     596.7723
   1425.35583     586.6150     597.7430   1425.35583     586.6150     597.7430
   1425.34058     587.2813     598.9673   1425.34058     587.2813     598.9673
   1425.32532     588.3052     600.1592   1425.32532     588.3052     600.1592
   1425.31006     588.7996     601.5037   1425.31006     588.7996     601.5037
   1425.29480     590.0159     603.0554   1425.29480     590.0159     603.0554
   1425.27954     590.7526     604.2634   1425.27954     590.7526     604.2634
   1425.26428     591.4014     605.0991   1425.26428     591.4014     605.0991
   1425.24902     592.5770     606.5457   1425.24902     592.5770     606.5457
   1425.23376     591.9215     608.2277   1425.23376     591.9215     608.2277
   1425.21851     593.7277     609.0165   1425.21851     593.7277     609.0165
   1425.20325     593.4173     610.8314   1425.20325     593.4173     610.8314
   1425.18799     594.3474     612.5703   1425.18799     594.3474     612.5703
   1425.17273     594.5065     613.0108   1425.17273     594.5065     613.0108
   1425.15747     594.5479     614.1684   1425.15747     594.5479     614.1684
   1425.14221     595.9136     614.8635   1425.14221     595.9136     614.8635
   1425.12695     596.4767     616.7592   1425.12695     596.4767     616.7592
   1425.11169     597.5552     618.0162   1425.11169     597.5552     618.0162
   1425.09644     597.2546     619.0064   1425.09644     597.2546     619.0064
   1425.08118     598.3838     619.7543   1425.08118     598.3838     619.7543
   1425.06592     597.9981     621.2770   1425.06592     597.9981     621.2770
   1425.05066     598.9864     622.0255   1425.05066     598.9864     622.0255
   1425.03540     598.5739     622.8463   1425.03540     598.5739     622.8463
   1425.02014     599.2654     624.8482   1425.02014     599.2654     624.8482
   1425.00488     599.8425     625.9475   1425.00488     599.8425     625.9475
   1424.98962     600.5657     626.5836   1424.98962     600.5657     626.5836
   1424.97437     601.0240     628.7396   1424.97437     601.0240     628.7396
   1424.95911     601.1334     629.8220   1424.95911     601.1334     629.8220
   1424.94385     601.0452     629.0178   1424.94385     601.0452     629.0178
   1424.92859     602.0321     629.5469   1424.92859     602.0321     629.5469
   1424.91333     601.5474     631.6624   1424.91333     601.5474     631.6624
   1424.89807     602.7258     633.3798   1424.89807     602.7258     633.3798
   1424.88281     603.7571     633.8616   1424.88281     603.7571     633.8616
   1424.86755     602.7136     635.1219   1424.86755     602.7136     635.1219
   1424.85229     604.0283     635.7344   1424.85229     604.0283     635.7344
   1424.83704     603.4603     636.2610   1424.83704     603.4603     636.2610
   1424.82178     602.5593     637.6103   1424.82178     602.5593     637.6103
   1424.80652     603.3614     639.0322   1424.80652     603.3614     639.0322
   1424.79126     604.0003     639.0624   1424.79126     604.0003     639.0624
   1424.77600     603.6833     641.3392   1424.77600     603.6833     641.3392
   1424.76074     602.7934     640.9871   1424.76074     602.7934     640.9871
   1424.74548     604.0220     642.2266   1424.74548     604.0220     642.2266
   1424.73022     603.9263     643.9261   1424.73022     603.9263     643.9261
   1424.71497     604.3261     643.2360   1424.71497     604.3261     643.2360
   1424.69971     604.1228     644.6670   1424.69971     604.1228     644.6670
   1424.68445     604.2183     645.9615   1424.68445     604.2183     645.9615
   1424.66919     604.7188     645.6401   1424.66919     604.7188     645.6401
   1424.65393     604.9733     646.7892   1424.65393     604.9733     646.7892
   1424.63867     603.6698     648.5212   1424.63867     603.6698     648.5212
   1424.62341     603.9568     648.8308   1424.62341     603.9568     648.8308
   1424.60815     604.9293     649.3125   1424.60815     604.9293     649.3125
   1424.59290     604.7754     648.7587   1424.59290     604.7754     648.7587
   1424.57764     605.1553     651.8528   1424.57764     605.1553     651.8528
   1424.56238     604.0836     651.4191   1424.56238     604.0836     651.4191
   1424.54712     603.7442     651.6434   1424.54712     603.7442     651.6434
   1424.53186     604.1423     653.8999   1424.53186     604.1423     653.8999
   1424.51660     603.6793     654.3549   1424.51660     603.6793     654.3549
   1424.50134     603.9429     654.8218   1424.50134     603.9429     654.8218
   1424.48608     603.6031     655.2148   1424.48608     603.6031     655.2148
   1424.47083     603.9041     656.8697   1424.47083     603.9041     656.8697
   1424.45557     604.5229     656.3557   1424.45557     604.5229     656.3557
   1424.44031     603.3074     656.4293   1424.44031     603.3074     656.4293
   1424.42505     604.5958     657.9007   1424.42505     604.5958     657.9007
   1424.40979     604.1924     657.8496   1424.40979     604.1924     657.8496
   1424.39453     603.8613     659.0073   1424.39453     603.8613     659.0073
   1424.37927     602.8322     659.3315   1424.37927     602.8322     659.3315
   1424.36401     603.6575     659.8843   1424.36401     603.6575     659.8843
   1424.34875     603.9294     661.3161   1424.34875     603.9294     661.3161
   1424.33350     602.9833     660.8536   1424.33350     602.9833     660.8536
   1424.31824     602.2756     661.2294   1424.31824     602.2756     661.2294
   1424.30298     602.5815     661.5348   1424.30298     602.5815     661.5348
   1424.28772     601.6348     661.7552   1424.28772     601.6348     661.7552
   1424.27246     602.2307     662.2841   1424.27246     602.2307     662.2841
   1424.25720     602.5770     663.5432   1424.25720     602.5770     663.5432
   1424.24194     602.9916     663.0869   1424.24194     602.9916     663.0869
   1424.22668     600.3810     663.5961   1424.22668     600.3810     663.5961
   1424.21143     601.0892     664.2389   1424.21143     601.0892     664.2389
   1424.19617     600.6267     665.8573   1424.19617     600.6267     665.8573
   1424.18091     601.2465     665.1967   1424.18091     601.2465     665.1967
   1424.16565     601.0483     665.8864   1424.16565     601.0483     665.8864
   1424.15039     600.1228     665.4281   1424.15039     600.1228     665.4281
   1424.13513     599.8111     665.5879   1424.13513     599.8111     665.5879
   1424.11987     600.5417     666.2288   1424.11987     600.5417     666.2288
   1424.10461     600.0262     666.7923   1424.10461     600.0262     666.7923
   1424.08936     601.1705     667.6309   1424.08936     601.1705     667.6309
   1424.07410     598.9858     667.7637   1424.07410     598.9858     667.7637
   1424.05884     599.6331     668.0341   1424.05884     599.6331     668.0341
   1424.04358     598.8793     668.0580   1424.04358     598.8793     668.0580
   1424.02832     599.7213     669.7246   1424.02832     599.7213     669.7246
   1424.01306     597.9879     668.7895   1424.01306     597.9879     668.7895
   1423.99780     597.7435     669.8443   1423.99780     597.7435     669.8443
   1423.98254     597.7980     669.3945   1423.98254     597.7980     669.3945
   1423.96729     597.8457     669.7703   1423.96729     597.8457     669.7703
   1423.95203     597.7566     671.3768   1423.95203     597.7566     671.3768
   1423.93677     596.7583     671.2634   1423.93677     596.7583     671.2634
   1423.92151     597.2346     670.1478   1423.92151     597.2346     670.1478
   1423.90625     596.3630     669.9341   1423.90625     596.3630     669.9341
   1423.89099     596.7361     671.0718   1423.89099     596.7361     671.0718
   1423.87573     595.8558     670.9496   1423.87573     595.8558     670.9496
   1423.86047     596.7926     671.2242   1423.86047     596.7926     671.2242
   1423.84521     596.1246     671.6539   1423.84521     596.1246     671.6539
   1423.82996     596.1765     671.7849   1423.82996     596.1765     671.7849
   1423.81470     594.1479     671.5054   1423.81470     594.1479     671.5054
   1423.79944     594.9299     671.0664   1423.79944     594.9299     671.0664
   1423.78418     594.3686     671.1350   1423.78418     594.3686     671.1350
   1423.76892     594.5009     671.6154   1423.76892     594.5009     671.6154
   1423.75366     595.1870     670.9236   1423.75366     595.1870     670.9236
   1423.73840     595.3016     671.5034   1423.73840     595.3016     671.5034
   1423.72314     593.2306     671.1320   1423.72314     593.2306     671.1320
   1423.70789     594.8402     671.2670   1423.70789     594.8402     671.2670
   1423.69263     592.9848     672.0704   1423.69263     592.9848     672.0704
   1423.67737     592.6058     671.2617   1423.67737     592.6058     671.2617
   1423.66211     592.7897     672.1254   1423.66211     592.7897     672.1254
   1423.64685     592.6886     671.3995   1423.64685     592.6886     671.3995
   1423.63159     592.0959     671.4927   1423.63159     592.0959     671.4927
   1423.61633     592.4810     670.0392   1423.61633     592.4810     670.0392
   1423.60107     591.6472     671.2654   1423.60107     591.6472     671.2654
   1423.58582     590.8115     670.4385   1423.58582     590.8115     670.4385
   1423.57056     590.2525     671.1951   1423.57056     590.2525     671.1951
   1423.55530     591.4865     670.4302   1423.55530     591.4865     670.4302
   1423.54004     590.1403     670.8471   1423.54004     590.1403     670.8471
   1423.52478     589.8335     669.6789   1423.52478     589.8335     669.6789
   1423.50952     589.1998     670.4440   1423.50952     589.1998     670.4440
   1423.49426     589.8471     669.0831   1423.49426     589.8471     669.0831
   1423.47900     589.0931     668.7794   1423.47900     589.0931     668.7794
   1423.46375     588.9951     669.6982   1423.46375     588.9951     669.6982
   1423.44849     588.3416     669.9135   1423.44849     588.3416     669.9135
   1423.43323     588.9778     668.7594   1423.43323     588.9778     668.7594
   1423.41797     588.5930     669.0016   1423.41797     588.5930     669.0016
   1423.40271     587.6501     668.5677   1423.40271     587.6501     668.5677
   1423.38745     588.1345     668.1595   1423.38745     588.1345     668.1595
   1423.37219     587.4216     667.4930   1423.37219     587.4216     667.4930
   1423.35693     588.4155     666.6643   1423.35693     588.4155     666.6643
   1423.34167     587.9127     667.5115   1423.34167     587.9127     667.5115
   1423.32642     586.9948     665.7951   1423.32642     586.9948     665.7951
   1423.31116     587.1180     666.8274   1423.31116     587.1180     666.8274
   1423.29590     585.1955     665.3629   1423.29590     585.1955     665.3629
   1423.28064     585.7130     664.8193   1423.28064     585.7130     664.8193
   1423.26538     585.9620     664.6897   1423.26538     585.9620     664.6897
   1423.25012     584.3454     664.3624   1423.25012     584.3454     664.3624
   1423.23486     585.5298     663.4586   1423.23486     585.5298     663.4586
   1423.21960     585.2445     663.3296   1423.21960     585.2445     663.3296
   1423.20435     584.7567     662.2051   1423.20435     584.7567     662.2051
   1423.18909     584.1737     662.5082   1423.18909     584.1737     662.5082
   1423.17383     584.3417     661.6799   1423.17383     584.3417     661.6799
   1423.15857     584.6068     661.5421   1423.15857     584.6068     661.5421
   1423.14331     583.5690     660.5513   1423.14331     583.5690     660.5513
   1423.12805     584.9587     660.2813   1423.12805     584.9587     660.2813
   1423.11279     584.1671     659.0908   1423.11279     584.1671     659.0908
   1423.09753     583.2867     658.1016   1423.09753     583.2867     658.1016
   1423.08228     583.5987     657.9697   1423.08228     583.5987     657.9697
   1423.06702     583.2933     656.9983   1423.06702     583.2933     656.9983
   1423.05176     582.5729     657.2643   1423.05176     582.5729     657.2643
   1423.03650     582.6834     655.8850   1423.03650     582.6834     655.8850
   1423.02124     581.5958     654.6132   1423.02124     581.5958     654.6132
   1423.00598     581.9538     654.2630   1423.00598     581.9538     654.2630
   1422.99072     582.1130     654.1558   1422.99072     582.1130     654.1558
   1422.97546     581.0861     652.1025   1422.97546     581.0861     652.1025
   1422.96021     581.0339     651.8685   1422.96021     581.0339     651.8685
   1422.94495     580.8549     650.5234   1422.94495     580.8549     650.5234
   1422.92969     580.4648     650.1282   1422.92969     580.4648     650.1282
   1422.91443     580.4797     650.0998   1422.91443     580.4797     650.0998
   1422.89917     580.8259     649.1622   1422.89917     580.8259     649.1622
   1422.88391     580.1784     647.3760   1422.88391     580.1784     647.3760
   1422.86865     580.2286     647.0410   1422.86865     580.2286     647.0410
   1422.85339     579.9711     645.6578   1422.85339     579.9711     645.6578
   1422.83813     579.6931     644.4733   1422.83813     579.6931     644.4733
   1422.82288     579.5922     645.1498   1422.82288     579.5922     645.1498
   1422.80762     578.6677     642.5737   1422.80762     578.6677     642.5737
   1422.79236     578.6647     642.1860   1422.79236     578.6647     642.1860
   1422.77710     579.3390     641.5201   1422.77710     579.3390     641.5201
   1422.76184     578.1719     641.2510   1422.76184     578.1719     641.2510
   1422.74658     578.9730     640.0052   1422.74658     578.9730     640.0052
   1422.73132     577.8217     638.7998   1422.73132     577.8217     638.7998
   1422.71606     578.5414     637.3454   1422.71606     578.5414     637.3454
   1422.70081     577.6365     637.1423   1422.70081     577.6365     637.1423
   1422.68555     577.0948     635.9352   1422.68555     577.0948     635.9352
   1422.67029     577.0829     635.9565   1422.67029     577.0829     635.9565
   1422.65503     577.8159     634.1693   1422.65503     577.8159     634.1693
   1422.63977     577.1645     633.0333   1422.63977     577.1645     633.0333
   1422.62451     577.3510     631.7388   1422.62451     577.3510     631.7388
   1422.60925     578.2363     630.7585   1422.60925     578.2363     630.7585
   1422.59399     576.9208     629.6340   1422.59399     576.9208     629.6340
   1422.57874     576.5855     628.7640   1422.57874     576.5855     628.7640
   1422.56348     576.0393     627.9513   1422.56348     576.0393     627.9513
   1422.54822     576.3362     625.5891   1422.54822     576.3362     625.5891
   1422.53296     575.8972     625.1993   1422.53296     575.8972     625.1993
   1422.51770     575.9628     623.8271   1422.51770     575.9628     623.8271
   1422.50244     576.2849     623.5948   1422.50244     576.2849     623.5948
   1422.48718     574.9492     621.0221   1422.48718     574.9492     621.0221
   1422.47192     575.1443     620.1130   1422.47192     575.1443     620.1130
   1422.45667     575.5453     619.6190   1422.45667     575.5453     619.6190
   1422.44141     574.7025     618.8006   1422.44141     574.7025     618.8006
   1422.42615     574.4645     617.2436   1422.42615     574.4645     617.2436
   1422.41089     573.6742     615.2018   1422.41089     573.6742     615.2018
   1422.39563     575.2094     614.1422   1422.39563     575.2094     614.1422
   1422.38037     573.4057     612.5392   1422.38037     573.4057     612.5392
   1422.36511     574.3226     612.4445   1422.36511     574.3226     612.4445
   1422.34985     572.8909     610.8143   1422.34985     572.8909     610.8143
   1422.33459     573.2813     609.8921   1422.33459     573.2813     609.8921
   1422.31934     573.1140     608.0504   1422.31934     573.1140     608.0504
   1422.30408     573.8247     606.1011   1422.30408     573.8247     606.1011
   1422.28882     572.1822     605.9153   1422.28882     572.1822     605.9153
   1422.27356     573.7275     605.1305   1422.27356     573.7275     605.1305
   1422.25830     573.1303     603.6047   1422.25830     573.1303     603.6047
   1422.24304     573.3839     602.3142   1422.24304     573.3839     602.3142
   1422.22778     572.4935     600.9165   1422.22778     572.4935     600.9165
   1422.21252     572.3991     600.6667   1422.21252     572.3991     600.6667
   1422.19727     571.7128     598.4169   1422.19727     571.7128     598.4169
   1422.18201     572.1334     596.8505   1422.18201     572.1334     596.8505
   1422.16675     572.3434     596.1313   1422.16675     572.3434     596.1313
   1422.15149     571.5051     594.8234   1422.15149     571.5051     594.8234
   1422.13623     571.1757     593.5092   1422.13623     571.1757     593.5092
   1422.12097     572.0916     591.2693   1422.12097     572.0916     591.2693
   1422.10571     571.4993     590.3613   1422.10571     571.4993     590.3613
   1422.09045     570.7492     588.9467   1422.09045     570.7492     588.9467
   1422.07520     570.7294     586.5345   1422.07520     570.7294     586.5345
   1422.05994     570.9694     585.5510   1422.05994     570.9694     585.5510
   1422.04468     571.9828     584.6878   1422.04468     571.9828     584.6878
   1422.02942     570.2794     582.6891   1422.02942     570.2794     582.6891
   1422.01416     570.1616     582.0286   1422.01416     570.1616     582.0286
   1421.99890     571.1028     580.6329   1421.99890     571.1028     580.6329
   1421.98364     570.2984     579.2427   1421.98364     570.2984     579.2427
   1421.96838     571.1267     578.3163   1421.96838     571.1267     578.3163
   1421.95312     570.0809     576.9015   1421.95312     570.0809     576.9015
   1421.93787     570.7438     575.0793   1421.93787     570.7438     575.0793
   1421.92261     569.0949     573.6078   1421.92261     569.0949     573.6078
   1421.90735     569.7811     572.0367   1421.90735     569.7811     572.0367
   1421.89209     568.9695     570.9546   1421.89209     568.9695     570.9546
   1421.87683     568.7002     569.4585   1421.87683     568.7002     569.4585
   1421.86157     569.6689     567.7449   1421.86157     569.6689     567.7449
   1421.84631     568.8109     565.5107   1421.84631     568.8109     565.5107
   1421.83105     568.8840     565.8030   1421.83105     568.8840     565.8030
   1421.81580     568.3186     564.6558   1421.81580     568.3186     564.6558
   1421.80054     569.5209     562.3619   1421.80054     569.5209     562.3619
   1421.78528     568.7989     561.0117   1421.78528     568.7989     561.0117
   1421.77002     568.2282     560.0599   1421.77002     568.2282     560.0599
   1421.75476     568.3632     558.7047   1421.75476     568.3632     558.7047
   1421.73950     567.7584     557.4794   1421.73950     567.7584     557.4794
   1421.72424     568.2772     555.3560   1421.72424     568.2772     555.3560
   1421.70898     567.1049     553.7057   1421.70898     567.1049     553.7057
   1421.69373     567.1027     552.0522   1421.69373     567.1027     552.0522
   1421.67847     566.8730     551.2518   1421.67847     566.8730     551.2518
   1421.66321     568.1965     550.1060   1421.66321     568.1965     550.1060
   1421.64795     567.7791     548.3624   1421.64795     567.7791     548.3624
   1421.63269     567.0732     547.4633   1421.63269     567.0732     547.4633
   1421.61743     566.4170     545.4041   1421.61743     566.4170     545.4041
   1421.60217     567.0472     544.6093   1421.60217     567.0472     544.6093
   1421.58691     566.4240     543.4706   1421.58691     566.4240     543.4706
   1421.57166     566.6124     541.3923   1421.57166     566.6124     541.3923
   1421.55640     566.7682     539.5759   1421.55640     566.7682     539.5759
   1421.54114     566.0291     537.5405   1421.54114     566.0291     537.5405
   1421.52588     566.0904     537.2463   1421.52588     566.0904     537.2463
   1421.51062     565.7860     536.2604   1421.51062     565.7860     536.2604
   1421.49536     567.5168     533.8920   1421.49536     567.5168     533.8920
   1421.48010     565.2560     532.4446   1421.48010     565.2560     532.4446
   1421.46484     565.7628     531.3253   1421.46484     565.7628     531.3253
   1421.44958     565.4481     530.7377   1421.44958     565.4481     530.7377
   1421.43433     565.8518     528.8599   1421.43433     565.8518     528.8599
   1421.41907     565.2693     527.9027   1421.41907     565.2693     527.9027
   1421.40381     566.5025     526.1419   1421.40381     566.5025     526.1419
   1421.38855     566.3185     525.8752   1421.38855     566.3185     525.8752
   1421.37329     566.9701     524.7874   1421.37329     566.9701     524.7874
   1421.35803     566.8102     524.6411   1421.35803     566.8102     524.6411
   1421.34277     568.3177     524.0363   1421.34277     568.3177     524.0363
   1421.32751     568.7830     522.5845   1421.32751     568.7830     522.5845
   1421.31226     568.1755     521.3147   1421.31226     568.1755     521.3147
   1421.29700     568.3351     520.8110   1421.29700     568.3351     520.8110
   1421.28174     568.6808     519.7034   1421.28174     568.6808     519.7034
   1421.26648     569.6178     518.9764   1421.26648     569.6178     518.9764
   1421.25122     568.4579     516.5927   1421.25122     568.4579     516.5927
   1421.23596     568.3656     515.9758   1421.23596     568.3656     515.9758
   1421.22070     568.8440     513.1347   1421.22070     568.8440     513.1347
   1421.20544     568.0417     512.8400   1421.20544     568.0417     512.8400
   1421.19019     568.0460     511.1691   1421.19019     568.0460     511.1691
   1421.17493     568.0811     509.6426   1421.17493     568.0811     509.6426
   1421.15967     568.4722     508.6586   1421.15967     568.4722     508.6586
   1421.14441     570.3607     508.3021   1421.14441     570.3607     508.3021
   1421.12915     571.8644     509.2209   1421.12915     571.8644     509.2209
   1421.11389     575.7576     512.0225   1421.11389     575.7576     512.0225
   1421.09863     581.8548     515.6137   1421.09863     581.8548     515.6137
   1421.08337     591.8780     522.9227   1421.08337     591.8780     522.9227
   1421.06812     609.7048     537.4973   1421.06812     609.7048     537.4973
   1421.05286     636.7766     561.5240   1421.05286     636.7766     561.5240
   1421.03760     634.2087     556.9421   1421.03760     634.2087     556.9421
   1421.02234     624.8705     548.5968   1421.02234     624.8705     548.5968
   1421.00708     627.7061     549.2445   1421.00708     627.7061     549.2445
   1420.99182     647.0216     564.1280   1420.99182     647.0216     564.1280
   1420.97656     720.0692     624.3033   1420.97656     720.0692     624.3033
   1420.96130     851.6483     739.1116   1420.96130     851.6483     739.1116
   1420.94604     828.5438     717.0779   1420.94604     828.5438     717.0779
   1420.93079     804.3259     694.9987   1420.93079     804.3259     694.9987
   1420.91553     776.2524     669.0187   1420.91553     776.2524     669.0187
   1420.90027     727.8001     625.8356   1420.90027     727.8001     625.8356
   1420.88501     693.4387     595.1218   1420.88501     693.4387     595.1218
   1420.86975     685.9644     588.9849   1420.86975     685.9644     588.9849
   1420.85449     713.8530     609.6217   1420.85449     713.8530     609.6217
   1420.83923     738.1053     629.2137   1420.83923     738.1053     629.2137
   1420.82397     767.8135     653.4890   1420.82397     767.8135     653.4890
   1420.80872     837.1296     710.1023   1420.80872     837.1296     710.1023
   1420.79346     937.4252     791.1135   1420.79346     937.4252     791.1135
   1420.77820    1060.9819     894.9544   1420.77820    1060.9819     894.9544
   1420.76294    1204.2935    1011.1927   1420.76294    1204.2935    1011.1927
   1420.74768    1374.7733    1151.5001   1420.74768    1374.7733    1151.5001
   1420.73242    1618.5969    1351.6471   1420.73242    1618.5969    1351.6471
   1420.71716    1764.6929    1474.3533   1420.71716    1764.6929    1474.3533
   1420.70190    1633.2611    1358.0585   1420.70190    1633.2611    1358.0585
   1420.68665    1447.5183    1201.7274   1420.68665    1447.5183    1201.7274
   1420.67139    1367.6354    1134.3280   1420.67139    1367.6354    1134.3280
   1420.65613    1301.7325    1075.5029   1420.65613    1301.7325    1075.5029
   1420.64087    1182.9083     974.6976   1420.64087    1182.9083     974.6976
   1420.62561    1009.3964     829.7882   1420.62561    1009.3964     829.7882
   1420.61035     875.8278     720.2885   1420.61035     875.8278     720.2885
   1420.59509     818.5773     670.9544   1420.59509     818.5773     670.9544
   1420.57983     855.7159     702.3929   1420.57983     855.7159     702.3929
   1420.56458    1031.8910     843.6362   1420.56458    1031.8910     843.6362
   1420.54932    1361.5112    1106.2242   1420.54932    1361.5112    1106.2242
   1420.53406    1529.5067    1243.9330   1420.53406    1529.5067    1243.9330
   1420.51880    1455.9893    1181.4795   1420.51880    1455.9893    1181.4795
   1420.50354    1321.1353    1071.0144   1420.50354    1321.1353    1071.0144
   1420.48828    1387.0812    1122.1708   1420.48828    1387.0812    1122.1708
   1420.47302    1164.4678     943.9340   1420.47302    1164.4678     943.9340
   1420.45776     917.7664     739.7958   1420.45776     917.7664     739.7958
   1420.44250     832.7740     670.1954   1420.44250     832.7740     670.1954
   1420.42725     766.0865     617.4107   1420.42725     766.0865     617.4107
   1420.41199     665.6437     535.8425   1420.41199     665.6437     535.8425
   1420.39673     611.7509     491.6823   1420.39673     611.7509     491.6823
   1420.38147     589.5700     472.3084   1420.38147     589.5700     472.3084
   1420.36621     577.5247     463.3035   1420.36621     577.5247     463.3035
   1420.35095     571.8998     457.0985   1420.35095     571.8998     457.0985
   1420.33569     567.8494     453.6921   1420.33569     567.8494     453.6921
   1420.32043     564.3956     451.0428   1420.32043     564.3956     451.0428
   1420.30518     563.4913     449.4822   1420.30518     563.4913     449.4822
   1420.28992     562.2685     448.4426   1420.28992     562.2685     448.4426
   1420.27466     561.0168     446.8512   1420.27466     561.0168     446.8512
   1420.25940     560.1783     444.9606   1420.25940     560.1783     444.9606
   1420.24414     560.1805     443.4931   1420.24414     560.1805     443.4931
   1420.22888     561.0250     442.7198   1420.22888     561.0250     442.7198
   1420.21362     559.0069     441.5763   1420.21362     559.0069     441.5763
   1420.19836     558.9018     439.9595   1420.19836     558.9018     439.9595
   1420.18311     557.9284     438.3973   1420.18311     557.9284     438.3973
   1420.16785     557.1976     437.5439   1420.16785     557.1976     437.5439
   1420.15259     556.4670     436.7672   1420.15259     556.4670     436.7672
   1420.13733     557.4325     436.1711   1420.13733     557.4325     436.1711
   1420.12207     557.3302     434.2473   1420.12207     557.3302     434.2473
   1420.10681     554.7819     434.1687   1420.10681     554.7819     434.1687
   1420.09155     553.8030     431.8026   1420.09155     553.8030     431.8026
   1420.07629     555.2126     431.9669   1420.07629     555.2126     431.9669
   1420.06104     554.5001     431.9278   1420.06104     554.5001     431.9278
   1420.04578     555.4442     430.9446   1420.04578     555.4442     430.9446
   1420.03052     555.1434     429.6679   1420.03052     555.1434     429.6679
   1420.01526     555.6719     429.9976   1420.01526     555.6719     429.9976
   1420.00000     556.3392     430.5118   1420.00000     556.3392     430.5118
   1419.98474     557.0064     431.0261   1419.98474     557.0064     431.0261
   1419.96948     557.2247     428.5024   1419.96948     557.2247     428.5024
   1419.95422     553.2885     426.8556   1419.95422     553.2885     426.8556
   1419.93896     554.0349     425.9872   1419.93896     554.0349     425.9872
   1419.92371     554.4557     425.1079   1419.92371     554.4557     425.1079
   1419.90845     554.3314     425.1463   1419.90845     554.3314     425.1463
   1419.89319     553.9997     424.1564   1419.89319     553.9997     424.1564
   1419.87793     555.0310     424.2855   1419.87793     555.0310     424.2855
   1419.86267     554.7779     423.2117   1419.86267     554.7779     423.2117
   1419.84741     553.8214     423.1218   1419.84741     553.8214     423.1218
   1419.83215     554.1985     423.0851   1419.83215     554.1985     423.0851
   1419.81689     553.6980     422.6213   1419.81689     553.6980     422.6213
   1419.80164     553.9773     422.2804   1419.80164     553.9773     422.2804
   1419.78638     554.8369     421.8288   1419.78638     554.8369     421.8288
   1419.77112     554.0872     421.9375   1419.77112     554.0872     421.9375
   1419.75586     554.8312     420.9716   1419.75586     554.8312     420.9716
   1419.74060     555.2343     420.6839   1419.74060     555.2343     420.6839
   1419.72534     555.8893     420.1887   1419.72534     555.8893     420.1887
   1419.71008     555.7108     419.9799   1419.71008     555.7108     419.9799
   1419.69482     555.6271     419.8057   1419.69482     555.6271     419.8057
   1419.67957     556.1801     420.0280   1419.67957     556.1801     420.0280
   1419.66431     557.0016     420.0575   1419.66431     557.0016     420.0575
   1419.64905     556.0250     419.0539   1419.64905     556.0250     419.0539
   1419.63379     556.2264     418.5425   1419.63379     556.2264     418.5425
   1419.61853     556.3451     418.4823   1419.61853     556.3451     418.4823
   1419.60327     556.9205     418.8510   1419.60327     556.9205     418.8510
   1419.58801     556.8933     418.6688   1419.58801     556.8933     418.6688
   1419.57275     556.5078     418.7883   1419.57275     556.5078     418.7883
   1419.55750     556.9879     418.2541   1419.55750     556.9879     418.2541
   1419.54224     557.5685     417.8637   1419.54224     557.5685     417.8637
   1419.52698     558.5335     417.9173   1419.52698     558.5335     417.9173
   1419.51172     558.3441     418.2313   1419.51172     558.3441     418.2313
   1419.49646     558.2695     418.1100   1419.49646     558.2695     418.1100
   1419.48120     558.4733     417.9026   1419.48120     558.4733     417.9026
   1419.46594     559.5892     417.4589   1419.46594     559.5892     417.4589
   1419.45068     558.7070     417.3008   1419.45068     558.7070     417.3008
   1419.43542     560.0029     417.3916   1419.43542     560.0029     417.3916
   1419.42017     559.3369     417.5123   1419.42017     559.3369     417.5123
   1419.40491     558.5605     417.9063   1419.40491     558.5605     417.9063
   1419.38965     560.9280     417.9328   1419.38965     560.9280     417.9328
   1419.37439     560.3189     417.3548   1419.37439     560.3189     417.3548
   1419.35913     561.9645     417.4192   1419.35913     561.9645     417.4192
   1419.34387     561.7866     417.4202   1419.34387     561.7866     417.4202
   1419.32861     561.3727     417.3145   1419.32861     561.3727     417.3145
   1419.31335     561.7090     417.8507   1419.31335     561.7090     417.8507
   1419.29810     561.7776     417.6365   1419.29810     561.7776     417.6365
   1419.28284     562.9098     418.1140   1419.28284     562.9098     418.1140
   1419.26758     562.3964     418.2670   1419.26758     562.3964     418.2670
   1419.25232     563.0295     417.7782   1419.25232     563.0295     417.7782
   1419.23706     561.8167     418.3772   1419.23706     561.8167     418.3772
   1419.22180     563.3813     418.2271   1419.22180     563.3813     418.2271
   1419.20654     563.9300     418.5023   1419.20654     563.9300     418.5023
   1419.19128     565.2906     418.4571   1419.19128     565.2906     418.4571
   1419.17603     563.3438     419.1675   1419.17603     563.3438     419.1675
   1419.16077     565.1653     418.8994   1419.16077     565.1653     418.8994
   1419.14551     565.3351     418.7769   1419.14551     565.3351     418.7769
   1419.13025     566.2219     419.2669   1419.13025     566.2219     419.2669
   1419.11499     566.6818     419.8170   1419.11499     566.6818     419.8170
   1419.09973     566.6729     420.5011   1419.09973     566.6729     420.5011
   1419.08447     567.1119     419.7164   1419.08447     567.1119     419.7164
   1419.06921     568.5533     420.4878   1419.06921     568.5533     420.4878
   1419.05396     567.4799     420.4023   1419.05396     567.4799     420.4023
   1419.03870     567.8304     420.7352   1419.03870     567.8304     420.7352
   1419.02344     568.9661     421.6197   1419.02344     568.9661     421.6197
   1419.00818     569.4152     421.2688   1419.00818     569.4152     421.2688
   1418.99292     569.8628     421.0238   1418.99292     569.8628     421.0238
   1418.97766     569.8768     421.6708   1418.97766     569.8768     421.6708
   1418.96240     570.3979     422.3596   1418.96240     570.3979     422.3596
   1418.94714     569.7451     423.6599   1418.94714     569.7451     423.6599
   1418.93188     571.1693     423.3771   1418.93188     571.1693     423.3771
   1418.91663     571.9424     423.2648   1418.91663     571.9424     423.2648
   1418.90137     572.2755     424.0059   1418.90137     572.2755     424.0059
   1418.88611     572.9581     424.6963   1418.88611     572.9581     424.6963
   1418.87085     572.9661     424.2108   1418.87085     572.9661     424.2108
   1418.85559     573.1801     425.9776   1418.85559     573.1801     425.9776
   1418.84033     574.6625     425.5855   1418.84033     574.6625     425.5855
   1418.82507     574.9920     425.4222   1418.82507     574.9920     425.4222
   1418.80981     575.3560     426.6315   1418.80981     575.3560     426.6315
   1418.79456     575.7449     427.0005   1418.79456     575.7449     427.0005
   1418.77930     576.6553     427.2461   1418.77930     576.6553     427.2461
   1418.76404     576.7227     427.4298   1418.76404     576.7227     427.4298
   1418.74878     578.6822     428.3094   1418.74878     578.6822     428.3094
   1418.73352     577.5585     427.4243   1418.73352     577.5585     427.4243
   1418.71826     578.0931     429.5431   1418.71826     578.0931     429.5431
   1418.70300     579.0296     429.6010   1418.70300     579.0296     429.6010
   1418.68774     579.1748     430.8172   1418.68774     579.1748     430.8172
   1418.67249     580.8644     430.7034   1418.67249     580.8644     430.7034
   1418.65723     580.1675     431.3780   1418.65723     580.1675     431.3780
   1418.64197     581.4651     431.4689   1418.64197     581.4651     431.4689
   1418.62671     581.3655     431.9352   1418.62671     581.3655     431.9352
   1418.61145     581.0095     432.6200   1418.61145     581.0095     432.6200
   1418.59619     583.1213     433.9238   1418.59619     583.1213     433.9238
   1418.58093     583.3004     433.3765   1418.58093     583.3004     433.3765
   1418.56567     583.6853     434.0332   1418.56567     583.6853     434.0332
   1418.55042     584.9574     435.3658   1418.55042     584.9574     435.3658
   1418.53516     583.9836     435.5603   1418.53516     583.9836     435.5603
   1418.51990     584.9910     436.0970   1418.51990     584.9910     436.0970
   1418.50464     586.5106     436.8768   1418.50464     586.5106     436.8768
   1418.48938     587.4850     437.4229   1418.48938     587.4850     437.4229
   1418.47412     587.1548     438.0458   1418.47412     587.1548     438.0458
   1418.45886     588.4278     439.2477   1418.45886     588.4278     439.2477
   1418.44360     588.5090     439.5768   1418.44360     588.5090     439.5768
   1418.42834     590.3925     439.7404   1418.42834     590.3925     439.7404
   1418.41309     590.4277     441.4312   1418.41309     590.4277     441.4312
   1418.39783     590.7146     441.7064   1418.39783     590.7146     441.7064
   1418.38257     591.5395     442.9865   1418.38257     591.5395     442.9865
   1418.36731     593.8393     443.2796   1418.36731     593.8393     443.2796
   1418.35205     592.7763     443.9599   1418.35205     592.7763     443.9599
   1418.33679     593.8080     444.1572   1418.33679     593.8080     444.1572
   1418.32153     594.5270     445.7088   1418.32153     594.5270     445.7088
   1418.30627     595.1748     444.8856   1418.30627     595.1748     444.8856
   1418.29102     595.6790     447.7088   1418.29102     595.6790     447.7088
   1418.27576     596.8739     447.1796   1418.27576     596.8739     447.1796
   1418.26050     597.5107     448.1434   1418.26050     597.5107     448.1434
   1418.24524     597.4641     449.4160   1418.24524     597.4641     449.4160
   1418.22998     598.3613     449.4532   1418.22998     598.3613     449.4532
   1418.21472     599.6595     450.6490   1418.21472     599.6595     450.6490
   1418.19946     600.1722     451.5984   1418.19946     600.1722     451.5984
   1418.18420     600.9962     452.5207   1418.18420     600.9962     452.5207
   1418.16895     601.8198     452.6598   1418.16895     601.8198     452.6598
   1418.15369     603.2903     453.7536   1418.15369     603.2903     453.7536
   1418.13843     602.9843     455.2584   1418.13843     602.9843     455.2584
   1418.12317     604.7266     455.3778   1418.12317     604.7266     455.3778
   1418.10791     604.7556     456.3186   1418.10791     604.7556     456.3186
   1418.09265     606.3567     457.4646   1418.09265     606.3567     457.4646
   1418.07739     605.8965     457.3261   1418.07739     605.8965     457.3261
   1418.06213     607.1544     459.1210   1418.06213     607.1544     459.1210
   1418.04688     608.3444     460.2508   1418.04688     608.3444     460.2508
   1418.03162     609.0374     460.0857   1418.03162     609.0374     460.0857
   1418.01636     609.5901     461.4497   1418.01636     609.5901     461.4497
   1418.00110     611.1419     462.5770   1418.00110     611.1419     462.5770
   1417.98584     611.4012     463.1245   1417.98584     611.4012     463.1245
   1417.97058     611.7095     463.8973   1417.97058     611.7095     463.8973
   1417.95532     613.0311     465.2495   1417.95532     613.0311     465.2495
   1417.94006     613.4141     465.7107   1417.94006     613.4141     465.7107
   1417.92480     615.1422     466.8950   1417.92480     615.1422     466.8950
   1417.90955     615.0472     467.7792   1417.90955     615.0472     467.7792
   1417.89429     616.0048     468.1382   1417.89429     616.0048     468.1382
   1417.87903     616.0734     469.8044   1417.87903     616.0734     469.8044
   1417.86377     617.4979     470.3084   1417.86377     617.4979     470.3084
   1417.84851     618.6688     470.6328   1417.84851     618.6688     470.6328
   1417.83325     619.0893     471.9476   1417.83325     619.0893     471.9476
   1417.81799     620.4281     473.1345   1417.81799     620.4281     473.1345
   1417.80273     621.4023     474.0540   1417.80273     621.4023     474.0540
   1417.78748     622.3060     475.0457   1417.78748     622.3060     475.0457
   1417.77222     621.9490     475.8032   1417.77222     621.9490     475.8032
   1417.75696     623.4733     477.1739   1417.75696     623.4733     477.1739
   1417.74170     624.9807     478.3130   1417.74170     624.9807     478.3130
   1417.72644     624.1035     478.0502   1417.72644     624.1035     478.0502
   1417.71118     624.8686     479.4206   1417.71118     624.8686     479.4206
   1417.69592     625.6541     480.1354   1417.69592     625.6541     480.1354
   1417.68066     627.9129     481.3778   1417.68066     627.9129     481.3778
   1417.66541     629.0171     482.9252   1417.66541     629.0171     482.9252
   1417.65015     628.1528     483.0188   1417.65015     628.1528     483.0188
   1417.63489     630.1750     485.1617   1417.63489     630.1750     485.1617
   1417.61963     630.7419     485.0519   1417.61963     630.7419     485.0519
   1417.60437     632.1819     486.4738   1417.60437     632.1819     486.4738
   1417.58911     632.2281     486.9050   1417.58911     632.2281     486.9050
   1417.57385     633.1961     488.3917   1417.57385     633.1961     488.3917
   1417.55859     633.3981     488.5445   1417.55859     633.3981     488.5445
   1417.54333     634.1529     490.6518   1417.54333     634.1529     490.6518
   1417.52808     634.7451     490.8231   1417.52808     634.7451     490.8231
   1417.51282     636.1306     491.4933   1417.51282     636.1306     491.4933
   1417.49756     637.2528     492.9404   1417.49756     637.2528     492.9404
   1417.48230     637.3979     493.4203   1417.48230     637.3979     493.4203
   1417.46704     639.1454     494.8481   1417.46704     639.1454     494.8481
   1417.45178     639.1009     495.4514   1417.45178     639.1009     495.4514
   1417.43652     639.3698     495.5132   1417.43652     639.3698     495.5132
   1417.42126     639.8767     497.6412   1417.42126     639.8767     497.6412
   1417.40601     640.9300     498.1215   1417.40601     640.9300     498.1215
   1417.39075     641.8748     498.6391   1417.39075     641.8748     498.6391
   1417.37549     642.8685     500.8491   1417.37549     642.8685     500.8491
   1417.36023     643.6522     501.4483   1417.36023     643.6522     501.4483
   1417.34497     645.1493     502.0720   1417.34497     645.1493     502.0720
   1417.32971     645.2114     503.2777   1417.32971     645.2114     503.2777
   1417.31445     645.8441     504.2610   1417.31445     645.8441     504.2610
   1417.29919     647.2691     504.0777   1417.29919     647.2691     504.0777
   1417.28394     649.4531     506.3100   1417.28394     649.4531     506.3100
   1417.26868     648.8246     506.6259   1417.26868     648.8246     506.6259
   1417.25342     649.4675     506.8343   1417.25342     649.4675     506.8343
   1417.23816     650.0983     507.7880   1417.23816     650.0983     507.7880
   1417.22290     650.7505     509.8209   1417.22290     650.7505     509.8209
   1417.20764     651.2549     509.9401   1417.20764     651.2549     509.9401
   1417.19238     653.1456     510.3821   1417.19238     653.1456     510.3821
   1417.17712     653.6913     512.2042   1417.17712     653.6913     512.2042
   1417.16187     652.2870     512.3865   1417.16187     652.2870     512.3865
   1417.14661     654.2634     512.8502   1417.14661     654.2634     512.8502
   1417.13135     654.3985     513.2494   1417.13135     654.3985     513.2494
   1417.11609     654.7578     514.8302   1417.11609     654.7578     514.8302
   1417.10083     655.7583     515.6272   1417.10083     655.7583     515.6272
   1417.08557     655.9590     516.1299   1417.08557     655.9590     516.1299
   1417.07031     656.9164     516.9365   1417.07031     656.9164     516.9365
   1417.05505     657.0332     517.3660   1417.05505     657.0332     517.3660
   1417.03979     658.0573     518.9202   1417.03979     658.0573     518.9202
   1417.02454     659.7766     518.8206   1417.02454     659.7766     518.8206
   1417.00928     660.2557     519.9604   1417.00928     660.2557     519.9604
   1416.99402     660.0231     521.5928   1416.99402     660.0231     521.5928
   1416.97876     661.4020     520.6296   1416.97876     661.4020     520.6296
   1416.96350     661.3736     521.3129   1416.96350     661.3736     521.3129
   1416.94824     662.3900     522.0549   1416.94824     662.3900     522.0549
   1416.93298     662.7552     523.2303   1416.93298     662.7552     523.2303
   1416.91772     663.1440     523.9843   1416.91772     663.1440     523.9843
   1416.90247     662.8230     524.6799   1416.90247     662.8230     524.6799
   1416.88721     664.2925     524.2864   1416.88721     664.2925     524.2864
   1416.87195     665.0369     524.8509   1416.87195     665.0369     524.8509
   1416.85669     665.2890     525.6708   1416.85669     665.2890     525.6708
   1416.84143     664.9535     526.1402   1416.84143     664.9535     526.1402
   1416.82617     665.4053     526.6002   1416.82617     665.4053     526.6002
   1416.81091     666.4609     526.7946   1416.81091     666.4609     526.7946
   1416.79565     666.9358     527.7613   1416.79565     666.9358     527.7613
   1416.78040     668.4692     527.9576   1416.78040     668.4692     527.9576
   1416.76514     668.1585     528.6602   1416.76514     668.1585     528.6602
   1416.74988     667.7578     528.8443   1416.74988     667.7578     528.8443
   1416.73462     667.9108     528.7721   1416.73462     667.9108     528.7721
   1416.71936     666.7592     529.8078   1416.71936     666.7592     529.8078
   1416.70410     669.2660     530.0314   1416.70410     669.2660     530.0314
   1416.68884     669.1409     529.0864   1416.68884     669.1409     529.0864
   1416.67358     669.7148     530.1545   1416.67358     669.7148     530.1545
   1416.65833     669.1293     530.0924   1416.65833     669.1293     530.0924
   1416.64307     669.4439     530.7133   1416.64307     669.4439     530.7133
   1416.62781     669.9639     531.1500   1416.62781     669.9639     531.1500
   1416.61255     671.1575     530.8848   1416.61255     671.1575     530.8848
   1416.59729     670.5978     531.4252   1416.59729     670.5978     531.4252
   1416.58203     670.8654     531.2154   1416.58203     670.8654     531.2154
   1416.56677     670.3234     531.5756   1416.56677     670.3234     531.5756
   1416.55151     671.4097     532.0349   1416.55151     671.4097     532.0349
   1416.53625     671.6915     532.4299   1416.53625     671.6915     532.4299
   1416.52100     671.5662     532.0656   1416.52100     671.5662     532.0656
   1416.50574     671.6973     532.2797   1416.50574     671.6973     532.2797
   1416.49048     671.9844     532.4162   1416.49048     671.9844     532.4162
   1416.47522     671.7144     533.0818   1416.47522     671.7144     533.0818
   1416.45996     672.7034     531.7262   1416.45996     672.7034     531.7262
   1416.44470     672.7054     532.3848   1416.44470     672.7054     532.3848
   1416.42944     671.7552     532.6088   1416.42944     671.7552     532.6088
   1416.41418     671.9441     532.0887   1416.41418     671.9441     532.0887
   1416.39893     671.8995     532.4578   1416.39893     671.8995     532.4578
   1416.38367     672.5494     532.4957   1416.38367     672.5494     532.4957
   1416.36841     672.1368     531.6170   1416.36841     672.1368     531.6170
   1416.35315     672.8542     531.6369   1416.35315     672.8542     531.6369
   1416.33789     671.6445     531.5846   1416.33789     671.6445     531.5846
   1416.32263     672.7766     531.3520   1416.32263     672.7766     531.3520
   1416.30737     672.1473     532.1298   1416.30737     672.1473     532.1298
   1416.29211     672.9861     530.9807   1416.29211     672.9861     530.9807
   1416.27686     672.0259     530.3408   1416.27686     672.0259     530.3408
   1416.26160     671.7900     530.8541   1416.26160     671.7900     530.8541
   1416.24634     672.1036     530.7687   1416.24634     672.1036     530.7687
   1416.23108     672.0558     531.3189   1416.23108     672.0558     531.3189
   1416.21582     671.2374     530.5045   1416.21582     671.2374     530.5045
   1416.20056     671.7716     529.5167   1416.20056     671.7716     529.5167
   1416.18530     670.9281     530.3234   1416.18530     670.9281     530.3234
   1416.17004     669.6697     529.8098   1416.17004     669.6697     529.8098
   1416.15479     669.9518     529.5166   1416.15479     669.9518     529.5166
   1416.13953     670.0842     528.7383   1416.13953     670.0842     528.7383
   1416.12427     671.1082     528.6653   1416.12427     671.1082     528.6653
   1416.10901     670.1937     528.4376   1416.10901     670.1937     528.4376
   1416.09375     669.4874     527.8189   1416.09375     669.4874     527.8189
   1416.07849     669.7890     526.9622   1416.07849     669.7890     526.9622
   1416.06323     668.9088     527.6072   1416.06323     668.9088     527.6072
   1416.04797     669.0405     526.4886   1416.04797     669.0405     526.4886
   1416.03271     669.8384     525.7108   1416.03271     669.8384     525.7108
   1416.01746     669.2138     525.8900   1416.01746     669.2138     525.8900
   1416.00220     667.6295     525.5592   1416.00220     667.6295     525.5592
   1415.98694     667.3505     524.6867   1415.98694     667.3505     524.6867
   1415.97168     668.1633     524.9325   1415.97168     668.1633     524.9325
   1415.95642     667.2648     524.5179   1415.95642     667.2648     524.5179
   1415.94116     668.1498     524.2512   1415.94116     668.1498     524.2512
   1415.92590     666.4180     522.8124   1415.92590     666.4180     522.8124
   1415.91064     666.5555     523.5154   1415.91064     666.5555     523.5154
   1415.89539     665.7083     521.5482   1415.89539     665.7083     521.5482
   1415.88013     664.8794     521.9570   1415.88013     664.8794     521.9570
   1415.86487     664.8335     520.6479   1415.86487     664.8335     520.6479
   1415.84961     664.4376     521.0956   1415.84961     664.4376     521.0956
   1415.83435     664.0447     520.0455   1415.83435     664.0447     520.0455
   1415.81909     663.2925     520.9476   1415.81909     663.2925     520.9476
   1415.80383     663.1303     519.2184   1415.80383     663.1303     519.2184
   1415.78857     662.7906     519.3334   1415.78857     662.7906     519.3334
   1415.77332     662.4527     518.4080   1415.77332     662.4527     518.4080
   1415.75806     660.7641     517.5753   1415.75806     660.7641     517.5753
   1415.74280     661.8035     517.3879   1415.74280     661.8035     517.3879
   1415.72754     661.8719     518.0103   1415.72754     661.8719     518.0103
   1415.71228     659.7657     515.9841   1415.71228     659.7657     515.9841
   1415.69702     659.7076     516.8901   1415.69702     659.7076     516.8901
   1415.68176     657.9611     515.1706   1415.68176     657.9611     515.1706
   1415.66650     658.1168     514.9717   1415.66650     658.1168     514.9717
   1415.65125     657.2969     514.7189   1415.65125     657.2969     514.7189
   1415.63599     657.5505     513.0607   1415.63599     657.5505     513.0607
   1415.62073     655.4202     513.6476   1415.62073     655.4202     513.6476
   1415.60547     655.6580     512.4124   1415.60547     655.6580     512.4124
   1415.59021     654.9615     511.9392   1415.59021     654.9615     511.9392
   1415.57495     653.6108     511.3740   1415.57495     653.6108     511.3740
   1415.55969     654.2825     510.6928   1415.55969     654.2825     510.6928
   1415.54443     653.7095     510.3204   1415.54443     653.7095     510.3204
   1415.52917     651.4711     509.5708   1415.52917     651.4711     509.5708
   1415.51392     651.4235     508.2983   1415.51392     651.4235     508.2983
   1415.49866     650.0341     508.6188   1415.49866     650.0341     508.6188
   1415.48340     649.6241     507.6212   1415.48340     649.6241     507.6212
   1415.46814     648.6379     507.4933   1415.46814     648.6379     507.4933
   1415.45288     648.0301     506.7422   1415.45288     648.0301     506.7422
   1415.43762     647.1096     505.6707   1415.43762     647.1096     505.6707
   1415.42236     645.7979     504.7368   1415.42236     645.7979     504.7368
   1415.40710     645.4771     503.8411   1415.40710     645.4771     503.8411
   1415.39185     645.4249     504.0917   1415.39185     645.4249     504.0917
   1415.37659     643.5978     503.0590   1415.37659     643.5978     503.0590
   1415.36133     642.9144     503.1411   1415.36133     642.9144     503.1411
   1415.34607     641.5408     501.5789   1415.34607     641.5408     501.5789
   1415.33081     642.1688     500.7907   1415.33081     642.1688     500.7907
   1415.31555     640.2161     499.6183   1415.31555     640.2161     499.6183
   1415.30029     639.0274     499.1078   1415.30029     639.0274     499.1078
   1415.28503     638.6895     498.8666   1415.28503     638.6895     498.8666
   1415.26978     637.3013     498.0365   1415.26978     637.3013     498.0365
   1415.25452     637.6097     497.1494   1415.25452     637.6097     497.1494
   1415.23926     635.2117     497.0241   1415.23926     635.2117     497.0241
   1415.22400     634.0903     495.7026   1415.22400     634.0903     495.7026
   1415.20874     633.1680     495.1519   1415.20874     633.1680     495.1519
   1415.19348     632.7079     493.9759   1415.19348     632.7079     493.9759
   1415.17822     631.7701     494.9752   1415.17822     631.7701     494.9752
   1415.16296     630.3515     492.4779   1415.16296     630.3515     492.4779
   1415.14771     628.7712     491.5360   1415.14771     628.7712     491.5360
   1415.13245     628.3195     490.8009   1415.13245     628.3195     490.8009
   1415.11719     627.1279     490.4014   1415.11719     627.1279     490.4014
   1415.10193     624.7679     489.0177   1415.10193     624.7679     489.0177
   1415.08667     623.4979     488.3276   1415.08667     623.4979     488.3276
   1415.07141     622.8896     486.9265   1415.07141     622.8896     486.9265
   1415.05615     621.3290     486.4406   1415.05615     621.3290     486.4406
   1415.04089     619.5241     486.0789   1415.04089     619.5241     486.0789
   1415.02563     618.0853     484.3565   1415.02563     618.0853     484.3565
   1415.01038     617.2918     484.2480   1415.01038     617.2918     484.2480
   1414.99512     615.9395     483.1748   1414.99512     615.9395     483.1748
   1414.97986     614.6220     482.2069   1414.97986     614.6220     482.2069
   1414.96460     614.3434     481.0299   1414.96460     614.3434     481.0299
   1414.94934     612.6407     479.9767   1414.94934     612.6407     479.9767
   1414.93408     610.0323     478.7424   1414.93408     610.0323     478.7424
   1414.91882     609.5565     478.1789   1414.91882     609.5565     478.1789
   1414.90356     607.8517     477.5323   1414.90356     607.8517     477.5323
   1414.88831     606.7626     475.8146   1414.88831     606.7626     475.8146
   1414.87305     603.9177     474.5818   1414.87305     603.9177     474.5818
   1414.85779     603.5098     474.6585   1414.85779     603.5098     474.6585
   1414.84253     601.7424     473.8253   1414.84253     601.7424     473.8253
   1414.82727     599.8446     472.2356   1414.82727     599.8446     472.2356
   1414.81201     598.7762     471.2802   1414.81201     598.7762     471.2802
   1414.79675     597.0043     469.7659   1414.79675     597.0043     469.7659
   1414.78149     596.1078     468.9786   1414.78149     596.1078     468.9786
   1414.76624     592.6527     467.6078   1414.76624     592.6527     467.6078
   1414.75098     591.9897     466.8429   1414.75098     591.9897     466.8429
   1414.73572     590.1198     465.2761   1414.73572     590.1198     465.2761
   1414.72046     589.7334     464.9407   1414.72046     589.7334     464.9407
   1414.70520     587.0787     463.8173   1414.70520     587.0787     463.8173
   1414.68994     584.7910     462.8684   1414.68994     584.7910     462.8684
   1414.67468     583.7667     461.2069   1414.67468     583.7667     461.2069
   1414.65942     582.1413     460.1845   1414.65942     582.1413     460.1845
   1414.64417     580.9260     458.3263   1414.64417     580.9260     458.3263
   1414.62891     578.5354     457.1734   1414.62891     578.5354     457.1734
   1414.61365     576.7306     456.7482   1414.61365     576.7306     456.7482
   1414.59839     574.4232     455.0052   1414.59839     574.4232     455.0052
   1414.58313     572.6915     453.0826   1414.58313     572.6915     453.0826
   1414.56787     570.4542     453.2059   1414.56787     570.4542     453.2059
   1414.55261     568.7913     452.0322   1414.55261     568.7913     452.0322
   1414.53735     566.2704     450.5897   1414.53735     566.2704     450.5897
   1414.52209     566.3312     448.5572   1414.52209     566.3312     448.5572
   1414.50684     563.0824     448.0536   1414.50684     563.0824     448.0536
   1414.49158     561.0002     446.3714   1414.49158     561.0002     446.3714
   1414.47632     558.1737     445.3688   1414.47632     558.1737     445.3688
   1414.46106     556.8777     443.5763   1414.46106     556.8777     443.5763
   1414.44580     554.8731     443.0554   1414.44580     554.8731     443.0554
   1414.43054     553.0153     441.3466   1414.43054     553.0153     441.3466
   1414.41528     551.1889     439.0042   1414.41528     551.1889     439.0042
   1414.40002     548.7990     438.2477   1414.40002     548.7990     438.2477
   1414.38477     546.8282     436.5646   1414.38477     546.8282     436.5646
   1414.36951     544.7839     435.2971   1414.36951     544.7839     435.2971
   1414.35425     542.7118     434.3705   1414.35425     542.7118     434.3705
   1414.33899     539.7145     432.6367   1414.33899     539.7145     432.6367
   1414.32373     538.4344     430.7243   1414.32373     538.4344     430.7243
   1414.30847     535.9579     430.0532   1414.30847     535.9579     430.0532
   1414.29321     533.4733     428.1027   1414.29321     533.4733     428.1027
   1414.27795     531.1990     426.3880   1414.27795     531.1990     426.3880
   1414.26270     528.9957     425.4940   1414.26270     528.9957     425.4940
   1414.24744     527.1730     423.3795   1414.24744     527.1730     423.3795
   1414.23218     524.4265     422.3227   1414.23218     524.4265     422.3227
   1414.21692     521.7313     420.4625   1414.21692     521.7313     420.4625
   1414.20166     521.3192     419.8264   1414.20166     521.3192     419.8264
   1414.18640     517.7938     417.7161   1414.18640     517.7938     417.7161
   1414.17114     515.4102     416.0034   1414.17114     515.4102     416.0034
   1414.15588     512.9476     414.4966   1414.15588     512.9476     414.4966
   1414.14062     511.0214     413.2804   1414.14062     511.0214     413.2804
   1414.12537     508.1986     411.1794   1414.12537     508.1986     411.1794
   1414.11011     506.3844     409.8086   1414.11011     506.3844     409.8086
   1414.09485     503.9627     408.1242   1414.09485     503.9627     408.1242
   1414.07959     500.9757     406.8199   1414.07959     500.9757     406.8199
   1414.06433     498.7626     405.6913   1414.06433     498.7626     405.6913
   1414.04907     495.3466     403.4023   1414.04907     495.3466     403.4023
   1414.03381     493.5291     401.7519   1414.03381     493.5291     401.7519
   1414.01855     492.1958     400.0438   1414.01855     492.1958     400.0438
   1414.00330     514.4781     407.8430   1414.00330     514.4781     407.8430
   1413.98804     488.6084     397.9484   1413.98804     488.6084     397.9484
   1413.97278     484.9177     395.7464   1413.97278     484.9177     395.7464
   1413.95752     481.5457     393.7188   1413.95752     481.5457     393.7188
   1413.94226     478.9937     392.2129   1413.94226     478.9937     392.2129
   1413.92700     477.6398     391.0984   1413.92700     477.6398     391.0984
   1413.91174     474.0284     389.2983   1413.91174     474.0284     389.2983
   1413.89648     471.9534     387.1703   1413.89648     471.9534     387.1703
   1413.88123     468.7411     385.0825   1413.88123     468.7411     385.0825
   1413.86597     466.7135     384.0469   1413.86597     466.7135     384.0469
   1413.85071     464.5443     382.4712   1413.85071     464.5443     382.4712
   1413.83545     461.3725     380.9180   1413.83545     461.3725     380.9180
   1413.82019     458.9612     378.5706   1413.82019     458.9612     378.5706
   1413.80493     456.1495     377.2932   1413.80493     456.1495     377.2932
   1413.78967     454.5754     375.9559   1413.78967     454.5754     375.9559
   1413.77441     451.3937     373.4714   1413.77441     451.3937     373.4714
   1413.75916     448.5323     372.4411   1413.75916     448.5323     372.4411
   1413.74390     446.7162     370.2083   1413.74390     446.7162     370.2083
   1413.72864     443.7153     368.9450   1413.72864     443.7153     368.9450
   1413.71338     440.9922     366.9401   1413.71338     440.9922     366.9401
   1413.69812     438.9585     365.0346   1413.69812     438.9585     365.0346
   1413.68286     436.1073     363.0047   1413.68286     436.1073     363.0047
   1413.66760     433.5287     362.0121   1413.66760     433.5287     362.0121
   1413.65234     431.5008     360.3343   1413.65234     431.5008     360.3343
   1413.63708     429.1252     358.4100   1413.63708     429.1252     358.4100
   1413.62183     425.6531     356.5923   1413.62183     425.6531     356.5923
   1413.60657     423.5580     355.5027   1413.60657     423.5580     355.5027
   1413.59131     421.2180     354.0692   1413.59131     421.2180     354.0692
   1413.57605     418.9927     351.2380   1413.57605     418.9927     351.2380
   1413.56079     415.8757     349.7531   1413.56079     415.8757     349.7531
   1413.54553     413.1638     348.6087   1413.54553     413.1638     348.6087
   1413.53027     411.3111     346.6522   1413.53027     411.3111     346.6522
   1413.51501     408.8929     345.6031   1413.51501     408.8929     345.6031
   1413.49976     406.3651     343.5041   1413.49976     406.3651     343.5041
   1413.48450     404.1512     341.9874   1413.48450     404.1512     341.9874
   1413.46924     401.6922     340.0164   1413.46924     401.6922     340.0164
   1413.45398     398.7238     338.8493   1413.45398     398.7238     338.8493
   1413.43872     396.3447     337.2219   1413.43872     396.3447     337.2219
   1413.42346     394.5549     335.1625   1413.42346     394.5549     335.1625
   1413.40820     392.4309     333.4411   1413.40820     392.4309     333.4411
   1413.39294     389.3943     332.1151   1413.39294     389.3943     332.1151
   1413.37769     386.5473     330.4172   1413.37769     386.5473     330.4172
   1413.36243     384.7697     328.6048   1413.36243     384.7697     328.6048
   1413.34717     382.5826     327.7431   1413.34717     382.5826     327.7431
   1413.33191     380.0632     326.0910   1413.33191     380.0632     326.0910
   1413.31665     378.1108     324.1128   1413.31665     378.1108     324.1128
   1413.30139     375.7979     323.1508   1413.30139     375.7979     323.1508
   1413.28613     373.2557     320.9900   1413.28613     373.2557     320.9900
   1413.27087     371.4568     319.7125   1413.27087     371.4568     319.7125
   1413.25562     368.3828     318.2638   1413.25562     368.3828     318.2638
   1413.24036     366.6594     316.1927   1413.24036     366.6594     316.1927
   1413.22510     364.9002     315.7425   1413.22510     364.9002     315.7425
   1413.20984     362.2235     313.6759   1413.20984     362.2235     313.6759
   1413.19458     360.5404     312.2905   1413.19458     360.5404     312.2905
   1413.17932     358.2659     310.8216   1413.17932     358.2659     310.8216
   1413.16406     356.4951     309.1484   1413.16406     356.4951     309.1484
   1413.14880     354.3719     308.6240   1413.14880     354.3719     308.6240
   1413.13354     352.8612     306.4844   1413.13354     352.8612     306.4844
   1413.11829     350.2155     305.1075   1413.11829     350.2155     305.1075
   1413.10303     348.1602     304.2144   1413.10303     348.1602     304.2144
   1413.08777     346.7579     303.2805   1413.08777     346.7579     303.2805
   1413.07251     344.6867     301.4403   1413.07251     344.6867     301.4403
   1413.05725     342.3114     300.4500   1413.05725     342.3114     300.4500
   1413.04199     340.7987     298.9646   1413.04199     340.7987     298.9646
   1413.02673     338.6590     297.5338   1413.02673     338.6590     297.5338
   1413.01147     337.8546     296.0077   1413.01147     337.8546     296.0077
   1412.99622     335.5985     295.0553   1412.99622     335.5985     295.0553
   1412.98096     333.2412     293.9785   1412.98096     333.2412     293.9785
   1412.96570     331.8481     293.0595   1412.96570     331.8481     293.0595
   1412.95044     330.2334     291.7930   1412.95044     330.2334     291.7930
   1412.93518     328.6144     291.5420   1412.93518     328.6144     291.5420
   1412.91992     327.2583     290.0651   1412.91992     327.2583     290.0651
   1412.90466     325.5598     288.8821   1412.90466     325.5598     288.8821
   1412.88940     324.0428     287.8164   1412.88940     324.0428     287.8164
   1412.87415     322.2791     287.0750   1412.87415     322.2791     287.0750
   1412.85889     321.0407     285.4706   1412.85889     321.0407     285.4706
   1412.84363     319.7911     284.4550   1412.84363     319.7911     284.4550
   1412.82837     318.2726     284.0871   1412.82837     318.2726     284.0871
   1412.81311     316.6364     283.1583   1412.81311     316.6364     283.1583
   1412.79785     315.5645     282.1610   1412.79785     315.5645     282.1610
   1412.78259     314.2798     280.7106   1412.78259     314.2798     280.7106
   1412.76733     312.9113     280.5898   1412.76733     312.9113     280.5898
   1412.75208     312.4454     280.3392   1412.75208     312.4454     280.3392
   1412.73682     310.8501     278.9904   1412.73682     310.8501     278.9904
   1412.72156     310.0474     278.2580   1412.72156     310.0474     278.2580
   1412.70630     308.7310     277.9065   1412.70630     308.7310     277.9065
   1412.69104     307.1876     277.4729   1412.69104     307.1876     277.4729
   1412.67578     306.6612     276.8336   1412.67578     306.6612     276.8336
   1412.66052     305.6362     275.5840   1412.66052     305.6362     275.5840
   1412.64526     304.7778     275.9842   1412.64526     304.7778     275.9842
   1412.63000     304.1885     275.2003   1412.63000     304.1885     275.2003
   1412.61475     303.1334     274.7781   1412.61475     303.1334     274.7781
   1412.59949     302.7286     274.6152   1412.59949     302.7286     274.6152
   1412.58423     302.1096     273.8435   1412.58423     302.1096     273.8435
   1412.56897     301.5667     273.5983   1412.56897     301.5667     273.5983
   1412.55371     300.5146     273.6595   1412.55371     300.5146     273.6595
   1412.53845     299.8986     273.0577   1412.53845     299.8986     273.0577
   1412.52319     299.7390     272.8618   1412.52319     299.7390     272.8618
   1412.50793     299.2340     272.7433   1412.50793     299.2340     272.7433
   1412.49268     298.5314     273.0293   1412.49268     298.5314     273.0293
   1412.47742     298.2269     272.6032   1412.47742     298.2269     272.6032
   1412.46216     297.9566     272.4555   1412.46216     297.9566     272.4555
   1412.44690     297.2213     272.7392   1412.44690     297.2213     272.7392
   1412.43164     297.4523     272.1907   1412.43164     297.4523     272.1907
   1412.41638     297.5746     272.5480   1412.41638     297.5746     272.5480
   1412.40112     297.1011     272.0770   1412.40112     297.1011     272.0770
   1412.38586     296.4767     272.3692   1412.38586     296.4767     272.3692
   1412.37061     296.5867     272.8598   1412.37061     296.5867     272.8598
   1412.35535     296.9008     272.8781   1412.35535     296.9008     272.8781
   1412.34009     296.8585     273.2301   1412.34009     296.8585     273.2301
   1412.32483     296.7422     273.5332   1412.32483     296.7422     273.5332
   1412.30957     296.7480     274.1860   1412.30957     296.7480     274.1860
   1412.29431     297.2137     274.5797   1412.29431     297.2137     274.5797
   1412.27905     296.8772     275.1075   1412.27905     296.8772     275.1075
   1412.26379     297.7437     275.2632   1412.26379     297.7437     275.2632
   1412.24854     297.0676     275.5372   1412.24854     297.0676     275.5372
   1412.23328     298.0249     276.0055   1412.23328     298.0249     276.0055
   1412.21802     298.7522     276.9949   1412.21802     298.7522     276.9949
   1412.20276     299.0681     277.6983   1412.20276     299.0681     277.6983