#     FILENAME=!Skynet_57528_lach-hhg-130_20430_20954.cyb.fits
#     BASENAME=Skynet_57528_lach-hhg-130_20430_20954
#     SRC_NAME=lach-hhg-130
#     OBSERVER=hhgmadison16_9500
#     DATE_OBS=2016-05-20T16:57:30.620
#        OBSID=20430
#      SCANNUM=20954
#          MJD=57528.7076
#          UTC=61139
#     SCANTYPE=track
#     DATAMODE=HIRES
#     TUNEFREQ=1420.0000
# Actual_FREQ1=1420.0000
# Actual_FREQ2=1420.0000
#    LO1Tuning=6870.000
#     RFFILTER=1355_1435
#        OBSBW=-15.6250
#        NCHAN=1024 
#        FOCUS=37.0929
#           RA=01:52:16.04
#          DEC=62:02:02.99
#      RA(hrs)=1.871100
#     DEC(deg)=62.034200
#    AZIM(deg)=334.750
#    ELEV(deg)=61.733
#     IFattens=10.00, 10.00
#      WARNING=None
#    TCAL_XL1=7.9635
#    TCAL_YR1=9.1340
#    TCAL_XL2=7.9635
#    TCAL_YR2=9.1340
#     TRX_XL1=11.7060
#     TRX_YR1=11.7060
#     TRX_XL2=11.7060
#     TRX_YR2=11.7060
#        TAVE=1.0000
#Freq1(MHz)          XL1          YR1  Freq2(MHz)          XL2          YR2 

   1427.81250     296.3735     288.5771   1427.81250     296.3735     288.5771
   1427.79724     296.2340     289.6868   1427.79724     296.2340     289.6868
   1427.78198     296.9045     290.6955   1427.78198     296.9045     290.6955
   1427.76672     297.6439     291.8857   1427.76672     297.6439     291.8857
   1427.75146     299.1055     292.5980   1427.75146     299.1055     292.5980
   1427.73621     299.2353     294.0328   1427.73621     299.2353     294.0328
   1427.72095     299.6766     294.6990   1427.72095     299.6766     294.6990
   1427.70569     300.2775     296.1509   1427.70569     300.2775     296.1509
   1427.69043     301.2266     297.1789   1427.69043     301.2266     297.1789
   1427.67517     302.2767     297.9919   1427.67517     302.2767     297.9919
   1427.65991     303.2188     299.5550   1427.65991     303.2188     299.5550
   1427.64465     304.4775     300.8888   1427.64465     304.4775     300.8888
   1427.62939     305.4400     302.2183   1427.62939     305.4400     302.2183
   1427.61414     306.3445     303.3939   1427.61414     306.3445     303.3939
   1427.59888     307.2555     305.3974   1427.59888     307.2555     305.3974
   1427.58362     308.4547     306.1543   1427.58362     308.4547     306.1543
   1427.56836     310.0104     307.7111   1427.56836     310.0104     307.7111
   1427.55310     310.5412     309.5265   1427.55310     310.5412     309.5265
   1427.53784     311.6473     310.3618   1427.53784     311.6473     310.3618
   1427.52258     313.6738     311.9025   1427.52258     313.6738     311.9025
   1427.50732     314.7409     314.3582   1427.50732     314.7409     314.3582
   1427.49207     315.8885     315.8061   1427.49207     315.8885     315.8061
   1427.47681     317.3754     317.6020   1427.47681     317.3754     317.6020
   1427.46155     318.7425     319.3102   1427.46155     318.7425     319.3102
   1427.44629     320.2527     321.0928   1427.44629     320.2527     321.0928
   1427.43103     322.0323     322.7924   1427.43103     322.0323     322.7924
   1427.41577     323.0792     324.4226   1427.41577     323.0792     324.4226
   1427.40051     325.0845     326.6529   1427.40051     325.0845     326.6529
   1427.38525     326.0782     328.0761   1427.38525     326.0782     328.0761
   1427.37000     328.5791     330.5371   1427.37000     328.5791     330.5371
   1427.35474     329.4987     331.8515   1427.35474     329.4987     331.8515
   1427.33948     331.5468     334.7922   1427.33948     331.5468     334.7922
   1427.32422     333.5599     337.0989   1427.32422     333.5599     337.0989
   1427.30896     335.4513     338.7889   1427.30896     335.4513     338.7889
   1427.29370     336.9223     340.3906   1427.29370     336.9223     340.3906
   1427.27844     338.9657     343.0755   1427.27844     338.9657     343.0755
   1427.26318     340.2964     345.2013   1427.26318     340.2964     345.2013
   1427.24792     342.4110     346.9501   1427.24792     342.4110     346.9501
   1427.23267     344.3960     349.4277   1427.23267     344.3960     349.4277
   1427.21741     346.8779     351.7892   1427.21741     346.8779     351.7892
   1427.20215     348.5569     354.1650   1427.20215     348.5569     354.1650
   1427.18689     350.5408     356.5002   1427.18689     350.5408     356.5002
   1427.17163     353.0481     358.6178   1427.17163     353.0481     358.6178
   1427.15637     355.0477     360.7510   1427.15637     355.0477     360.7510
   1427.14111     357.2992     363.2690   1427.14111     357.2992     363.2690
   1427.12585     359.1618     365.4197   1427.12585     359.1618     365.4197
   1427.11060     362.0710     367.7238   1427.11060     362.0710     367.7238
   1427.09534     363.8162     370.3539   1427.09534     363.8162     370.3539
   1427.08008     365.7851     372.7452   1427.08008     365.7851     372.7452
   1427.06482     367.8967     375.0335   1427.06482     367.8967     375.0335
   1427.04956     370.4430     377.7123   1427.04956     370.4430     377.7123
   1427.03430     372.5728     380.6291   1427.03430     372.5728     380.6291
   1427.01904     375.8615     382.8846   1427.01904     375.8615     382.8846
   1427.00378     377.7442     384.8722   1427.00378     377.7442     384.8722
   1426.98853     379.7632     387.5535   1426.98853     379.7632     387.5535
   1426.97327     381.6123     390.2129   1426.97327     381.6123     390.2129
   1426.95801     384.7719     392.7290   1426.95801     384.7719     392.7290
   1426.94275     386.4992     395.4802   1426.94275     386.4992     395.4802
   1426.92749     389.2159     398.2950   1426.92749     389.2159     398.2950
   1426.91223     391.7836     400.2721   1426.91223     391.7836     400.2721
   1426.89697     393.8604     403.2160   1426.89697     393.8604     403.2160
   1426.88171     396.3763     405.7602   1426.88171     396.3763     405.7602
   1426.86646     399.1182     409.0855   1426.86646     399.1182     409.0855
   1426.85120     401.5261     410.7410   1426.85120     401.5261     410.7410
   1426.83594     403.9363     413.7281   1426.83594     403.9363     413.7281
   1426.82068     406.0410     416.6710   1426.82068     406.0410     416.6710
   1426.80542     409.2461     419.0187   1426.80542     409.2461     419.0187
   1426.79016     411.6925     421.9814   1426.79016     411.6925     421.9814
   1426.77490     414.0690     423.9407   1426.77490     414.0690     423.9407
   1426.75964     416.6358     426.7248   1426.75964     416.6358     426.7248
   1426.74438     419.2451     428.8682   1426.74438     419.2451     428.8682
   1426.72913     421.6407     432.9111   1426.72913     421.6407     432.9111
   1426.71387     424.2990     434.4643   1426.71387     424.2990     434.4643
   1426.69861     427.0287     437.4538   1426.69861     427.0287     437.4538
   1426.68335     428.8971     440.1332   1426.68335     428.8971     440.1332
   1426.66809     431.9999     443.2225   1426.66809     431.9999     443.2225
   1426.65283     434.3653     445.9637   1426.65283     434.3653     445.9637
   1426.63757     436.7537     447.5471   1426.63757     436.7537     447.5471
   1426.62231     440.1462     452.4734   1426.62231     440.1462     452.4734
   1426.60706     441.6888     454.2899   1426.60706     441.6888     454.2899
   1426.59180     444.7791     456.5306   1426.59180     444.7791     456.5306
   1426.57654     447.1062     457.9570   1426.57654     447.1062     457.9570
   1426.56128     449.4862     460.9689   1426.56128     449.4862     460.9689
   1426.54602     452.2792     463.7951   1426.54602     452.2792     463.7951
   1426.53076     454.7225     466.6407   1426.53076     454.7225     466.6407
   1426.51550     457.1338     468.6100   1426.51550     457.1338     468.6100
   1426.50024     459.3992     472.1044   1426.50024     459.3992     472.1044
   1426.48499     462.1491     473.5529   1426.48499     462.1491     473.5529
   1426.46973     464.0491     477.0312   1426.46973     464.0491     477.0312
   1426.45447     467.0204     479.5999   1426.45447     467.0204     479.5999
   1426.43921     469.7397     481.9135   1426.43921     469.7397     481.9135
   1426.42395     471.7441     484.2650   1426.42395     471.7441     484.2650
   1426.40869     475.1663     487.4753   1426.40869     475.1663     487.4753
   1426.39343     477.7261     488.7560   1426.39343     477.7261     488.7560
   1426.37817     480.3532     491.4416   1426.37817     480.3532     491.4416
   1426.36292     482.0848     494.3727   1426.36292     482.0848     494.3727
   1426.34766     485.1505     496.1544   1426.34766     485.1505     496.1544
   1426.33240     488.1831     498.7391   1426.33240     488.1831     498.7391
   1426.31714     489.9560     501.0628   1426.31714     489.9560     501.0628
   1426.30188     492.0803     504.6552   1426.30188     492.0803     504.6552
   1426.28662     494.1124     506.1014   1426.28662     494.1124     506.1014
   1426.27136     496.3205     508.5950   1426.27136     496.3205     508.5950
   1426.25610     498.4275     510.8414   1426.25610     498.4275     510.8414
   1426.24084     501.7181     513.1087   1426.24084     501.7181     513.1087
   1426.22559     503.3898     515.1011   1426.22559     503.3898     515.1011
   1426.21033     505.5492     517.7908   1426.21033     505.5492     517.7908
   1426.19507     508.3113     520.1238   1426.19507     508.3113     520.1238
   1426.17981     510.6654     522.1133   1426.17981     510.6654     522.1133
   1426.16455     513.5403     524.5701   1426.16455     513.5403     524.5701
   1426.14929     515.6622     527.0345   1426.14929     515.6622     527.0345
   1426.13403     517.2610     529.3954   1426.13403     517.2610     529.3954
   1426.11877     520.1051     531.1918   1426.11877     520.1051     531.1918
   1426.10352     521.4204     533.7700   1426.10352     521.4204     533.7700
   1426.08826     523.3900     536.5163   1426.08826     523.3900     536.5163
   1426.07300     526.2086     538.1822   1426.07300     526.2086     538.1822
   1426.05774     527.5084     539.5606   1426.05774     527.5084     539.5606
   1426.04248     529.8157     541.6263   1426.04248     529.8157     541.6263
   1426.02722     532.9224     544.9679   1426.02722     532.9224     544.9679
   1426.01196     533.8553     546.4772   1426.01196     533.8553     546.4772
   1425.99670     535.3588     548.2145   1425.99670     535.3588     548.2145
   1425.98145     538.1346     551.4789   1425.98145     538.1346     551.4789
   1425.96619     540.3813     552.7421   1425.96619     540.3813     552.7421
   1425.95093     542.2685     553.5579   1425.95093     542.2685     553.5579
   1425.93567     544.2944     555.9286   1425.93567     544.2944     555.9286
   1425.92041     545.8189     557.5341   1425.92041     545.8189     557.5341
   1425.90515     547.7812     560.0853   1425.90515     547.7812     560.0853
   1425.88989     549.9728     562.5162   1425.88989     549.9728     562.5162
   1425.87463     551.2968     563.6929   1425.87463     551.2968     563.6929
   1425.85938     553.8546     565.8748   1425.85938     553.8546     565.8748
   1425.84412     555.1678     568.6487   1425.84412     555.1678     568.6487
   1425.82886     557.1663     569.6124   1425.82886     557.1663     569.6124
   1425.81360     558.5144     570.2313   1425.81360     558.5144     570.2313
   1425.79834     560.9752     573.2313   1425.79834     560.9752     573.2313
   1425.78308     562.0702     574.1978   1425.78308     562.0702     574.1978
   1425.76782     564.0734     576.2781   1425.76782     564.0734     576.2781
   1425.75256     565.4273     578.4330   1425.75256     565.4273     578.4330
   1425.73730     566.9272     580.0392   1425.73730     566.9272     580.0392
   1425.72205     568.3486     582.1225   1425.72205     568.3486     582.1225
   1425.70679     569.8010     583.4686   1425.70679     569.8010     583.4686
   1425.69153     571.8711     584.4516   1425.69153     571.8711     584.4516
   1425.67627     574.0847     586.6931   1425.67627     574.0847     586.6931
   1425.66101     574.9467     588.2654   1425.66101     574.9467     588.2654
   1425.64575     575.4742     588.8872   1425.64575     575.4742     588.8872
   1425.63049     577.1826     591.0573   1425.63049     577.1826     591.0573
   1425.61523     577.6936     592.1636   1425.61523     577.6936     592.1636
   1425.59998     580.0938     595.0304   1425.59998     580.0938     595.0304
   1425.58472     581.6392     595.6407   1425.58472     581.6392     595.6407
   1425.56946     581.9962     596.4963   1425.56946     581.9962     596.4963
   1425.55420     583.2158     597.4952   1425.55420     583.2158     597.4952
   1425.53894     585.1390     599.1267   1425.53894     585.1390     599.1267
   1425.52368     586.2570     600.5760   1425.52368     586.2570     600.5760
   1425.50842     586.8755     601.6946   1425.50842     586.8755     601.6946
   1425.49316     588.3306     603.4453   1425.49316     588.3306     603.4453
   1425.47791     589.9276     603.0722   1425.47791     589.9276     603.0722
   1425.46265     590.7736     605.9869   1425.46265     590.7736     605.9869
   1425.44739     592.2697     607.4356   1425.44739     592.2697     607.4356
   1425.43213     591.7061     609.0814   1425.43213     591.7061     609.0814
   1425.41687     593.7582     610.2062   1425.41687     593.7582     610.2062
   1425.40161     596.0039     610.1079   1425.40161     596.0039     610.1079
   1425.38635     596.3683     613.1055   1425.38635     596.3683     613.1055
   1425.37109     596.5214     613.1024   1425.37109     596.5214     613.1024
   1425.35583     597.1456     614.4373   1425.35583     597.1456     614.4373
   1425.34058     598.5482     615.1793   1425.34058     598.5482     615.1793
   1425.32532     599.5488     616.1416   1425.32532     599.5488     616.1416
   1425.31006     600.0022     616.2355   1425.31006     600.0022     616.2355
   1425.29480     600.5659     617.8956   1425.29480     600.5659     617.8956
   1425.27954     602.5493     618.6001   1425.27954     602.5493     618.6001
   1425.26428     601.7529     620.2250   1425.26428     601.7529     620.2250
   1425.24902     604.0204     621.0695   1425.24902     604.0204     621.0695
   1425.23376     604.0309     621.3327   1425.23376     604.0309     621.3327
   1425.21851     605.1197     623.4934   1425.21851     605.1197     623.4934
   1425.20325     605.8335     624.2964   1425.20325     605.8335     624.2964
   1425.18799     605.4577     624.8070   1425.18799     605.4577     624.8070
   1425.17273     606.3429     625.1399   1425.17273     606.3429     625.1399
   1425.15747     606.5563     626.7732   1425.15747     606.5563     626.7732
   1425.14221     608.0974     627.8942   1425.14221     608.0974     627.8942
   1425.12695     608.8929     627.8206   1425.12695     608.8929     627.8206
   1425.11169     609.3759     629.1608   1425.11169     609.3759     629.1608
   1425.09644     609.6255     629.7401   1425.09644     609.6255     629.7401
   1425.08118     609.4709     630.0146   1425.08118     609.4709     630.0146
   1425.06592     610.0893     631.0800   1425.06592     610.0893     631.0800
   1425.05066     611.0621     631.3506   1425.05066     611.0621     631.3506
   1425.03540     611.3386     632.6327   1425.03540     611.3386     632.6327
   1425.02014     611.7248     633.4108   1425.02014     611.7248     633.4108
   1425.00488     612.2056     633.3291   1425.00488     612.2056     633.3291
   1424.98962     613.3923     635.6296   1424.98962     613.3923     635.6296
   1424.97437     613.6732     634.4659   1424.97437     613.6732     634.4659
   1424.95911     613.7732     636.2690   1424.95911     613.7732     636.2690
   1424.94385     613.4110     636.0190   1424.94385     613.4110     636.0190
   1424.92859     614.8824     636.5321   1424.92859     614.8824     636.5321
   1424.91333     614.1464     637.8629   1424.91333     614.1464     637.8629
   1424.89807     614.1362     637.4567   1424.89807     614.1362     637.4567
   1424.88281     614.5075     637.8583   1424.88281     614.5075     637.8583
   1424.86755     615.1346     639.1511   1424.86755     615.1346     639.1511
   1424.85229     614.7788     638.0653   1424.85229     614.7788     638.0653
   1424.83704     615.9324     639.3306   1424.83704     615.9324     639.3306
   1424.82178     615.5427     640.5355   1424.82178     615.5427     640.5355
   1424.80652     614.7783     639.5677   1424.80652     614.7783     639.5677
   1424.79126     615.2126     642.2947   1424.79126     615.2126     642.2947
   1424.77600     614.7286     641.3839   1424.77600     614.7286     641.3839
   1424.76074     615.6235     641.3353   1424.76074     615.6235     641.3353
   1424.74548     614.3363     641.3154   1424.74548     614.3363     641.3154
   1424.73022     615.6362     641.3711   1424.73022     615.6362     641.3711
   1424.71497     615.7001     642.6906   1424.71497     615.7001     642.6906
   1424.69971     615.3710     642.6464   1424.69971     615.3710     642.6464
   1424.68445     615.5602     642.9753   1424.68445     615.5602     642.9753
   1424.66919     616.0943     643.8214   1424.66919     616.0943     643.8214
   1424.65393     615.1803     642.9614   1424.65393     615.1803     642.9614
   1424.63867     615.7057     644.1705   1424.63867     615.7057     644.1705
   1424.62341     615.5441     643.0096   1424.62341     615.5441     643.0096
   1424.60815     615.8993     643.9407   1424.60815     615.8993     643.9407
   1424.59290     614.9973     644.2968   1424.59290     614.9973     644.2968
   1424.57764     616.1114     644.4656   1424.57764     616.1114     644.4656
   1424.56238     614.8976     644.5962   1424.56238     614.8976     644.5962
   1424.54712     615.9802     644.8425   1424.54712     615.9802     644.8425
   1424.53186     614.1875     644.4041   1424.53186     614.1875     644.4041
   1424.51660     615.0207     645.2593   1424.51660     615.0207     645.2593
   1424.50134     614.6249     644.7676   1424.50134     614.6249     644.7676
   1424.48608     613.9867     644.7373   1424.48608     613.9867     644.7373
   1424.47083     613.1229     646.0686   1424.47083     613.1229     646.0686
   1424.45557     614.0511     644.8351   1424.45557     614.0511     644.8351
   1424.44031     614.5538     645.4459   1424.44031     614.5538     645.4459
   1424.42505     613.6174     646.3192   1424.42505     613.6174     646.3192
   1424.40979     613.2978     644.9702   1424.40979     613.2978     644.9702
   1424.39453     613.5751     645.2411   1424.39453     613.5751     645.2411
   1424.37927     613.2433     645.8569   1424.37927     613.2433     645.8569
   1424.36401     612.4057     645.3417   1424.36401     612.4057     645.3417
   1424.34875     612.5339     645.4755   1424.34875     612.5339     645.4755
   1424.33350     611.9553     645.1736   1424.33350     611.9553     645.1736
   1424.31824     611.2715     645.4504   1424.31824     611.2715     645.4504
   1424.30298     611.3948     645.1847   1424.30298     611.3948     645.1847
   1424.28772     610.5733     645.1865   1424.28772     610.5733     645.1865
   1424.27246     611.1533     644.3192   1424.27246     611.1533     644.3192
   1424.25720     611.5248     644.3036   1424.25720     611.5248     644.3036
   1424.24194     610.5998     644.9985   1424.24194     610.5998     644.9985
   1424.22668     609.7579     645.1959   1424.22668     609.7579     645.1959
   1424.21143     610.4329     644.3456   1424.21143     610.4329     644.3456
   1424.19617     609.6838     644.7444   1424.19617     609.6838     644.7444
   1424.18091     610.0450     643.7077   1424.18091     610.0450     643.7077
   1424.16565     609.3203     643.5283   1424.16565     609.3203     643.5283
   1424.15039     608.0032     643.7025   1424.15039     608.0032     643.7025
   1424.13513     608.0439     643.0605   1424.13513     608.0439     643.0605
   1424.11987     607.8021     643.7352   1424.11987     607.8021     643.7352
   1424.10461     607.5846     642.9745   1424.10461     607.5846     642.9745
   1424.08936     606.9580     642.8276   1424.08936     606.9580     642.8276
   1424.07410     605.7012     642.3628   1424.07410     605.7012     642.3628
   1424.05884     607.0544     643.4734   1424.05884     607.0544     643.4734
   1424.04358     605.5678     640.6863   1424.04358     605.5678     640.6863
   1424.02832     606.2032     641.6167   1424.02832     606.2032     641.6167
   1424.01306     605.0358     641.9831   1424.01306     605.0358     641.9831
   1423.99780     605.2456     642.6758   1423.99780     605.2456     642.6758
   1423.98254     604.3653     640.7480   1423.98254     604.3653     640.7480
   1423.96729     604.2960     640.8859   1423.96729     604.2960     640.8859
   1423.95203     604.1351     640.3705   1423.95203     604.1351     640.3705
   1423.93677     603.7864     640.0629   1423.93677     603.7864     640.0629
   1423.92151     603.9858     640.0262   1423.92151     603.9858     640.0262
   1423.90625     602.9515     639.6219   1423.90625     602.9515     639.6219
   1423.89099     602.1544     639.0883   1423.89099     602.1544     639.0883
   1423.87573     601.8496     639.1622   1423.87573     601.8496     639.1622
   1423.86047     601.5468     637.9473   1423.86047     601.5468     637.9473
   1423.84521     601.0995     637.8522   1423.84521     601.0995     637.8522
   1423.82996     600.1583     638.0483   1423.82996     600.1583     638.0483
   1423.81470     600.1627     638.1083   1423.81470     600.1627     638.1083
   1423.79944     599.8530     636.1972   1423.79944     599.8530     636.1972
   1423.78418     598.9053     635.0577   1423.78418     598.9053     635.0577
   1423.76892     598.9314     636.0591   1423.76892     598.9314     636.0591
   1423.75366     598.6782     635.2548   1423.75366     598.6782     635.2548
   1423.73840     598.4440     634.9747   1423.73840     598.4440     634.9747
   1423.72314     597.9114     634.1758   1423.72314     597.9114     634.1758
   1423.70789     597.4186     633.5381   1423.70789     597.4186     633.5381
   1423.69263     596.5798     633.3698   1423.69263     596.5798     633.3698
   1423.67737     596.5788     632.9301   1423.67737     596.5788     632.9301
   1423.66211     596.2831     631.8477   1423.66211     596.2831     631.8477
   1423.64685     596.7946     632.2700   1423.64685     596.7946     632.2700
   1423.63159     595.1385     632.0450   1423.63159     595.1385     632.0450
   1423.61633     595.8599     631.5063   1423.61633     595.8599     631.5063
   1423.60107     594.5333     631.1973   1423.60107     594.5333     631.1973
   1423.58582     594.4885     631.2083   1423.58582     594.4885     631.2083
   1423.57056     593.3103     629.2958   1423.57056     593.3103     629.2958
   1423.55530     593.4415     628.6042   1423.55530     593.4415     628.6042
   1423.54004     593.0567     628.2489   1423.54004     593.0567     628.2489
   1423.52478     592.4493     627.1892   1423.52478     592.4493     627.1892
   1423.50952     592.6588     626.8829   1423.50952     592.6588     626.8829
   1423.49426     591.8862     626.7556   1423.49426     591.8862     626.7556
   1423.47900     590.9548     627.1894   1423.47900     590.9548     627.1894
   1423.46375     590.1839     624.3920   1423.46375     590.1839     624.3920
   1423.44849     590.3381     624.8067   1423.44849     590.3381     624.8067
   1423.43323     590.7286     624.4307   1423.43323     590.7286     624.4307
   1423.41797     590.8616     623.5037   1423.41797     590.8616     623.5037
   1423.40271     589.0775     622.5656   1423.40271     589.0775     622.5656
   1423.38745     588.6429     622.4721   1423.38745     588.6429     622.4721
   1423.37219     588.4070     621.6014   1423.37219     588.4070     621.6014
   1423.35693     588.1301     620.1856   1423.35693     588.1301     620.1856
   1423.34167     588.4422     620.6537   1423.34167     588.4422     620.6537
   1423.32642     587.0481     620.2793   1423.32642     587.0481     620.2793
   1423.31116     587.2529     619.2703   1423.31116     587.2529     619.2703
   1423.29590     586.3442     618.2433   1423.29590     586.3442     618.2433
   1423.28064     586.0143     617.4069   1423.28064     586.0143     617.4069
   1423.26538     585.9539     617.3962   1423.26538     585.9539     617.3962
   1423.25012     586.0659     617.2817   1423.25012     586.0659     617.2817
   1423.23486     585.4173     617.1730   1423.23486     585.4173     617.1730
   1423.21960     584.5805     614.6719   1423.21960     584.5805     614.6719
   1423.20435     584.9161     614.0758   1423.20435     584.9161     614.0758
   1423.18909     584.5901     613.8375   1423.18909     584.5901     613.8375
   1423.17383     583.3915     612.5560   1423.17383     583.3915     612.5560
   1423.15857     583.5853     612.2825   1423.15857     583.5853     612.2825
   1423.14331     583.0975     612.2570   1423.14331     583.0975     612.2570
   1423.12805     582.8561     610.5490   1423.12805     582.8561     610.5490
   1423.11279     582.9247     609.9906   1423.11279     582.9247     609.9906
   1423.09753     582.3019     609.7806   1423.09753     582.3019     609.7806
   1423.08228     581.7026     607.9977   1423.08228     581.7026     607.9977
   1423.06702     581.9116     606.9993   1423.06702     581.9116     606.9993
   1423.05176     581.6974     606.3470   1423.05176     581.6974     606.3470
   1423.03650     581.2016     605.9489   1423.03650     581.2016     605.9489
   1423.02124     581.7274     605.1487   1423.02124     581.7274     605.1487
   1423.00598     580.1803     603.9875   1423.00598     580.1803     603.9875
   1422.99072     580.2144     603.9188   1422.99072     580.2144     603.9188
   1422.97546     579.9681     602.4181   1422.97546     579.9681     602.4181
   1422.96021     580.4753     603.1179   1422.96021     580.4753     603.1179
   1422.94495     579.1410     600.5431   1422.94495     579.1410     600.5431
   1422.92969     579.7366     600.7988   1422.92969     579.7366     600.7988
   1422.91443     579.4025     600.4757   1422.91443     579.4025     600.4757
   1422.89917     577.2498     598.4496   1422.89917     577.2498     598.4496
   1422.88391     578.1828     598.3184   1422.88391     578.1828     598.3184
   1422.86865     578.3293     597.2317   1422.86865     578.3293     597.2317
   1422.85339     577.5699     596.7034   1422.85339     577.5699     596.7034
   1422.83813     577.6904     595.4698   1422.83813     577.6904     595.4698
   1422.82288     576.7568     595.4647   1422.82288     576.7568     595.4647
   1422.80762     576.3906     594.4540   1422.80762     576.3906     594.4540
   1422.79236     576.3666     593.7443   1422.79236     576.3666     593.7443
   1422.77710     576.5883     592.4086   1422.77710     576.5883     592.4086
   1422.76184     575.2886     591.0426   1422.76184     575.2886     591.0426
   1422.74658     575.8100     589.9683   1422.74658     575.8100     589.9683
   1422.73132     574.9730     590.7965   1422.73132     574.9730     590.7965
   1422.71606     573.9091     588.6688   1422.71606     573.9091     588.6688
   1422.70081     574.8895     588.3255   1422.70081     574.8895     588.3255
   1422.68555     574.7292     587.5643   1422.68555     574.7292     587.5643
   1422.67029     574.4313     586.7595   1422.67029     574.4313     586.7595
   1422.65503     573.8868     585.4477   1422.65503     573.8868     585.4477
   1422.63977     574.0684     584.5162   1422.63977     574.0684     584.5162
   1422.62451     573.6425     583.7917   1422.62451     573.6425     583.7917
   1422.60925     573.8234     582.0453   1422.60925     573.8234     582.0453
   1422.59399     572.5946     581.4293   1422.59399     572.5946     581.4293
   1422.57874     573.0134     581.1072   1422.57874     573.0134     581.1072
   1422.56348     572.8318     579.3091   1422.56348     572.8318     579.3091
   1422.54822     572.3187     579.3556   1422.54822     572.3187     579.3556
   1422.53296     572.3018     577.4774   1422.53296     572.3018     577.4774
   1422.51770     570.6071     576.5028   1422.51770     570.6071     576.5028
   1422.50244     571.0467     576.1422   1422.50244     571.0467     576.1422
   1422.48718     571.7836     575.0647   1422.48718     571.7836     575.0647
   1422.47192     570.8930     574.0677   1422.47192     570.8930     574.0677
   1422.45667     570.0554     572.9042   1422.45667     570.0554     572.9042
   1422.44141     570.2944     571.9526   1422.44141     570.2944     571.9526
   1422.42615     571.7347     570.7131   1422.42615     571.7347     570.7131
   1422.41089     570.7006     570.4235   1422.41089     570.7006     570.4235
   1422.39563     569.9268     568.9469   1422.39563     569.9268     568.9469
   1422.38037     569.2888     568.4451   1422.38037     569.2888     568.4451
   1422.36511     569.3492     567.8677   1422.36511     569.3492     567.8677
   1422.34985     568.9759     566.4507   1422.34985     568.9759     566.4507
   1422.33459     568.9620     565.8989   1422.33459     568.9620     565.8989
   1422.31934     568.9231     565.1113   1422.31934     568.9231     565.1113
   1422.30408     568.6688     564.3710   1422.30408     568.6688     564.3710
   1422.28882     568.9841     563.5672   1422.28882     568.9841     563.5672
   1422.27356     568.0751     561.7112   1422.27356     568.0751     561.7112
   1422.25830     569.4929     559.9958   1422.25830     569.4929     559.9958
   1422.24304     568.7026     561.7262   1422.24304     568.7026     561.7262
   1422.22778     568.4372     560.0659   1422.22778     568.4372     560.0659
   1422.21252     568.9045     558.2530   1422.21252     568.9045     558.2530
   1422.19727     567.9464     557.3698   1422.19727     567.9464     557.3698
   1422.18201     568.1706     557.1020   1422.18201     568.1706     557.1020
   1422.16675     567.4692     555.9969   1422.16675     567.4692     555.9969
   1422.15149     567.7004     554.9085   1422.15149     567.7004     554.9085
   1422.13623     567.2314     553.4734   1422.13623     567.2314     553.4734
   1422.12097     567.6797     552.5526   1422.12097     567.6797     552.5526
   1422.10571     567.3967     550.6050   1422.10571     567.3967     550.6050
   1422.09045     566.2954     549.9897   1422.09045     566.2954     549.9897
   1422.07520     567.5365     550.5775   1422.07520     567.5365     550.5775
   1422.05994     566.4491     549.0831   1422.05994     566.4491     549.0831
   1422.04468     566.5485     547.7381   1422.04468     566.5485     547.7381
   1422.02942     566.2062     546.6663   1422.02942     566.2062     546.6663
   1422.01416     566.4066     545.3080   1422.01416     566.4066     545.3080
   1421.99890     566.1213     544.8738   1421.99890     566.1213     544.8738
   1421.98364     566.4423     542.8877   1421.98364     566.4423     542.8877
   1421.96838     566.2878     542.2523   1421.96838     566.2878     542.2523
   1421.95312     565.4463     542.2333   1421.95312     565.4463     542.2333
   1421.93787     564.9459     541.3688   1421.93787     564.9459     541.3688
   1421.92261     565.5979     540.0614   1421.92261     565.5979     540.0614
   1421.90735     564.4846     539.6711   1421.90735     564.4846     539.6711
   1421.89209     565.5745     538.2097   1421.89209     565.5745     538.2097
   1421.87683     563.9769     536.9745   1421.87683     563.9769     536.9745
   1421.86157     565.3226     535.9541   1421.86157     565.3226     535.9541
   1421.84631     565.4102     534.2857   1421.84631     565.4102     534.2857
   1421.83105     564.8705     534.5233   1421.83105     564.8705     534.5233
   1421.81580     565.1751     532.5806   1421.81580     565.1751     532.5806
   1421.80054     564.0492     531.6930   1421.80054     564.0492     531.6930
   1421.78528     564.3668     531.0498   1421.78528     564.3668     531.0498
   1421.77002     564.8125     530.2152   1421.77002     564.8125     530.2152
   1421.75476     564.0797     527.6826   1421.75476     564.0797     527.6826
   1421.73950     563.7767     528.3728   1421.73950     563.7767     528.3728
   1421.72424     563.4694     526.6501   1421.72424     563.4694     526.6501
   1421.70898     564.1804     526.0764   1421.70898     564.1804     526.0764
   1421.69373     563.1120     524.9967   1421.69373     563.1120     524.9967
   1421.67847     563.2177     524.2446   1421.67847     563.2177     524.2446
   1421.66321     563.0408     523.1138   1421.66321     563.0408     523.1138
   1421.64795     562.5232     521.6220   1421.64795     562.5232     521.6220
   1421.63269     563.2020     521.4002   1421.63269     563.2020     521.4002
   1421.61743     562.2985     519.6868   1421.61743     562.2985     519.6868
   1421.60217     562.6747     519.1475   1421.60217     562.6747     519.1475
   1421.58691     562.4366     518.9089   1421.58691     562.4366     518.9089
   1421.57166     563.5707     517.9789   1421.57166     563.5707     517.9789
   1421.55640     561.8845     516.0373   1421.55640     561.8845     516.0373
   1421.54114     561.1933     514.8998   1421.54114     561.1933     514.8998
   1421.52588     561.8755     514.4673   1421.52588     561.8755     514.4673
   1421.51062     562.1240     513.2550   1421.51062     562.1240     513.2550
   1421.49536     562.2135     512.1442   1421.49536     562.2135     512.1442
   1421.48010     562.8051     512.3962   1421.48010     562.8051     512.3962
   1421.46484     563.0560     511.2678   1421.46484     563.0560     511.2678
   1421.44958     563.8625     511.1015   1421.44958     563.8625     511.1015
   1421.43433     564.4316     511.3161   1421.43433     564.4316     511.3161
   1421.41907     566.3157     512.1692   1421.41907     566.3157     512.1692
   1421.40381     569.3727     513.6153   1421.40381     569.3727     513.6153
   1421.38855     573.7191     517.3101   1421.38855     573.7191     517.3101
   1421.37329     575.9042     517.4155   1421.37329     575.9042     517.4155
   1421.35803     575.4745     516.2057   1421.35803     575.4745     516.2057
   1421.34277     571.4561     512.3054   1421.34277     571.4561     512.3054
   1421.32751     567.0178     506.4836   1421.32751     567.0178     506.4836
   1421.31226     564.5304     504.2674   1421.31226     564.5304     504.2674
   1421.29700     563.4297     502.3016   1421.29700     563.4297     502.3016
   1421.28174     563.6066     500.9479   1421.28174     563.6066     500.9479
   1421.26648     562.6558     499.9307   1421.26648     562.6558     499.9307
   1421.25122     562.4830     499.2941   1421.25122     562.4830     499.2941
   1421.23596     562.8174     498.5659   1421.23596     562.8174     498.5659
   1421.22070     562.6508     497.7644   1421.22070     562.6508     497.7644
   1421.20544     562.1403     497.3906   1421.20544     562.1403     497.3906
   1421.19019     563.2481     495.3608   1421.19019     563.2481     495.3608
   1421.17493     563.4957     495.3206   1421.17493     563.4957     495.3206
   1421.15967     562.3870     494.4953   1421.15967     562.3870     494.4953
   1421.14441     563.3436     493.7766   1421.14441     563.3436     493.7766
   1421.12915     563.4628     492.4848   1421.12915     563.4628     492.4848
   1421.11389     563.4111     492.3421   1421.11389     563.4111     492.3421
   1421.09863     562.6033     491.7394   1421.09863     562.6033     491.7394
   1421.08337     563.5853     490.6147   1421.08337     563.5853     490.6147
   1421.06812     564.2339     490.2616   1421.06812     564.2339     490.2616
   1421.05286     564.5938     490.7797   1421.05286     564.5938     490.7797
   1421.03760     567.0204     491.6350   1421.03760     567.0204     491.6350
   1421.02234     569.8521     493.7360   1421.02234     569.8521     493.7360
   1421.00708     577.0785     497.4961   1421.00708     577.0785     497.4961
   1420.99182     588.4348     507.0413   1420.99182     588.4348     507.0413
   1420.97656     613.7520     526.6970   1420.97656     613.7520     526.6970
   1420.96130     649.1194     553.5513   1420.96130     649.1194     553.5513
   1420.94604     670.6292     572.1410   1420.94604     670.6292     572.1410
   1420.93079     663.3109     567.3821   1420.93079     663.3109     567.3821
   1420.91553     681.2159     579.8725   1420.91553     681.2159     579.8725
   1420.90027     762.7988     646.3471   1420.90027     762.7988     646.3471
   1420.88501     819.5234     692.9738   1420.88501     819.5234     692.9738
   1420.86975     821.4685     693.5427   1420.86975     821.4685     693.5427
   1420.85449     871.5279     733.6898   1420.85449     871.5279     733.6898
   1420.83923     904.1811     757.7726   1420.83923     904.1811     757.7726
   1420.82397     885.5277     744.1213   1420.82397     885.5277     744.1213
   1420.80872     848.5818     710.7719   1420.80872     848.5818     710.7719
   1420.79346     805.5302     675.1309   1420.79346     805.5302     675.1309
   1420.77820     842.9459     704.9846   1420.77820     842.9459     704.9846
   1420.76294    1014.3090     842.5037   1420.76294    1014.3090     842.5037
   1420.74768    1190.7314     985.4794   1420.74768    1190.7314     985.4794
   1420.73242    1304.8823    1076.8151   1420.73242    1304.8823    1076.8151
   1420.71716    1440.5842    1184.0912   1420.71716    1440.5842    1184.0912
   1420.70190    1586.0621    1300.0651   1420.70190    1586.0621    1300.0651
   1420.68665    1688.0066    1384.1090   1420.68665    1688.0066    1384.1090
   1420.67139    1732.1868    1415.9304   1420.67139    1732.1868    1415.9304
   1420.65613    1759.0790    1435.5771   1420.65613    1759.0790    1435.5771
   1420.64087    1781.9067    1454.2153   1420.64087    1781.9067    1454.2153
   1420.62561    1685.8434    1367.4503   1420.62561    1685.8434    1367.4503
   1420.61035    1428.6414    1158.4438   1420.61035    1428.6414    1158.4438
   1420.59509    1088.7712     884.1072   1420.59509    1088.7712     884.1072
   1420.57983     925.7079     754.6960   1420.57983     925.7079     754.6960
   1420.56458     894.9320     731.4486   1420.56458     894.9320     731.4486
   1420.54932     912.7794     743.7837   1420.54932     912.7794     743.7837
   1420.53406     965.6067     786.0179   1420.53406     965.6067     786.0179
   1420.51880     987.1429     801.1569   1420.51880     987.1429     801.1569
   1420.50354    1018.8871     826.2788   1420.50354    1018.8871     826.2788
   1420.48828    1093.7256     885.9420   1420.48828    1093.7256     885.9420
   1420.47302    1199.0758     966.5012   1420.47302    1199.0758     966.5012
   1420.45776    1177.7802     948.4296   1420.45776    1177.7802     948.4296
   1420.44250    1185.9607     952.5925   1420.44250    1185.9607     952.5925
   1420.42725    1211.7697     971.6221   1420.42725    1211.7697     971.6221
   1420.41199     919.3160     740.0386   1420.41199     919.3160     740.0386
   1420.39673     697.7380     563.2057   1420.39673     697.7380     563.2057
   1420.38147     619.3922     502.0266   1420.38147     619.3922     502.0266
   1420.36621     586.8475     475.9277   1420.36621     586.8475     475.9277
   1420.35095     573.3097     464.3232   1420.35095     573.3097     464.3232
   1420.33569     565.3273     458.9228   1420.33569     565.3273     458.9228
   1420.32043     562.4127     455.7459   1420.32043     562.4127     455.7459
   1420.30518     559.8820     452.9063   1420.30518     559.8820     452.9063
   1420.28992     558.7752     451.6166   1420.28992     558.7752     451.6166
   1420.27466     556.8761     449.8868   1420.27466     556.8761     449.8868
   1420.25940     557.0087     448.9313   1420.25940     557.0087     448.9313
   1420.24414     556.9418     448.1970   1420.24414     556.9418     448.1970
   1420.22888     557.0937     447.2232   1420.22888     557.0937     447.2232
   1420.21362     554.6157     446.4388   1420.21362     554.6157     446.4388
   1420.19836     554.1373     444.6363   1420.19836     554.1373     444.6363
   1420.18311     553.2525     443.4208   1420.18311     553.2525     443.4208
   1420.16785     553.2336     442.9322   1420.16785     553.2336     442.9322
   1420.15259     553.3400     441.5554   1420.15259     553.3400     441.5554
   1420.13733     552.5826     442.4109   1420.13733     552.5826     442.4109
   1420.12207     552.1227     441.0287   1420.12207     552.1227     441.0287
   1420.10681     552.4406     440.7462   1420.10681     552.4406     440.7462
   1420.09155     551.0646     438.9258   1420.09155     551.0646     438.9258
   1420.07629     551.1864     438.4737   1420.07629     551.1864     438.4737
   1420.06104     550.7471     437.7470   1420.06104     550.7471     437.7470
   1420.04578     550.8412     437.6999   1420.04578     550.8412     437.6999
   1420.03052     550.5342     437.5904   1420.03052     550.5342     437.5904
   1420.01526     551.5648     437.9648   1420.01526     551.5648     437.9648
   1420.00000     552.2440     438.0591   1420.00000     552.2440     438.0591
   1419.98474     552.9229     438.1536   1419.98474     552.9229     438.1536
   1419.96948     552.5173     436.9748   1419.96948     552.5173     436.9748
   1419.95422     550.1912     434.9485   1419.95422     550.1912     434.9485
   1419.93896     549.8096     435.0159   1419.93896     549.8096     435.0159
   1419.92371     550.2929     434.4695   1419.92371     550.2929     434.4695
   1419.90845     549.7472     435.3450   1419.90845     549.7472     435.3450
   1419.89319     549.9280     434.2852   1419.89319     549.9280     434.2852
   1419.87793     550.2364     433.5791   1419.87793     550.2364     433.5791
   1419.86267     549.7358     433.5646   1419.86267     549.7358     433.5646
   1419.84741     549.8899     433.5162   1419.84741     549.8899     433.5162
   1419.83215     550.5554     432.6049   1419.83215     550.5554     432.6049
   1419.81689     550.7780     432.5285   1419.81689     550.7780     432.5285
   1419.80164     550.6152     431.7026   1419.80164     550.6152     431.7026
   1419.78638     550.0980     432.2648   1419.78638     550.0980     432.2648
   1419.77112     551.1873     432.2376   1419.77112     551.1873     432.2376
   1419.75586     550.6849     432.0361   1419.75586     550.6849     432.0361
   1419.74060     551.3423     431.2801   1419.74060     551.3423     431.2801
   1419.72534     551.0822     431.4970   1419.72534     551.0822     431.4970
   1419.71008     551.6594     431.6405   1419.71008     551.6594     431.6405
   1419.69482     551.7869     432.0377   1419.69482     551.7869     432.0377
   1419.67957     551.0021     431.2470   1419.67957     551.0021     431.2470
   1419.66431     550.4771     430.8427   1419.66431     550.4771     430.8427
   1419.64905     551.4679     431.8758   1419.64905     551.4679     431.8758
   1419.63379     552.3455     430.5059   1419.63379     552.3455     430.5059
   1419.61853     551.7845     430.4912   1419.61853     551.7845     430.4912
   1419.60327     552.4208     431.0797   1419.60327     552.4208     431.0797
   1419.58801     552.5143     430.1251   1419.58801     552.5143     430.1251
   1419.57275     552.9553     430.6154   1419.57275     552.9553     430.6154
   1419.55750     552.8917     430.8782   1419.55750     552.8917     430.8782
   1419.54224     553.3859     430.8596   1419.54224     553.3859     430.8596
   1419.52698     552.7772     430.2977   1419.52698     552.7772     430.2977
   1419.51172     554.1026     430.4375   1419.51172     554.1026     430.4375
   1419.49646     553.5724     430.7015   1419.49646     553.5724     430.7015
   1419.48120     554.5877     430.4522   1419.48120     554.5877     430.4522
   1419.46594     553.1716     431.0312   1419.46594     553.1716     431.0312
   1419.45068     553.9186     430.9702   1419.45068     553.9186     430.9702
   1419.43542     554.8400     430.7583   1419.43542     554.8400     430.7583
   1419.42017     555.2302     431.0830   1419.42017     555.2302     431.0830
   1419.40491     554.8450     430.5349   1419.40491     554.8450     430.5349
   1419.38965     554.5809     431.4665   1419.38965     554.5809     431.4665
   1419.37439     555.1445     431.4368   1419.37439     555.1445     431.4368
   1419.35913     556.1133     431.4167   1419.35913     556.1133     431.4167
   1419.34387     555.3058     431.4819   1419.34387     555.3058     431.4819
   1419.32861     555.8679     431.1111   1419.32861     555.8679     431.1111
   1419.31335     555.6811     431.9778   1419.31335     555.6811     431.9778
   1419.29810     556.7278     432.7031   1419.29810     556.7278     432.7031
   1419.28284     557.6018     431.9074   1419.28284     557.6018     431.9074
   1419.26758     556.8831     433.2101   1419.26758     556.8831     433.2101
   1419.25232     558.0712     432.2824   1419.25232     558.0712     432.2824
   1419.23706     558.6894     432.7124   1419.23706     558.6894     432.7124
   1419.22180     559.0429     433.2075   1419.22180     559.0429     433.2075
   1419.20654     558.3932     433.7684   1419.20654     558.3932     433.7684
   1419.19128     557.9710     433.7078   1419.19128     557.9710     433.7078
   1419.17603     559.8987     433.1218   1419.17603     559.8987     433.1218
   1419.16077     559.8230     433.7704   1419.16077     559.8230     433.7704
   1419.14551     560.1402     434.1588   1419.14551     560.1402     434.1588
   1419.13025     560.2980     434.6704   1419.13025     560.2980     434.6704
   1419.11499     560.7458     434.5477   1419.11499     560.7458     434.5477
   1419.09973     560.7236     435.2129   1419.09973     560.7236     435.2129
   1419.08447     561.0328     435.3434   1419.08447     561.0328     435.3434
   1419.06921     560.9083     435.3272   1419.06921     560.9083     435.3272
   1419.05396     561.4017     436.4842   1419.05396     561.4017     436.4842
   1419.03870     563.3644     436.8912   1419.03870     563.3644     436.8912
   1419.02344     562.7218     437.5480   1419.02344     562.7218     437.5480
   1419.00818     563.3677     437.1691   1419.00818     563.3677     437.1691
   1418.99292     563.2950     438.4034   1418.99292     563.2950     438.4034
   1418.97766     563.4612     438.7247   1418.97766     563.4612     438.7247
   1418.96240     564.2101     438.6349   1418.96240     564.2101     438.6349
   1418.94714     565.3063     438.9948   1418.94714     565.3063     438.9948
   1418.93188     565.1196     439.9029   1418.93188     565.1196     439.9029
   1418.91663     566.1183     440.2204   1418.91663     566.1183     440.2204
   1418.90137     566.8839     440.5652   1418.90137     566.8839     440.5652
   1418.88611     567.4837     441.5654   1418.88611     567.4837     441.5654
   1418.87085     567.3668     441.7850   1418.87085     567.3668     441.7850
   1418.85559     567.6469     442.5894   1418.85559     567.6469     442.5894
   1418.84033     567.1324     442.4289   1418.84033     567.1324     442.4289
   1418.82507     568.8318     442.9856   1418.82507     568.8318     442.9856
   1418.80981     568.0163     443.5506   1418.80981     568.0163     443.5506
   1418.79456     569.6432     444.7539   1418.79456     569.6432     444.7539
   1418.77930     569.1049     444.9821   1418.77930     569.1049     444.9821
   1418.76404     569.8694     445.5638   1418.76404     569.8694     445.5638
   1418.74878     570.3539     446.0703   1418.74878     570.3539     446.0703
   1418.73352     571.1804     446.7340   1418.73352     571.1804     446.7340
   1418.71826     570.9945     446.8922   1418.71826     570.9945     446.8922
   1418.70300     570.8966     448.3552   1418.70300     570.8966     448.3552
   1418.68774     573.1040     448.8819   1418.68774     573.1040     448.8819
   1418.67249     573.2039     448.9166   1418.67249     573.2039     448.9166
   1418.65723     572.7766     449.7244   1418.65723     572.7766     449.7244
   1418.64197     573.6427     450.3102   1418.64197     573.6427     450.3102
   1418.62671     573.5029     450.2957   1418.62671     573.5029     450.2957
   1418.61145     575.8300     451.8446   1418.61145     575.8300     451.8446
   1418.59619     576.2947     452.3634   1418.59619     576.2947     452.3634
   1418.58093     575.7754     452.5078   1418.58093     575.7754     452.5078
   1418.56567     576.0638     453.2637   1418.56567     576.0638     453.2637
   1418.55042     577.2384     454.6678   1418.55042     577.2384     454.6678
   1418.53516     578.4512     455.4137   1418.53516     578.4512     455.4137
   1418.51990     578.3243     455.7027   1418.51990     578.3243     455.7027
   1418.50464     579.1669     456.2598   1418.50464     579.1669     456.2598
   1418.48938     578.4041     457.2600   1418.48938     578.4041     457.2600
   1418.47412     578.9692     458.2052   1418.47412     578.9692     458.2052
   1418.45886     578.9534     458.3165   1418.45886     578.9534     458.3165
   1418.44360     580.9990     459.9159   1418.44360     580.9990     459.9159
   1418.42834     581.8135     460.6657   1418.42834     581.8135     460.6657
   1418.41309     581.5346     461.5211   1418.41309     581.5346     461.5211
   1418.39783     582.0159     462.3955   1418.39783     582.0159     462.3955
   1418.38257     582.9771     462.8665   1418.38257     582.9771     462.8665
   1418.36731     583.2390     463.4219   1418.36731     583.2390     463.4219
   1418.35205     583.9899     464.2008   1418.35205     583.9899     464.2008
   1418.33679     583.1136     464.8111   1418.33679     583.1136     464.8111
   1418.32153     584.8185     466.4587   1418.32153     584.8185     466.4587
   1418.30627     586.3372     467.1934   1418.30627     586.3372     467.1934
   1418.29102     586.4476     468.1325   1418.29102     586.4476     468.1325
   1418.27576     587.1033     469.1103   1418.27576     587.1033     469.1103
   1418.26050     588.4135     470.2974   1418.26050     588.4135     470.2974
   1418.24524     589.0674     470.4315   1418.24524     589.0674     470.4315
   1418.22998     588.6097     471.9007   1418.22998     588.6097     471.9007
   1418.21472     589.6765     472.6582   1418.21472     589.6765     472.6582
   1418.19946     589.7032     473.2350   1418.19946     589.7032     473.2350
   1418.18420     590.3412     474.0552   1418.18420     590.3412     474.0552
   1418.16895     590.8358     475.4155   1418.16895     590.8358     475.4155
   1418.15369     591.9584     475.8086   1418.15369     591.9584     475.8086
   1418.13843     593.2478     477.7537   1418.13843     593.2478     477.7537
   1418.12317     592.9955     478.4744   1418.12317     592.9955     478.4744
   1418.10791     594.7567     479.3574   1418.10791     594.7567     479.3574
   1418.09265     594.6678     479.8933   1418.09265     594.6678     479.8933
   1418.07739     595.2779     481.4964   1418.07739     595.2779     481.4964
   1418.06213     597.3120     482.3207   1418.06213     597.3120     482.3207
   1418.04688     597.0432     482.4025   1418.04688     597.0432     482.4025
   1418.03162     598.2836     484.9147   1418.03162     598.2836     484.9147
   1418.01636     597.6667     485.0777   1418.01636     597.6667     485.0777
   1418.00110     599.0684     486.8200   1418.00110     599.0684     486.8200
   1417.98584     599.3473     487.6295   1417.98584     599.3473     487.6295
   1417.97058     599.7780     488.1212   1417.97058     599.7780     488.1212
   1417.95532     600.0778     488.9624   1417.95532     600.0778     488.9624
   1417.94006     601.5555     490.4804   1417.94006     601.5555     490.4804
   1417.92480     601.3348     491.5336   1417.92480     601.3348     491.5336
   1417.90955     602.9256     492.0960   1417.90955     602.9256     492.0960
   1417.89429     604.2943     492.8694   1417.89429     604.2943     492.8694
   1417.87903     604.0681     494.7932   1417.87903     604.0681     494.7932
   1417.86377     604.8443     495.6627   1417.86377     604.8443     495.6627
   1417.84851     605.0439     496.9822   1417.84851     605.0439     496.9822
   1417.83325     606.5701     498.0489   1417.83325     606.5701     498.0489
   1417.81799     607.1284     499.1093   1417.81799     607.1284     499.1093
   1417.80273     608.0412     500.0575   1417.80273     608.0412     500.0575
   1417.78748     608.1913     500.9720   1417.78748     608.1913     500.9720
   1417.77222     609.2802     502.7562   1417.77222     609.2802     502.7562
   1417.75696     609.4860     502.6159   1417.75696     609.4860     502.6159
   1417.74170     610.6483     504.1219   1417.74170     610.6483     504.1219
   1417.72644     611.4446     505.6593   1417.72644     611.4446     505.6593
   1417.71118     612.3368     507.3569   1417.71118     612.3368     507.3569
   1417.69592     613.3864     507.6794   1417.69592     613.3864     507.6794
   1417.68066     613.6603     508.8160   1417.68066     613.6603     508.8160
   1417.66541     614.0414     509.9944   1417.66541     614.0414     509.9944
   1417.65015     614.8559     510.6792   1417.65015     614.8559     510.6792
   1417.63489     616.6432     512.5311   1417.63489     616.6432     512.5311
   1417.61963     616.0870     512.8588   1417.61963     616.0870     512.8588
   1417.60437     615.9026     514.1350   1417.60437     615.9026     514.1350
   1417.58911     617.9433     514.9902   1417.58911     617.9433     514.9902
   1417.57385     618.2703     516.2548   1417.57385     618.2703     516.2548
   1417.55859     618.9985     516.6418   1417.55859     618.9985     516.6418
   1417.54333     621.0887     517.4460   1417.54333     621.0887     517.4460
   1417.52808     620.0112     519.8862   1417.52808     620.0112     519.8862
   1417.51282     620.0659     520.9746   1417.51282     620.0659     520.9746
   1417.49756     621.1978     521.7037   1417.49756     621.1978     521.7037
   1417.48230     622.6091     522.7416   1417.48230     622.6091     522.7416
   1417.46704     623.5668     524.5972   1417.46704     623.5668     524.5972
   1417.45178     622.0845     525.5073   1417.45178     622.0845     525.5073
   1417.43652     624.6530     525.8542   1417.43652     624.6530     525.8542
   1417.42126     624.5068     526.5887   1417.42126     624.5068     526.5887
   1417.40601     625.5308     528.0216   1417.40601     625.5308     528.0216
   1417.39075     625.2887     529.5176   1417.39075     625.2887     529.5176
   1417.37549     626.0772     530.2260   1417.37549     626.0772     530.2260
   1417.36023     626.3494     531.2665   1417.36023     626.3494     531.2665
   1417.34497     627.9632     532.0242   1417.34497     627.9632     532.0242
   1417.32971     628.6336     534.1415   1417.32971     628.6336     534.1415
   1417.31445     629.7415     534.9078   1417.31445     629.7415     534.9078
   1417.29919     629.4568     535.9672   1417.29919     629.4568     535.9672
   1417.28394     629.9514     536.7475   1417.28394     629.9514     536.7475
   1417.26868     630.7371     538.2146   1417.26868     630.7371     538.2146
   1417.25342     631.6696     539.3011   1417.25342     631.6696     539.3011
   1417.23816     631.9124     539.6374   1417.23816     631.9124     539.6374
   1417.22290     632.5129     541.4200   1417.22290     632.5129     541.4200
   1417.20764     632.9203     541.4799   1417.20764     632.9203     541.4799
   1417.19238     634.7252     542.1416   1417.19238     634.7252     542.1416
   1417.17712     634.9678     543.6457   1417.17712     634.9678     543.6457
   1417.16187     635.7442     544.1452   1417.16187     635.7442     544.1452
   1417.14661     634.6682     544.6401   1417.14661     634.6682     544.6401
   1417.13135     635.9316     547.2777   1417.13135     635.9316     547.2777
   1417.11609     637.1293     546.9333   1417.11609     637.1293     546.9333
   1417.10083     637.0423     547.9057   1417.10083     637.0423     547.9057
   1417.08557     636.8876     548.4145   1417.08557     636.8876     548.4145
   1417.07031     638.0969     550.0555   1417.07031     638.0969     550.0555
   1417.05505     638.6505     550.2640   1417.05505     638.6505     550.2640
   1417.03979     638.3168     551.1329   1417.03979     638.3168     551.1329
   1417.02454     640.4730     551.7442   1417.02454     640.4730     551.7442
   1417.00928     638.9224     553.0435   1417.00928     638.9224     553.0435
   1416.99402     639.8474     553.7173   1416.99402     639.8474     553.7173
   1416.97876     641.2837     554.5166   1416.97876     641.2837     554.5166
   1416.96350     640.1419     554.7469   1416.96350     640.1419     554.7469
   1416.94824     640.6071     556.9734   1416.94824     640.6071     556.9734
   1416.93298     641.4425     556.2887   1416.93298     641.4425     556.2887
   1416.91772     642.4172     558.1804   1416.91772     642.4172     558.1804
   1416.90247     642.3917     556.5005   1416.90247     642.3917     556.5005
   1416.88721     641.7644     558.7974   1416.88721     641.7644     558.7974
   1416.87195     642.7220     559.0519   1416.87195     642.7220     559.0519
   1416.85669     642.8954     560.2562   1416.85669     642.8954     560.2562
   1416.84143     644.2975     560.6336   1416.84143     644.2975     560.6336
   1416.82617     644.6292     560.7217   1416.82617     644.6292     560.7217
   1416.81091     644.8495     561.4910   1416.81091     644.8495     561.4910
   1416.79565     643.8154     561.9222   1416.79565     643.8154     561.9222
   1416.78040     644.1493     561.7029   1416.78040     644.1493     561.7029
   1416.76514     645.2249     563.3277   1416.76514     645.2249     563.3277
   1416.74988     646.0259     563.4448   1416.74988     646.0259     563.4448
   1416.73462     645.8948     563.8078   1416.73462     645.8948     563.8078
   1416.71936     645.3069     563.0441   1416.71936     645.3069     563.0441
   1416.70410     647.3061     563.5139   1416.70410     647.3061     563.5139
   1416.68884     646.4293     564.4677   1416.68884     646.4293     564.4677
   1416.67358     646.3099     564.9177   1416.67358     646.3099     564.9177
   1416.65833     646.5848     565.2705   1416.65833     646.5848     565.2705
   1416.64307     647.1778     565.2267   1416.64307     647.1778     565.2267
   1416.62781     647.7828     565.0471   1416.62781     647.7828     565.0471
   1416.61255     648.8337     564.7612   1416.61255     648.8337     564.7612
   1416.59729     648.2957     566.3214   1416.59729     648.2957     566.3214
   1416.58203     647.2148     565.7409   1416.58203     647.2148     565.7409
   1416.56677     648.5801     566.2338   1416.56677     648.5801     566.2338
   1416.55151     646.6895     566.0825   1416.55151     646.6895     566.0825
   1416.53625     648.1453     565.9833   1416.53625     648.1453     565.9833
   1416.52100     647.5479     566.8194   1416.52100     647.5479     566.8194
   1416.50574     648.8235     565.6453   1416.50574     648.8235     565.6453
   1416.49048     647.2806     565.7328   1416.49048     647.2806     565.7328
   1416.47522     647.9924     566.1410   1416.47522     647.9924     566.1410
   1416.45996     646.9167     565.8480   1416.45996     646.9167     565.8480
   1416.44470     647.4854     566.0258   1416.44470     647.4854     566.0258
   1416.42944     648.1991     565.7566   1416.42944     648.1991     565.7566
   1416.41418     647.9662     566.9221   1416.41418     647.9662     566.9221
   1416.39893     647.6971     565.0082   1416.39893     647.6971     565.0082
   1416.38367     647.9268     564.8473   1416.38367     647.9268     564.8473
   1416.36841     647.8365     564.8853   1416.36841     647.8365     564.8853
   1416.35315     646.9857     564.7227   1416.35315     646.9857     564.7227
   1416.33789     646.5765     564.7960   1416.33789     646.5765     564.7960
   1416.32263     647.3492     564.1754   1416.32263     647.3492     564.1754
   1416.30737     647.6726     563.7764   1416.30737     647.6726     563.7764
   1416.29211     647.2845     563.4374   1416.29211     647.2845     563.4374
   1416.27686     646.7841     562.9527   1416.27686     646.7841     562.9527
   1416.26160     646.4940     562.5991   1416.26160     646.4940     562.5991
   1416.24634     646.2169     562.1969   1416.24634     646.2169     562.1969
   1416.23108     646.3576     561.2518   1416.23108     646.3576     561.2518
   1416.21582     647.6566     561.9206   1416.21582     647.6566     561.9206
   1416.20056     646.3441     560.5109   1416.20056     646.3441     560.5109
   1416.18530     646.2177     560.9207   1416.18530     646.2177     560.9207
   1416.17004     644.5440     559.2525   1416.17004     644.5440     559.2525
   1416.15479     645.4039     558.7650   1416.15479     645.4039     558.7650
   1416.13953     644.3053     559.1300   1416.13953     644.3053     559.1300
   1416.12427     644.2288     558.8731   1416.12427     644.2288     558.8731
   1416.10901     645.0157     557.5375   1416.10901     645.0157     557.5375
   1416.09375     644.1021     558.2950   1416.09375     644.1021     558.2950
   1416.07849     643.5166     557.8936   1416.07849     643.5166     557.8936
   1416.06323     643.4750     557.0146   1416.06323     643.4750     557.0146
   1416.04797     643.1092     556.3546   1416.04797     643.1092     556.3546
   1416.03271     642.3157     554.6691   1416.03271     642.3157     554.6691
   1416.01746     642.1562     554.5952   1416.01746     642.1562     554.5952
   1416.00220     642.4446     553.2819   1416.00220     642.4446     553.2819
   1415.98694     641.9171     553.1524   1415.98694     641.9171     553.1524
   1415.97168     641.1763     552.4391   1415.97168     641.1763     552.4391
   1415.95642     640.6440     552.1144   1415.95642     640.6440     552.1144
   1415.94116     641.1111     550.9606   1415.94116     641.1111     550.9606
   1415.92590     640.0499     550.4026   1415.92590     640.0499     550.4026
   1415.91064     638.6102     549.8777   1415.91064     638.6102     549.8777
   1415.89539     638.6829     548.1005   1415.89539     638.6829     548.1005
   1415.88013     639.5654     548.0195   1415.88013     639.5654     548.0195
   1415.86487     637.8414     547.6088   1415.86487     637.8414     547.6088
   1415.84961     637.9266     546.1923   1415.84961     637.9266     546.1923
   1415.83435     637.6253     546.5223   1415.83435     637.6253     546.5223
   1415.81909     636.3074     544.6516   1415.81909     636.3074     544.6516
   1415.80383     636.5141     544.4399   1415.80383     636.5141     544.4399
   1415.78857     635.5105     543.6924   1415.78857     635.5105     543.6924
   1415.77332     635.6804     543.5877   1415.77332     635.6804     543.5877
   1415.75806     634.4633     542.6355   1415.75806     634.4633     542.6355
   1415.74280     634.0906     541.1049   1415.74280     634.0906     541.1049
   1415.72754     634.6930     541.0709   1415.72754     634.6930     541.0709
   1415.71228     633.3038     540.4773   1415.71228     633.3038     540.4773
   1415.69702     632.1511     538.6694   1415.69702     632.1511     538.6694
   1415.68176     631.1891     538.3561   1415.68176     631.1891     538.3561
   1415.66650     631.5950     538.1625   1415.66650     631.5950     538.1625
   1415.65125     631.5191     537.6223   1415.65125     631.5191     537.6223
   1415.63599     630.4649     535.3455   1415.63599     630.4649     535.3455
   1415.62073     629.6729     534.9705   1415.62073     629.6729     534.9705
   1415.60547     629.2249     534.3679   1415.60547     629.2249     534.3679
   1415.59021     627.9564     533.5761   1415.59021     627.9564     533.5761
   1415.57495     626.5624     532.6888   1415.57495     626.5624     532.6888
   1415.55969     626.7200     532.2621   1415.55969     626.7200     532.2621
   1415.54443     625.0992     531.1440   1415.54443     625.0992     531.1440
   1415.52917     624.4660     529.5781   1415.52917     624.4660     529.5781
   1415.51392     624.2439     528.7230   1415.51392     624.2439     528.7230
   1415.49866     623.7142     528.5158   1415.49866     623.7142     528.5158
   1415.48340     622.8794     527.8419   1415.48340     622.8794     527.8419
   1415.46814     622.7679     525.7042   1415.46814     622.7679     525.7042
   1415.45288     622.1647     525.3166   1415.45288     622.1647     525.3166
   1415.43762     620.5025     524.0919   1415.43762     620.5025     524.0919
   1415.42236     619.1186     523.6487   1415.42236     619.1186     523.6487
   1415.40710     618.8009     522.5816   1415.40710     618.8009     522.5816
   1415.39185     618.7922     521.3553   1415.39185     618.7922     521.3553
   1415.37659     617.5535     522.1663   1415.37659     617.5535     522.1663
   1415.36133     615.8439     520.2209   1415.36133     615.8439     520.2209
   1415.34607     615.8892     518.9462   1415.34607     615.8892     518.9462
   1415.33081     614.7540     518.9058   1415.33081     614.7540     518.9058
   1415.31555     613.2490     517.3186   1415.31555     613.2490     517.3186
   1415.30029     613.0759     516.3948   1415.30029     613.0759     516.3948
   1415.28503     613.1578     515.7197   1415.28503     613.1578     515.7197
   1415.26978     611.0541     515.2486   1415.26978     611.0541     515.2486
   1415.25452     610.5168     514.0659   1415.25452     610.5168     514.0659
   1415.23926     608.5967     512.8912   1415.23926     608.5967     512.8912
   1415.22400     607.9890     511.3457   1415.22400     607.9890     511.3457
   1415.20874     607.0230     509.9924   1415.20874     607.0230     509.9924
   1415.19348     606.5140     509.4038   1415.19348     606.5140     509.4038
   1415.17822     604.7115     508.3181   1415.17822     604.7115     508.3181
   1415.16296     603.7431     507.6125   1415.16296     603.7431     507.6125
   1415.14771     602.6712     506.9156   1415.14771     602.6712     506.9156
   1415.13245     601.4553     504.5835   1415.13245     601.4553     504.5835
   1415.11719     600.2729     505.0173   1415.11719     600.2729     505.0173
   1415.10193     599.1774     503.3919   1415.10193     599.1774     503.3919
   1415.08667     597.5421     502.0360   1415.08667     597.5421     502.0360
   1415.07141     595.9364     501.0218   1415.07141     595.9364     501.0218
   1415.05615     596.0567     500.1232   1415.05615     596.0567     500.1232
   1415.04089     595.0535     498.1768   1415.04089     595.0535     498.1768
   1415.02563     593.4577     498.9568   1415.02563     593.4577     498.9568
   1415.01038     592.2155     497.7891   1415.01038     592.2155     497.7891
   1414.99512     590.9395     495.9055   1414.99512     590.9395     495.9055
   1414.97986     589.4202     494.6450   1414.97986     589.4202     494.6450
   1414.96460     588.6551     492.6909   1414.96460     588.6551     492.6909
   1414.94934     588.1885     492.2719   1414.94934     588.1885     492.2719
   1414.93408     585.9581     491.0606   1414.93408     585.9581     491.0606
   1414.91882     583.7468     489.6834   1414.91882     583.7468     489.6834
   1414.90356     583.3375     488.3967   1414.90356     583.3375     488.3967
   1414.88831     581.6457     487.4025   1414.88831     581.6457     487.4025
   1414.87305     580.3823     485.7290   1414.87305     580.3823     485.7290
   1414.85779     579.5283     484.1123   1414.85779     579.5283     484.1123
   1414.84253     577.6953     483.5102   1414.84253     577.6953     483.5102
   1414.82727     575.8651     482.4022   1414.82727     575.8651     482.4022
   1414.81201     574.8370     481.1794   1414.81201     574.8370     481.1794
   1414.79675     572.4932     479.3897   1414.79675     572.4932     479.3897
   1414.78149     571.2181     478.4466   1414.78149     571.2181     478.4466
   1414.76624     571.0136     477.3643   1414.76624     571.0136     477.3643
   1414.75098     567.7402     476.3261   1414.75098     567.7402     476.3261
   1414.73572     567.7708     474.8112   1414.73572     567.7708     474.8112
   1414.72046     565.8965     473.7990   1414.72046     565.8965     473.7990
   1414.70520     564.5271     472.7240   1414.70520     564.5271     472.7240
   1414.68994     563.0202     470.3128   1414.68994     563.0202     470.3128
   1414.67468     560.4903     469.7459   1414.67468     560.4903     469.7459
   1414.65942     558.7502     467.7575   1414.65942     558.7502     467.7575
   1414.64417     557.5770     466.8840   1414.64417     557.5770     466.8840
   1414.62891     555.9981     465.3293   1414.62891     555.9981     465.3293
   1414.61365     553.4728     464.7971   1414.61365     553.4728     464.7971
   1414.59839     552.1656     461.8392   1414.59839     552.1656     461.8392
   1414.58313     550.2390     460.6562   1414.58313     550.2390     460.6562
   1414.56787     548.3851     460.2788   1414.56787     548.3851     460.2788
   1414.55261     547.0634     458.8246   1414.55261     547.0634     458.8246
   1414.53735     545.8665     457.1802   1414.53735     545.8665     457.1802
   1414.52209     543.1006     454.9406   1414.52209     543.1006     454.9406
   1414.50684     540.9545     453.8033   1414.50684     540.9545     453.8033
   1414.49158     539.7011     452.4841   1414.49158     539.7011     452.4841
   1414.47632     537.5257     451.5395   1414.47632     537.5257     451.5395
   1414.46106     536.5288     450.1461   1414.46106     536.5288     450.1461
   1414.44580     534.6005     448.0842   1414.44580     534.6005     448.0842
   1414.43054     531.8374     447.2089   1414.43054     531.8374     447.2089
   1414.41528     530.7551     445.3194   1414.41528     530.7551     445.3194
   1414.40002     528.7252     444.2174   1414.40002     528.7252     444.2174
   1414.38477     526.4468     442.8600   1414.38477     526.4468     442.8600
   1414.36951     524.0062     441.2231   1414.36951     524.0062     441.2231
   1414.35425     522.2765     439.5024   1414.35425     522.2765     439.5024
   1414.33899     520.7463     437.6379   1414.33899     520.7463     437.6379
   1414.32373     518.6572     436.0310   1414.32373     518.6572     436.0310
   1414.30847     516.5121     434.8660   1414.30847     516.5121     434.8660
   1414.29321     514.7646     433.2298   1414.29321     514.7646     433.2298
   1414.27795     512.9194     430.9737   1414.27795     512.9194     430.9737
   1414.26270     510.1219     429.9975   1414.26270     510.1219     429.9975
   1414.24744     507.3222     428.5822   1414.24744     507.3222     428.5822
   1414.23218     506.1064     426.8003   1414.23218     506.1064     426.8003
   1414.21692     503.4846     425.2576   1414.21692     503.4846     425.2576
   1414.20166     502.6374     423.6507   1414.20166     502.6374     423.6507
   1414.18640     500.2194     421.9198   1414.18640     500.2194     421.9198
   1414.17114     498.1213     420.0558   1414.17114     498.1213     420.0558
   1414.15588     495.5259     418.7087   1414.15588     495.5259     418.7087
   1414.14062     493.0113     416.8828   1414.14062     493.0113     416.8828
   1414.12537     490.1094     415.5903   1414.12537     490.1094     415.5903
   1414.11011     489.2767     413.6197   1414.11011     489.2767     413.6197
   1414.09485     486.4255     411.4267   1414.09485     486.4255     411.4267
   1414.07959     484.5174     410.0670   1414.07959     484.5174     410.0670
   1414.06433     482.2609     408.8965   1414.06433     482.2609     408.8965
   1414.04907     480.5521     406.8906   1414.04907     480.5521     406.8906
   1414.03381     477.7679     405.2087   1414.03381     477.7679     405.2087
   1414.01855     476.7455     403.7438   1414.01855     476.7455     403.7438
   1414.00330     500.1036     410.0837   1414.00330     500.1036     410.0837
   1413.98804     472.4339     400.5773   1413.98804     472.4339     400.5773
   1413.97278     468.3872     398.7108   1413.97278     468.3872     398.7108
   1413.95752     467.2424     396.5077   1413.95752     467.2424     396.5077
   1413.94226     463.8638     394.1478   1413.94226     463.8638     394.1478
   1413.92700     461.6975     393.9827   1413.92700     461.6975     393.9827
   1413.91174     460.1131     391.5941   1413.91174     460.1131     391.5941
   1413.89648     456.8795     389.8416   1413.89648     456.8795     389.8416
   1413.88123     454.5250     388.2459   1413.88123     454.5250     388.2459
   1413.86597     452.5077     386.1750   1413.86597     452.5077     386.1750
   1413.85071     450.6671     384.7158   1413.85071     450.6671     384.7158
   1413.83545     448.2218     383.3481   1413.83545     448.2218     383.3481
   1413.82019     446.0291     381.4983   1413.82019     446.0291     381.4983
   1413.80493     443.0135     379.4985   1413.80493     443.0135     379.4985
   1413.78967     441.0766     378.2385   1413.78967     441.0766     378.2385
   1413.77441     438.8000     376.2830   1413.77441     438.8000     376.2830
   1413.75916     437.0493     374.4839   1413.75916     437.0493     374.4839
   1413.74390     434.2422     372.7580   1413.74390     434.2422     372.7580
   1413.72864     431.9342     370.7171   1413.72864     431.9342     370.7171
   1413.71338     429.1125     369.2824   1413.71338     429.1125     369.2824
   1413.69812     426.6016     367.6536   1413.69812     426.6016     367.6536
   1413.68286     424.3246     366.1165   1413.68286     424.3246     366.1165
   1413.66760     422.0697     364.4410   1413.66760     422.0697     364.4410
   1413.65234     419.5439     362.8065   1413.65234     419.5439     362.8065
   1413.63708     417.4376     360.4243   1413.63708     417.4376     360.4243
   1413.62183     414.8808     359.0920   1413.62183     414.8808     359.0920
   1413.60657     412.9714     357.2422   1413.60657     412.9714     357.2422
   1413.59131     410.6740     355.7285   1413.59131     410.6740     355.7285
   1413.57605     408.0694     353.5158   1413.57605     408.0694     353.5158
   1413.56079     405.4952     352.1195   1413.56079     405.4952     352.1195
   1413.54553     403.4280     350.1045   1413.54553     403.4280     350.1045
   1413.53027     401.7641     349.3879   1413.53027     401.7641     349.3879
   1413.51501     398.9427     347.6546   1413.51501     398.9427     347.6546
   1413.49976     396.5729     345.7399   1413.49976     396.5729     345.7399
   1413.48450     394.6278     344.1782   1413.48450     394.6278     344.1782
   1413.46924     392.4932     342.2174   1413.46924     392.4932     342.2174
   1413.45398     390.3647     340.7486   1413.45398     390.3647     340.7486
   1413.43872     387.7098     339.1996   1413.43872     387.7098     339.1996
   1413.42346     385.3814     337.8121   1413.42346     385.3814     337.8121
   1413.40820     383.0573     335.7675   1413.40820     383.0573     335.7675
   1413.39294     381.7783     334.5643   1413.39294     381.7783     334.5643
   1413.37769     378.5639     332.2485   1413.37769     378.5639     332.2485
   1413.36243     376.5296     331.2610   1413.36243     376.5296     331.2610
   1413.34717     374.6538     329.4367   1413.34717     374.6538     329.4367
   1413.33191     371.7667     328.1632   1413.33191     371.7667     328.1632
   1413.31665     369.8791     326.6887   1413.31665     369.8791     326.6887
   1413.30139     368.1373     324.6034   1413.30139     368.1373     324.6034
   1413.28613     366.0064     324.1435   1413.28613     366.0064     324.1435
   1413.27087     363.7191     322.2065   1413.27087     363.7191     322.2065
   1413.25562     361.9993     320.7826   1413.25562     361.9993     320.7826
   1413.24036     360.1708     319.0940   1413.24036     360.1708     319.0940
   1413.22510     357.8741     317.3948   1413.22510     357.8741     317.3948
   1413.20984     355.7997     316.3560   1413.20984     355.7997     316.3560
   1413.19458     353.4243     314.9953   1413.19458     353.4243     314.9953
   1413.17932     351.8744     313.8526   1413.17932     351.8744     313.8526
   1413.16406     349.4421     312.2170   1413.16406     349.4421     312.2170
   1413.14880     347.9939     310.3599   1413.14880     347.9939     310.3599
   1413.13354     346.1275     309.2883   1413.13354     346.1275     309.2883
   1413.11829     343.9671     307.5925   1413.11829     343.9671     307.5925
   1413.10303     342.7916     306.6544   1413.10303     342.7916     306.6544
   1413.08777     339.9852     305.3517   1413.08777     339.9852     305.3517
   1413.07251     338.9650     304.6693   1413.07251     338.9650     304.6693
   1413.05725     336.5925     303.2080   1413.05725     336.5925     303.2080
   1413.04199     335.5321     302.3911   1413.04199     335.5321     302.3911
   1413.02673     333.6478     300.7058   1413.02673     333.6478     300.7058
   1413.01147     332.0034     299.4722   1413.01147     332.0034     299.4722
   1412.99622     329.8697     298.4979   1412.99622     329.8697     298.4979
   1412.98096     328.5044     297.6306   1412.98096     328.5044     297.6306
   1412.96570     327.1627     297.0453   1412.96570     327.1627     297.0453
   1412.95044     325.0119     295.3779   1412.95044     325.0119     295.3779
   1412.93518     323.7421     294.3498   1412.93518     323.7421     294.3498
   1412.91992     321.7050     293.3970   1412.91992     321.7050     293.3970
   1412.90466     320.6209     293.1037   1412.90466     320.6209     293.1037
   1412.88940     319.0818     291.7032   1412.88940     319.0818     291.7032
   1412.87415     317.7779     290.5284   1412.87415     317.7779     290.5284
   1412.85889     316.8943     289.7650   1412.85889     316.8943     289.7650
   1412.84363     315.3515     289.1591   1412.84363     315.3515     289.1591
   1412.82837     313.6888     288.4607   1412.82837     313.6888     288.4607
   1412.81311     312.4805     287.8429   1412.81311     312.4805     287.8429
   1412.79785     311.4214     286.8590   1412.79785     311.4214     286.8590
   1412.78259     310.3799     286.2769   1412.78259     310.3799     286.2769
   1412.76733     309.2753     285.8211   1412.76733     309.2753     285.8211
   1412.75208     307.8041     284.7918   1412.75208     307.8041     284.7918
   1412.73682     307.0530     284.4160   1412.73682     307.0530     284.4160
   1412.72156     305.7272     284.3576   1412.72156     305.7272     284.3576
   1412.70630     304.7500     283.5504   1412.70630     304.7500     283.5504
   1412.69104     303.8485     282.8325   1412.69104     303.8485     282.8325
   1412.67578     302.5316     282.1919   1412.67578     302.5316     282.1919
   1412.66052     302.1537     282.0515   1412.66052     302.1537     282.0515
   1412.64526     301.2264     281.6072   1412.64526     301.2264     281.6072
   1412.63000     300.6551     281.3262   1412.63000     300.6551     281.3262
   1412.61475     299.6062     280.9821   1412.61475     299.6062     280.9821
   1412.59949     298.8644     280.7727   1412.59949     298.8644     280.7727
   1412.58423     297.6100     280.4578   1412.58423     297.6100     280.4578
   1412.56897     297.6123     280.0127   1412.56897     297.6123     280.0127
   1412.55371     296.7681     279.8488   1412.55371     296.7681     279.8488
   1412.53845     296.2926     280.2741   1412.53845     296.2926     280.2741
   1412.52319     295.7758     280.1061   1412.52319     295.7758     280.1061
   1412.50793     295.1629     280.2022   1412.50793     295.1629     280.2022
   1412.49268     295.1032     279.7242   1412.49268     295.1032     279.7242
   1412.47742     294.9395     279.7877   1412.47742     294.9395     279.7877
   1412.46216     294.6123     280.1380   1412.46216     294.6123     280.1380
   1412.44690     294.3199     280.5230   1412.44690     294.3199     280.5230
   1412.43164     294.1291     280.2995   1412.43164     294.1291     280.2995
   1412.41638     293.8152     280.8627   1412.41638     293.8152     280.8627
   1412.40112     293.4891     281.1729   1412.40112     293.4891     281.1729
   1412.38586     293.2702     281.2597   1412.38586     293.2702     281.2597
   1412.37061     292.9334     281.8887   1412.37061     292.9334     281.8887
   1412.35535     292.6238     281.7102   1412.35535     292.6238     281.7102
   1412.34009     293.0011     282.0336   1412.34009     293.0011     282.0336
   1412.32483     293.2212     282.8377   1412.32483     293.2212     282.8377
   1412.30957     293.8241     283.3324   1412.30957     293.8241     283.3324
   1412.29431     293.5723     283.8388   1412.29431     293.5723     283.8388
   1412.27905     293.3750     284.4920   1412.27905     293.3750     284.4920
   1412.26379     294.3453     285.0511   1412.26379     294.3453     285.0511
   1412.24854     294.3928     285.2504   1412.24854     294.3928     285.2504
   1412.23328     295.1621     286.3230   1412.23328     295.1621     286.3230
   1412.21802     295.3863     287.0575   1412.21802     295.3863     287.0575
   1412.20276     295.7216     287.8936   1412.20276     295.7216     287.8936