#     FILENAME=!Skynet_57528_lach-cc-240_20656_21015.cyb.fits
#     BASENAME=Skynet_57528_lach-cc-240_20656_21015
#     SRC_NAME=lach-cc-240
#     OBSERVER=ccmadison16_9505
#     DATE_OBS=2016-05-20T19:05:52.750
#        OBSID=20656
#      SCANNUM=21015
#          MJD=57528.7968
#          UTC=68841
#     SCANTYPE=track
#     DATAMODE=HIRES
#     TUNEFREQ=1420.0000
# Actual_FREQ1=1420.0000
# Actual_FREQ2=1420.0000
#    LO1Tuning=6870.000
#     RFFILTER=1355_1435
#        OBSBW=-15.6250
#        NCHAN=1024 
#        FOCUS=37.0709
#           RA=07:43:57.37
#          DEC=-23:53:19.66
#      RA(hrs)=7.732600
#     DEC(deg)=-23.888800
#    AZIM(deg)=149.462
#    ELEV(deg)=21.177
#     IFattens=11.00, 9.00
#      WARNING=None
#    TCAL_XL1=7.9635
#    TCAL_YR1=9.1340
#    TCAL_XL2=7.9635
#    TCAL_YR2=9.1340
#     TRX_XL1=11.7060
#     TRX_YR1=11.7060
#     TRX_XL2=11.7060
#     TRX_YR2=11.7060
#        TAVE=1.0000
#Freq1(MHz)          XL1          YR1  Freq2(MHz)          XL2          YR2 

   1427.81250     384.0800     242.8242   1427.81250     384.0800     242.8242
   1427.79724     384.9048     243.6125   1427.79724     384.9048     243.6125
   1427.78198     385.2226     243.6512   1427.78198     385.2226     243.6512
   1427.76672     386.0380     244.1680   1427.76672     386.0380     244.1680
   1427.75146     387.1322     244.6006   1427.75146     387.1322     244.6006
   1427.73621     388.1698     245.0036   1427.73621     388.1698     245.0036
   1427.72095     389.2689     245.7748   1427.72095     389.2689     245.7748
   1427.70569     390.0175     246.5946   1427.70569     390.0175     246.5946
   1427.69043     390.7611     247.3997   1427.69043     390.7611     247.3997
   1427.67517     391.8491     247.7989   1427.67517     391.8491     247.7989
   1427.65991     393.1658     248.9837   1427.65991     393.1658     248.9837
   1427.64465     394.5950     249.8101   1427.64465     394.5950     249.8101
   1427.62939     395.9192     250.9276   1427.62939     395.9192     250.9276
   1427.61414     397.7328     251.5193   1427.61414     397.7328     251.5193
   1427.59888     398.5179     252.5579   1427.59888     398.5179     252.5579
   1427.58362     399.1170     253.6725   1427.58362     399.1170     253.6725
   1427.56836     401.6281     254.4580   1427.56836     401.6281     254.4580
   1427.55310     403.1999     255.1666   1427.55310     403.1999     255.1666
   1427.53784     404.3324     256.5911   1427.53784     404.3324     256.5911
   1427.52258     406.0804     257.6285   1427.52258     406.0804     257.6285
   1427.50732     408.2516     258.2336   1427.50732     408.2516     258.2336
   1427.49207     410.2085     259.7853   1427.49207     410.2085     259.7853
   1427.47681     411.6397     261.1775   1427.47681     411.6397     261.1775
   1427.46155     413.4441     262.4276   1427.46155     413.4441     262.4276
   1427.44629     415.9664     263.2815   1427.44629     415.9664     263.2815
   1427.43103     417.8499     264.9933   1427.43103     417.8499     264.9933
   1427.41577     418.9937     266.2004   1427.41577     418.9937     266.2004
   1427.40051     421.6299     267.6307   1427.40051     421.6299     267.6307
   1427.38525     423.3576     268.9677   1427.38525     423.3576     268.9677
   1427.37000     425.1579     270.1827   1427.37000     425.1579     270.1827
   1427.35474     427.4187     271.8654   1427.35474     427.4187     271.8654
   1427.33948     429.6879     273.3596   1427.33948     429.6879     273.3596
   1427.32422     432.1175     274.7176   1427.32422     432.1175     274.7176
   1427.30896     434.6967     276.0801   1427.30896     434.6967     276.0801
   1427.29370     436.7841     277.6509   1427.29370     436.7841     277.6509
   1427.27844     438.9286     279.4749   1427.27844     438.9286     279.4749
   1427.26318     440.4572     280.9339   1427.26318     440.4572     280.9339
   1427.24792     443.8423     282.7053   1427.24792     443.8423     282.7053
   1427.23267     446.2038     284.0443   1427.23267     446.2038     284.0443
   1427.21741     448.1927     286.2104   1427.21741     448.1927     286.2104
   1427.20215     450.4692     287.7058   1427.20215     450.4692     287.7058
   1427.18689     453.6927     289.3974   1427.18689     453.6927     289.3974
   1427.17163     456.1023     291.2663   1427.17163     456.1023     291.2663
   1427.15637     458.3417     292.5891   1427.15637     458.3417     292.5891
   1427.14111     461.7972     294.5173   1427.14111     461.7972     294.5173
   1427.12585     464.0017     296.1103   1427.12585     464.0017     296.1103
   1427.11060     467.2058     298.2338   1427.11060     467.2058     298.2338
   1427.09534     468.8884     299.6653   1427.09534     468.8884     299.6653
   1427.08008     472.5862     301.2906   1427.08008     472.5862     301.2906
   1427.06482     474.9307     303.4590   1427.06482     474.9307     303.4590
   1427.04956     477.4026     305.9983   1427.04956     477.4026     305.9983
   1427.03430     480.7592     307.5403   1427.03430     480.7592     307.5403
   1427.01904     483.2054     309.5060   1427.01904     483.2054     309.5060
   1427.00378     486.0967     311.5074   1427.00378     486.0967     311.5074
   1426.98853     489.5459     313.3979   1426.98853     489.5459     313.3979
   1426.97327     492.4839     315.5988   1426.97327     492.4839     315.5988
   1426.95801     495.2191     316.8097   1426.95801     495.2191     316.8097
   1426.94275     497.4042     319.1219   1426.94275     497.4042     319.1219
   1426.92749     501.6555     321.3147   1426.92749     501.6555     321.3147
   1426.91223     504.0566     323.4998   1426.91223     504.0566     323.4998
   1426.89697     506.8264     325.3414   1426.89697     506.8264     325.3414
   1426.88171     510.8015     327.4315   1426.88171     510.8015     327.4315
   1426.86646     513.0292     328.9262   1426.86646     513.0292     328.9262
   1426.85120     516.1042     330.8855   1426.85120     516.1042     330.8855
   1426.83594     519.2223     333.4498   1426.83594     519.2223     333.4498
   1426.82068     522.2510     335.2720   1426.82068     522.2510     335.2720
   1426.80542     525.7057     337.9776   1426.80542     525.7057     337.9776
   1426.79016     527.9591     339.5992   1426.79016     527.9591     339.5992
   1426.77490     532.0903     341.7019   1426.77490     532.0903     341.7019
   1426.75964     534.8505     343.3151   1426.75964     534.8505     343.3151
   1426.74438     537.2227     345.6591   1426.74438     537.2227     345.6591
   1426.72913     541.2391     347.6201   1426.72913     541.2391     347.6201
   1426.71387     543.6219     349.6576   1426.71387     543.6219     349.6576
   1426.69861     546.6584     352.2921   1426.69861     546.6584     352.2921
   1426.68335     549.9152     353.9479   1426.68335     549.9152     353.9479
   1426.66809     553.3578     355.4496   1426.66809     553.3578     355.4496
   1426.65283     555.3748     358.0649   1426.65283     555.3748     358.0649
   1426.63757     558.8360     360.5726   1426.63757     558.8360     360.5726
   1426.62231     563.5927     363.0313   1426.62231     563.5927     363.0313
   1426.60706     565.8524     364.6818   1426.60706     565.8524     364.6818
   1426.59180     568.3722     366.7385   1426.59180     568.3722     366.7385
   1426.57654     571.5758     368.2419   1426.57654     571.5758     368.2419
   1426.56128     574.8437     370.7493   1426.56128     574.8437     370.7493
   1426.54602     576.7263     373.1632   1426.54602     576.7263     373.1632
   1426.53076     581.3734     374.3961   1426.53076     581.3734     374.3961
   1426.51550     584.3761     377.0828   1426.51550     584.3761     377.0828
   1426.50024     586.7324     379.0598   1426.50024     586.7324     379.0598
   1426.48499     589.9551     381.1359   1426.48499     589.9551     381.1359
   1426.46973     592.5951     383.1444   1426.46973     592.5951     383.1444
   1426.45447     595.9811     385.0037   1426.45447     595.9811     385.0037
   1426.43921     599.2134     387.0361   1426.43921     599.2134     387.0361
   1426.42395     602.9299     389.4605   1426.42395     602.9299     389.4605
   1426.40869     605.4004     391.1167   1426.40869     605.4004     391.1167
   1426.39343     607.7097     393.0141   1426.39343     607.7097     393.0141
   1426.37817     611.3932     395.0899   1426.37817     611.3932     395.0899
   1426.36292     613.5215     398.0474   1426.36292     613.5215     398.0474
   1426.34766     616.4987     399.3703   1426.34766     616.4987     399.3703
   1426.33240     619.6420     401.0701   1426.33240     619.6420     401.0701
   1426.31714     623.2803     403.5246   1426.31714     623.2803     403.5246
   1426.30188     626.0393     404.8085   1426.30188     626.0393     404.8085
   1426.28662     628.3303     407.0668   1426.28662     628.3303     407.0668
   1426.27136     631.0873     409.4550   1426.27136     631.0873     409.4550
   1426.25610     634.2080     411.5670   1426.25610     634.2080     411.5670
   1426.24084     636.1934     412.9746   1426.24084     636.1934     412.9746
   1426.22559     639.8112     416.0812   1426.22559     639.8112     416.0812
   1426.21033     641.9062     416.9696   1426.21033     641.9062     416.9696
   1426.19507     644.7548     418.8973   1426.19507     644.7548     418.8973
   1426.17981     648.6762     420.4106   1426.17981     648.6762     420.4106
   1426.16455     650.1100     422.5306   1426.16455     650.1100     422.5306
   1426.14929     653.2997     424.6309   1426.14929     653.2997     424.6309
   1426.13403     656.1577     427.0786   1426.13403     656.1577     427.0786
   1426.11877     658.2150     428.5082   1426.11877     658.2150     428.5082
   1426.10352     661.9949     430.1824   1426.10352     661.9949     430.1824
   1426.08826     663.8868     431.7352   1426.08826     663.8868     431.7352
   1426.07300     666.0391     434.7042   1426.07300     666.0391     434.7042
   1426.05774     668.0745     435.2497   1426.05774     668.0745     435.2497
   1426.04248     671.7187     437.6870   1426.04248     671.7187     437.6870
   1426.02722     674.0078     438.9544   1426.02722     674.0078     438.9544
   1426.01196     675.1990     440.7757   1426.01196     675.1990     440.7757
   1425.99670     678.6618     442.2384   1425.99670     678.6618     442.2384
   1425.98145     680.6879     444.4062   1425.98145     680.6879     444.4062
   1425.96619     683.9336     446.4693   1425.96619     683.9336     446.4693
   1425.95093     684.6334     448.0205   1425.95093     684.6334     448.0205
   1425.93567     687.7188     449.6230   1425.93567     687.7188     449.6230
   1425.92041     689.8345     451.4992   1425.92041     689.8345     451.4992
   1425.90515     692.8934     452.7607   1425.90515     692.8934     452.7607
   1425.88989     694.0033     453.8954   1425.88989     694.0033     453.8954
   1425.87463     696.3485     455.9216   1425.87463     696.3485     455.9216
   1425.85938     699.8516     457.9985   1425.85938     699.8516     457.9985
   1425.84412     700.4764     459.6091   1425.84412     700.4764     459.6091
   1425.82886     702.9134     460.7560   1425.82886     702.9134     460.7560
   1425.81360     704.8141     463.5871   1425.81360     704.8141     463.5871
   1425.79834     707.9224     465.3120   1425.79834     707.9224     465.3120
   1425.78308     708.7527     465.8386   1425.78308     708.7527     465.8386
   1425.76782     711.2423     467.1747   1425.76782     711.2423     467.1747
   1425.75256     712.5247     468.9023   1425.75256     712.5247     468.9023
   1425.73730     715.0914     470.4359   1425.73730     715.0914     470.4359
   1425.72205     715.7875     471.6003   1425.72205     715.7875     471.6003
   1425.70679     718.7924     473.6728   1425.70679     718.7924     473.6728
   1425.69153     720.4612     475.2011   1425.69153     720.4612     475.2011
   1425.67627     722.7713     476.4782   1425.67627     722.7713     476.4782
   1425.66101     723.7561     477.4158   1425.66101     723.7561     477.4158
   1425.64575     725.3080     478.9680   1425.64575     725.3080     478.9680
   1425.63049     727.0120     481.0031   1425.63049     727.0120     481.0031
   1425.61523     728.7983     482.0993   1425.61523     728.7983     482.0993
   1425.59998     730.4244     483.1889   1425.59998     730.4244     483.1889
   1425.58472     732.0987     484.8552   1425.58472     732.0987     484.8552
   1425.56946     733.7043     485.5161   1425.56946     733.7043     485.5161
   1425.55420     734.8493     487.7522   1425.55420     734.8493     487.7522
   1425.53894     736.9199     488.8176   1425.53894     736.9199     488.8176
   1425.52368     738.1303     489.2796   1425.52368     738.1303     489.2796
   1425.50842     738.8650     491.1755   1425.50842     738.8650     491.1755
   1425.49316     740.4083     492.1458   1425.49316     740.4083     492.1458
   1425.47791     742.2532     493.5799   1425.47791     742.2532     493.5799
   1425.46265     744.2893     494.6569   1425.46265     744.2893     494.6569
   1425.44739     746.0366     496.1477   1425.44739     746.0366     496.1477
   1425.43213     745.3730     497.2950   1425.43213     745.3730     497.2950
   1425.41687     748.3840     498.7403   1425.41687     748.3840     498.7403
   1425.40161     748.5629     501.1360   1425.40161     748.5629     501.1360
   1425.38635     751.2216     502.4837   1425.38635     751.2216     502.4837
   1425.37109     750.9436     502.5733   1425.37109     750.9436     502.5733
   1425.35583     753.2940     504.1651   1425.35583     753.2940     504.1651
   1425.34058     754.4716     504.3723   1425.34058     754.4716     504.3723
   1425.32532     755.0206     505.3210   1425.32532     755.0206     505.3210
   1425.31006     757.2148     507.2220   1425.31006     757.2148     507.2220
   1425.29480     755.7759     508.4755   1425.29480     755.7759     508.4755
   1425.27954     758.0078     508.8952   1425.27954     758.0078     508.8952
   1425.26428     759.3731     510.2416   1425.26428     759.3731     510.2416
   1425.24902     760.3995     511.0237   1425.24902     760.3995     511.0237
   1425.23376     760.2316     513.1992   1425.23376     760.2316     513.1992
   1425.21851     761.9050     514.2716   1425.21851     761.9050     514.2716
   1425.20325     763.0537     515.4012   1425.20325     763.0537     515.4012
   1425.18799     761.9276     517.1436   1425.18799     761.9276     517.1436
   1425.17273     764.6141     516.6529   1425.17273     764.6141     516.6529
   1425.15747     765.4266     518.5176   1425.15747     765.4266     518.5176
   1425.14221     766.7634     519.2902   1425.14221     766.7634     519.2902
   1425.12695     769.6075     520.6548   1425.12695     769.6075     520.6548
   1425.11169     767.2373     521.1378   1425.11169     767.2373     521.1378
   1425.09644     767.1468     521.6700   1425.09644     767.1468     521.6700
   1425.08118     769.3994     523.5931   1425.08118     769.3994     523.5931
   1425.06592     768.5629     524.4876   1425.06592     768.5629     524.4876
   1425.05066     770.5425     525.2647   1425.05066     770.5425     525.2647
   1425.03540     770.7700     526.4860   1425.03540     770.7700     526.4860
   1425.02014     772.8093     527.0073   1425.02014     772.8093     527.0073
   1425.00488     772.1088     528.1108   1425.00488     772.1088     528.1108
   1424.98962     773.3915     529.5050   1424.98962     773.3915     529.5050
   1424.97437     772.8403     529.4736   1424.97437     772.8403     529.4736
   1424.95911     772.3680     530.7703   1424.95911     772.3680     530.7703
   1424.94385     773.6449     531.1262   1424.94385     773.6449     531.1262
   1424.92859     774.3223     531.7166   1424.92859     774.3223     531.7166
   1424.91333     773.7305     532.4050   1424.91333     773.7305     532.4050
   1424.89807     775.6022     533.9694   1424.89807     775.6022     533.9694
   1424.88281     775.8044     534.8525   1424.88281     775.8044     534.8525
   1424.86755     776.5461     535.3731   1424.86755     776.5461     535.3731
   1424.85229     776.2262     536.2460   1424.85229     776.2262     536.2460
   1424.83704     776.0821     536.4633   1424.83704     776.0821     536.4633
   1424.82178     776.5687     537.0782   1424.82178     776.5687     537.0782
   1424.80652     777.4639     538.4012   1424.80652     777.4639     538.4012
   1424.79126     777.7932     538.8212   1424.79126     777.7932     538.8212
   1424.77600     778.3865     539.9609   1424.77600     778.3865     539.9609
   1424.76074     777.5327     541.3750   1424.76074     777.5327     541.3750
   1424.74548     778.0783     541.5670   1424.74548     778.0783     541.5670
   1424.73022     779.5771     543.1877   1424.73022     779.5771     543.1877
   1424.71497     778.7166     543.0161   1424.71497     778.7166     543.0161
   1424.69971     778.7599     543.1227   1424.69971     778.7599     543.1227
   1424.68445     778.5222     544.2345   1424.68445     778.5222     544.2345
   1424.66919     778.5004     544.5966   1424.66919     778.5004     544.5966
   1424.65393     778.4346     545.5040   1424.65393     778.4346     545.5040
   1424.63867     780.5582     546.3249   1424.63867     780.5582     546.3249
   1424.62341     779.9984     546.1675   1424.62341     779.9984     546.1675
   1424.60815     781.0917     547.0336   1424.60815     781.0917     547.0336
   1424.59290     779.5578     548.3660   1424.59290     779.5578     548.3660
   1424.57764     780.4939     549.2690   1424.57764     780.4939     549.2690
   1424.56238     780.1297     549.5372   1424.56238     780.1297     549.5372
   1424.54712     780.4293     549.7702   1424.54712     780.4293     549.7702
   1424.53186     780.6880     551.1504   1424.53186     780.6880     551.1504
   1424.51660     780.2718     551.7404   1424.51660     780.2718     551.7404
   1424.50134     780.6937     552.4281   1424.50134     780.6937     552.4281
   1424.48608     779.9186     553.3766   1424.48608     779.9186     553.3766
   1424.47083     780.7035     553.2485   1424.47083     780.7035     553.2485
   1424.45557     780.0132     555.3871   1424.45557     780.0132     555.3871
   1424.44031     781.3682     554.6652   1424.44031     781.3682     554.6652
   1424.42505     780.8898     556.0084   1424.42505     780.8898     556.0084
   1424.40979     780.8621     556.0773   1424.40979     780.8621     556.0773
   1424.39453     781.2388     556.2857   1424.39453     781.2388     556.2857
   1424.37927     780.4630     557.6780   1424.37927     780.4630     557.6780
   1424.36401     780.7628     558.9873   1424.36401     780.7628     558.9873
   1424.34875     780.9395     557.4512   1424.34875     780.9395     557.4512
   1424.33350     780.2849     558.8004   1424.33350     780.2849     558.8004
   1424.31824     780.1523     558.2665   1424.31824     780.1523     558.2665
   1424.30298     780.0788     559.4341   1424.30298     780.0788     559.4341
   1424.28772     780.1052     560.2661   1424.28772     780.1052     560.2661
   1424.27246     780.1824     559.2958   1424.27246     780.1824     559.2958
   1424.25720     779.3982     561.4235   1424.25720     779.3982     561.4235
   1424.24194     779.8365     561.4714   1424.24194     779.8365     561.4714
   1424.22668     779.9161     562.1907   1424.22668     779.9161     562.1907
   1424.21143     778.5905     563.5784   1424.21143     778.5905     563.5784
   1424.19617     780.8238     563.2065   1424.19617     780.8238     563.2065
   1424.18091     779.0078     563.0594   1424.18091     779.0078     563.0594
   1424.16565     778.8859     563.8895   1424.16565     778.8859     563.8895
   1424.15039     779.9009     563.9241   1424.15039     779.9009     563.9241
   1424.13513     780.0650     564.5460   1424.13513     780.0650     564.5460
   1424.11987     779.7858     564.8157   1424.11987     779.7858     564.8157
   1424.10461     779.1120     564.8646   1424.10461     779.1120     564.8646
   1424.08936     778.4749     564.9494   1424.08936     778.4749     564.9494
   1424.07410     778.7386     566.1035   1424.07410     778.7386     566.1035
   1424.05884     778.2538     567.0420   1424.05884     778.2538     567.0420
   1424.04358     778.6711     566.1111   1424.04358     778.6711     566.1111
   1424.02832     779.5489     567.0937   1424.02832     779.5489     567.0937
   1424.01306     777.8760     567.8888   1424.01306     777.8760     567.8888
   1423.99780     778.0993     566.6219   1423.99780     778.0993     566.6219
   1423.98254     777.7354     567.7097   1423.98254     777.7354     567.7097
   1423.96729     778.5560     568.5235   1423.96729     778.5560     568.5235
   1423.95203     777.6616     568.6575   1423.95203     777.6616     568.6575
   1423.93677     777.0516     568.9926   1423.93677     777.0516     568.9926
   1423.92151     777.1906     569.5022   1423.92151     777.1906     569.5022
   1423.90625     776.7670     568.5048   1423.90625     776.7670     568.5048
   1423.89099     775.8849     569.1511   1423.89099     775.8849     569.1511
   1423.87573     775.9015     570.1434   1423.87573     775.9015     570.1434
   1423.86047     775.3983     570.6799   1423.86047     775.3983     570.6799
   1423.84521     776.5138     571.1995   1423.84521     776.5138     571.1995
   1423.82996     774.9991     570.9288   1423.82996     774.9991     570.9288
   1423.81470     776.1766     570.3749   1423.81470     776.1766     570.3749
   1423.79944     775.6889     570.9443   1423.79944     775.6889     570.9443
   1423.78418     774.4179     569.8295   1423.78418     774.4179     569.8295
   1423.76892     774.7339     571.0096   1423.76892     774.7339     571.0096
   1423.75366     775.4301     571.1404   1423.75366     775.4301     571.1404
   1423.73840     773.7558     570.1245   1423.73840     773.7558     570.1245
   1423.72314     774.2729     571.2399   1423.72314     774.2729     571.2399
   1423.70789     774.4286     570.6783   1423.70789     774.4286     570.6783
   1423.69263     774.8676     571.5118   1423.69263     774.8676     571.5118
   1423.67737     774.5456     571.4697   1423.67737     774.5456     571.4697
   1423.66211     774.2249     571.2533   1423.66211     774.2249     571.2533
   1423.64685     773.8484     571.7581   1423.64685     773.8484     571.7581
   1423.63159     772.6688     570.7185   1423.63159     772.6688     570.7185
   1423.61633     773.5692     570.9540   1423.61633     773.5692     570.9540
   1423.60107     772.2599     571.2036   1423.60107     772.2599     571.2036
   1423.58582     771.7723     571.1874   1423.58582     771.7723     571.1874
   1423.57056     772.5277     571.9575   1423.57056     772.5277     571.9575
   1423.55530     772.4024     570.7953   1423.55530     772.4024     570.7953
   1423.54004     772.1871     570.4880   1423.54004     772.1871     570.4880
   1423.52478     770.9702     569.7857   1423.52478     770.9702     569.7857
   1423.50952     770.6614     570.3463   1423.50952     770.6614     570.3463
   1423.49426     770.9911     570.2120   1423.49426     770.9911     570.2120
   1423.47900     770.3220     569.7635   1423.47900     770.3220     569.7635
   1423.46375     769.7241     570.0812   1423.46375     769.7241     570.0812
   1423.44849     770.1529     570.3386   1423.44849     770.1529     570.3386
   1423.43323     770.5202     569.7226   1423.43323     770.5202     569.7226
   1423.41797     768.6413     569.4570   1423.41797     768.6413     569.4570
   1423.40271     769.5960     569.1728   1423.40271     769.5960     569.1728
   1423.38745     769.4058     568.6930   1423.38745     769.4058     568.6930
   1423.37219     769.5176     569.8794   1423.37219     769.5176     569.8794
   1423.35693     769.2231     568.4093   1423.35693     769.2231     568.4093
   1423.34167     769.0940     567.8278   1423.34167     769.0940     567.8278
   1423.32642     768.2787     566.9260   1423.32642     768.2787     566.9260
   1423.31116     768.4120     568.1493   1423.31116     768.4120     568.1493
   1423.29590     768.1575     566.4597   1423.29590     768.1575     566.4597
   1423.28064     767.7595     566.9828   1423.28064     767.7595     566.9828
   1423.26538     767.9406     566.5137   1423.26538     767.9406     566.5137
   1423.25012     767.2892     566.4996   1423.25012     767.2892     566.4996
   1423.23486     767.8826     565.0812   1423.23486     767.8826     565.0812
   1423.21960     767.9086     564.5789   1423.21960     767.9086     564.5789
   1423.20435     767.2259     565.8250   1423.20435     767.2259     565.8250
   1423.18909     765.6744     563.3857   1423.18909     765.6744     563.3857
   1423.17383     766.6866     562.7523   1423.17383     766.6866     562.7523
   1423.15857     765.6476     563.2534   1423.15857     765.6476     563.2534
   1423.14331     767.4191     562.9216   1423.14331     767.4191     562.9216
   1423.12805     764.8739     562.5144   1423.12805     764.8739     562.5144
   1423.11279     764.2771     560.8544   1423.11279     764.2771     560.8544
   1423.09753     764.7083     561.2066   1423.09753     764.7083     561.2066
   1423.08228     764.1708     559.7767   1423.08228     764.1708     559.7767
   1423.06702     764.8892     559.3187   1423.06702     764.8892     559.3187
   1423.05176     763.9213     557.5010   1423.05176     763.9213     557.5010
   1423.03650     763.7572     558.5610   1423.03650     763.7572     558.5610
   1423.02124     762.3240     558.0583   1423.02124     762.3240     558.0583
   1423.00598     764.4371     557.1212   1423.00598     764.4371     557.1212
   1422.99072     763.1933     556.0220   1422.99072     763.1933     556.0220
   1422.97546     762.9143     554.5071   1422.97546     762.9143     554.5071
   1422.96021     762.7828     554.5352   1422.96021     762.7828     554.5352
   1422.94495     762.8799     553.4255   1422.94495     762.8799     553.4255
   1422.92969     761.2612     553.1746   1422.92969     761.2612     553.1746
   1422.91443     761.2703     551.6978   1422.91443     761.2703     551.6978
   1422.89917     762.2153     551.6533   1422.89917     762.2153     551.6533
   1422.88391     760.7379     550.5283   1422.88391     760.7379     550.5283
   1422.86865     762.2181     548.7480   1422.86865     762.2181     548.7480
   1422.85339     760.2000     548.9620   1422.85339     760.2000     548.9620
   1422.83813     760.3525     548.5836   1422.83813     760.3525     548.5836
   1422.82288     760.3239     547.3586   1422.82288     760.3239     547.3586
   1422.80762     760.3267     547.1492   1422.80762     760.3267     547.1492
   1422.79236     761.0436     545.3157   1422.79236     761.0436     545.3157
   1422.77710     759.2032     544.7686   1422.77710     759.2032     544.7686
   1422.76184     759.4562     543.2285   1422.76184     759.4562     543.2285
   1422.74658     760.0342     543.3051   1422.74658     760.0342     543.3051
   1422.73132     758.0791     541.8956   1422.73132     758.0791     541.8956
   1422.71606     758.9510     541.7606   1422.71606     758.9510     541.7606
   1422.70081     756.9323     539.8828   1422.70081     756.9323     539.8828
   1422.68555     757.5716     539.2830   1422.68555     757.5716     539.2830
   1422.67029     758.0297     537.9695   1422.67029     758.0297     537.9695
   1422.65503     757.1980     537.6349   1422.65503     757.1980     537.6349
   1422.63977     756.0349     536.1016   1422.63977     756.0349     536.1016
   1422.62451     756.0604     535.2371   1422.62451     756.0604     535.2371
   1422.60925     755.7999     534.4276   1422.60925     755.7999     534.4276
   1422.59399     756.7852     532.6064   1422.59399     756.7852     532.6064
   1422.57874     755.4376     533.0815   1422.57874     755.4376     533.0815
   1422.56348     755.3481     530.6891   1422.56348     755.3481     530.6891
   1422.54822     755.5297     529.9376   1422.54822     755.5297     529.9376
   1422.53296     755.3317     529.1152   1422.53296     755.3317     529.1152
   1422.51770     754.2881     527.2162   1422.51770     754.2881     527.2162
   1422.50244     753.6791     527.0136   1422.50244     753.6791     527.0136
   1422.48718     754.2061     525.5795   1422.48718     754.2061     525.5795
   1422.47192     753.6141     523.9978   1422.47192     753.6141     523.9978
   1422.45667     753.0206     523.3839   1422.45667     753.0206     523.3839
   1422.44141     753.0787     522.5001   1422.44141     753.0787     522.5001
   1422.42615     752.8890     521.4033   1422.42615     752.8890     521.4033
   1422.41089     752.7170     519.9938   1422.41089     752.7170     519.9938
   1422.39563     753.4034     518.0277   1422.39563     753.4034     518.0277
   1422.38037     753.2210     517.1865   1422.38037     753.2210     517.1865
   1422.36511     752.3822     516.9322   1422.36511     752.3822     516.9322
   1422.34985     752.5785     516.3190   1422.34985     752.5785     516.3190
   1422.33459     750.5057     513.2905   1422.33459     750.5057     513.2905
   1422.31934     750.7681     512.4548   1422.31934     750.7681     512.4548
   1422.30408     750.9493     511.6098   1422.30408     750.9493     511.6098
   1422.28882     750.7886     509.7199   1422.28882     750.7886     509.7199
   1422.27356     750.4270     509.0456   1422.27356     750.4270     509.0456
   1422.25830     749.0930     507.7857   1422.25830     749.0930     507.7857
   1422.24304     750.0937     509.0062   1422.24304     750.0937     509.0062
   1422.22778     749.6534     505.3785   1422.22778     749.6534     505.3785
   1422.21252     748.9500     503.7189   1422.21252     748.9500     503.7189
   1422.19727     748.4583     502.6384   1422.19727     748.4583     502.6384
   1422.18201     749.0210     502.2997   1422.18201     749.0210     502.2997
   1422.16675     748.1396     500.4438   1422.16675     748.1396     500.4438
   1422.15149     748.5312     499.0861   1422.15149     748.5312     499.0861
   1422.13623     749.3025     497.7027   1422.13623     749.3025     497.7027
   1422.12097     746.9079     496.8569   1422.12097     746.9079     496.8569
   1422.10571     747.0686     495.3156   1422.10571     747.0686     495.3156
   1422.09045     747.2861     494.2617   1422.09045     747.2861     494.2617
   1422.07520     746.6219     493.6172   1422.07520     746.6219     493.6172
   1422.05994     744.8656     492.0105   1422.05994     744.8656     492.0105
   1422.04468     745.9650     491.1885   1422.04468     745.9650     491.1885
   1422.02942     745.0859     489.0070   1422.02942     745.0859     489.0070
   1422.01416     746.0862     488.3194   1422.01416     746.0862     488.3194
   1421.99890     744.9243     486.3064   1421.99890     744.9243     486.3064
   1421.98364     745.5134     486.1354   1421.98364     745.5134     486.1354
   1421.96838     744.8703     483.8318   1421.96838     744.8703     483.8318
   1421.95312     744.2798     482.4754   1421.95312     744.2798     482.4754
   1421.93787     744.7330     481.2694   1421.93787     744.7330     481.2694
   1421.92261     743.5779     480.0704   1421.92261     743.5779     480.0704
   1421.90735     742.9174     479.6105   1421.90735     742.9174     479.6105
   1421.89209     741.9649     478.3434   1421.89209     741.9649     478.3434
   1421.87683     743.0497     476.4973   1421.87683     743.0497     476.4973
   1421.86157     742.2955     475.5702   1421.86157     742.2955     475.5702
   1421.84631     742.5701     474.3924   1421.84631     742.5701     474.3924
   1421.83105     741.1404     472.9948   1421.83105     741.1404     472.9948
   1421.81580     742.1664     472.0863   1421.81580     742.1664     472.0863
   1421.80054     742.7517     470.9331   1421.80054     742.7517     470.9331
   1421.78528     741.9091     469.2078   1421.78528     741.9091     469.2078
   1421.77002     741.3790     468.3275   1421.77002     741.3790     468.3275
   1421.75476     741.1533     467.2010   1421.75476     741.1533     467.2010
   1421.73950     740.0215     464.9572   1421.73950     740.0215     464.9572
   1421.72424     740.7648     463.9483   1421.72424     740.7648     463.9483
   1421.70898     740.1254     463.2976   1421.70898     740.1254     463.2976
   1421.69373     739.5381     461.9275   1421.69373     739.5381     461.9275
   1421.67847     739.7504     460.7564   1421.67847     739.7504     460.7564
   1421.66321     739.4922     459.3370   1421.66321     739.4922     459.3370
   1421.64795     738.6246     457.8228   1421.64795     738.6246     457.8228
   1421.63269     738.6024     457.1614   1421.63269     738.6024     457.1614
   1421.61743     738.4914     456.1598   1421.61743     738.4914     456.1598
   1421.60217     737.9282     454.8672   1421.60217     737.9282     454.8672
   1421.58691     738.0056     453.6466   1421.58691     738.0056     453.6466
   1421.57166     737.2354     451.6946   1421.57166     737.2354     451.6946
   1421.55640     737.9212     450.9464   1421.55640     737.9212     450.9464
   1421.54114     737.1209     450.2379   1421.54114     737.1209     450.2379
   1421.52588     735.8013     448.9059   1421.52588     735.8013     448.9059
   1421.51062     735.8398     447.0006   1421.51062     735.8398     447.0006
   1421.49536     735.6199     447.2283   1421.49536     735.6199     447.2283
   1421.48010     736.1710     445.2860   1421.48010     736.1710     445.2860
   1421.46484     736.3685     444.2207   1421.46484     736.3685     444.2207
   1421.44958     734.9770     444.4821   1421.44958     734.9770     444.4821
   1421.43433     733.4200     441.5880   1421.43433     733.4200     441.5880
   1421.41907     734.6614     440.5049   1421.41907     734.6614     440.5049
   1421.40381     734.8246     439.7424   1421.40381     734.8246     439.7424
   1421.38855     734.3943     438.9937   1421.38855     734.3943     438.9937
   1421.37329     733.2552     437.6630   1421.37329     733.2552     437.6630
   1421.35803     733.0626     436.9048   1421.35803     733.0626     436.9048
   1421.34277     733.4069     435.5592   1421.34277     733.4069     435.5592
   1421.32751     732.1834     434.6788   1421.32751     732.1834     434.6788
   1421.31226     732.3904     433.1897   1421.31226     732.3904     433.1897
   1421.29700     732.9989     432.6412   1421.29700     732.9989     432.6412
   1421.28174     731.5308     431.4233   1421.28174     731.5308     431.4233
   1421.26648     731.4559     429.8340   1421.26648     731.4559     429.8340
   1421.25122     731.8629     428.2929   1421.25122     731.8629     428.2929
   1421.23596     731.6136     427.4071   1421.23596     731.6136     427.4071
   1421.22070     730.8597     426.8495   1421.22070     730.8597     426.8495
   1421.20544     730.8004     426.1298   1421.20544     730.8004     426.1298
   1421.19019     730.0720     423.8367   1421.19019     730.0720     423.8367
   1421.17493     729.7369     423.5229   1421.17493     729.7369     423.5229
   1421.15967     729.5342     422.5295   1421.15967     729.5342     422.5295
   1421.14441     729.1874     420.6165   1421.14441     729.1874     420.6165
   1421.12915     729.8781     420.3626   1421.12915     729.8781     420.3626
   1421.11389     729.2476     419.3389   1421.11389     729.2476     419.3389
   1421.09863     728.8193     418.3427   1421.09863     728.8193     418.3427
   1421.08337     728.2360     416.8961   1421.08337     728.2360     416.8961
   1421.06812     727.1740     415.9674   1421.06812     727.1740     415.9674
   1421.05286     726.9815     415.2876   1421.05286     726.9815     415.2876
   1421.03760     727.8292     414.7049   1421.03760     727.8292     414.7049
   1421.02234     727.8093     412.7732   1421.02234     727.8093     412.7732
   1421.00708     726.8264     412.7533   1421.00708     726.8264     412.7533
   1420.99182     725.4170     412.1184   1420.99182     725.4170     412.1184
   1420.97656     727.3834     410.5502   1420.97656     727.3834     410.5502
   1420.96130     726.6841     409.6861   1420.96130     726.6841     409.6861
   1420.94604     727.3706     409.0570   1420.94604     727.3706     409.0570
   1420.93079     726.2342     407.6222   1420.93079     726.2342     407.6222
   1420.91553     727.2938     406.4864   1420.91553     727.2938     406.4864
   1420.90027     724.7597     406.1859   1420.90027     724.7597     406.1859
   1420.88501     726.5670     404.7208   1420.88501     726.5670     404.7208
   1420.86975     724.7070     404.4120   1420.86975     724.7070     404.4120
   1420.85449     725.7239     403.5559   1420.85449     725.7239     403.5559
   1420.83923     724.5296     402.4645   1420.83923     724.5296     402.4645
   1420.82397     724.5618     401.8211   1420.82397     724.5618     401.8211
   1420.80872     724.5748     401.1562   1420.80872     724.5748     401.1562
   1420.79346     724.8327     400.2076   1420.79346     724.8327     400.2076
   1420.77820     724.8261     399.4186   1420.77820     724.8261     399.4186
   1420.76294     724.4418     399.2953   1420.76294     724.4418     399.2953
   1420.74768     724.3936     398.3524   1420.74768     724.3936     398.3524
   1420.73242     724.5792     397.2790   1420.73242     724.5792     397.2790
   1420.71716     725.7965     397.1000   1420.71716     725.7965     397.1000
   1420.70190     725.3238     395.6340   1420.70190     725.3238     395.6340
   1420.68665     724.5262     395.0406   1420.68665     724.5262     395.0406
   1420.67139     724.6780     394.0635   1420.67139     724.6780     394.0635
   1420.65613     724.2062     393.5451   1420.65613     724.2062     393.5451
   1420.64087     723.2653     392.5002   1420.64087     723.2653     392.5002
   1420.62561     724.4537     391.8118   1420.62561     724.4537     391.8118
   1420.61035     724.4271     390.3705   1420.61035     724.4271     390.3705
   1420.59509     723.2220     389.9716   1420.59509     723.2220     389.9716
   1420.57983     724.6970     389.9586   1420.57983     724.6970     389.9586
   1420.56458     725.4320     389.8605   1420.56458     725.4320     389.8605
   1420.54932     726.6670     389.3107   1420.54932     726.6670     389.3107
   1420.53406     727.9017     388.8680   1420.53406     727.9017     388.8680
   1420.51880     727.4749     389.4431   1420.51880     727.4749     389.4431
   1420.50354     728.8062     389.1393   1420.50354     728.8062     389.1393
   1420.48828     727.6992     387.5800   1420.48828     727.6992     387.5800
   1420.47302     727.6969     387.1957   1420.47302     727.6969     387.1957
   1420.45776     728.4682     386.8064   1420.45776     728.4682     386.8064
   1420.44250     727.3281     385.0065   1420.44250     727.3281     385.0065
   1420.42725     727.3086     385.0006   1420.42725     727.3086     385.0006
   1420.41199     726.2776     383.1842   1420.41199     726.2776     383.1842
   1420.39673     725.6874     382.4798   1420.39673     725.6874     382.4798
   1420.38147     725.5219     381.9171   1420.38147     725.5219     381.9171
   1420.36621     724.8240     381.5769   1420.36621     724.8240     381.5769
   1420.35095     724.6397     381.6417   1420.35095     724.6397     381.6417
   1420.33569     726.1953     381.0770   1420.33569     726.1953     381.0770
   1420.32043     726.2947     381.0821   1420.32043     726.2947     381.0821
   1420.30518     729.4071     382.4748   1420.30518     729.4071     382.4748
   1420.28992     734.6858     384.1683   1420.28992     734.6858     384.1683
   1420.27466     747.8147     390.9008   1420.27466     747.8147     390.9008
   1420.25940     789.7977     410.7801   1420.25940     789.7977     410.7801
   1420.24414     864.2660     446.5826   1420.24414     864.2660     446.5826
   1420.22888     908.0607     467.4816   1420.22888     908.0607     467.4816
   1420.21362     904.3729     464.6952   1420.21362     904.3729     464.6952
   1420.19836     919.5798     471.9964   1420.19836     919.5798     471.9964
   1420.18311    1025.6681     524.7786   1420.18311    1025.6681     524.7786
   1420.16785    1311.2220     662.9897   1420.16785    1311.2220     662.9897
   1420.15259    1697.4099     855.0508   1420.15259    1697.4099     855.0508
   1420.13733    2063.0315    1034.8627   1420.13733    2063.0315    1034.8627
   1420.12207    1812.2841     909.4206   1420.12207    1812.2841     909.4206
   1420.10681    1183.6132     598.9103   1420.10681    1183.6132     598.9103
   1420.09155     891.5320     454.6573   1420.09155     891.5320     454.6573
   1420.07629     799.1016     407.8523   1420.07629     799.1016     407.8523
   1420.06104     769.7085     393.4538   1420.06104     769.7085     393.4538
   1420.04578     765.8100     390.4328   1420.04578     765.8100     390.4328
   1420.03052     779.7537     397.4353   1420.03052     779.7537     397.4353
   1420.01526     829.0345     419.2336   1420.01526     829.0345     419.2336
   1420.00000     993.9752     501.5672   1420.00000     993.9752     501.5672
   1419.98474    1158.9158     583.9008   1419.98474    1158.9158     583.9008
   1419.96948    1424.1746     709.6908   1419.96948    1424.1746     709.6908
   1419.95422    1581.0681     783.8160   1419.95422    1581.0681     783.8160
   1419.93896    1688.8330     837.4871   1419.93896    1688.8330     837.4871
   1419.92371    1841.8462     910.3030   1419.92371    1841.8462     910.3030
   1419.90845    1925.8457     951.1940   1419.90845    1925.8457     951.1940
   1419.89319    1793.8545     885.9056   1419.89319    1793.8545     885.9056
   1419.87793    1454.8330     718.5557   1419.87793    1454.8330     718.5557
   1419.86267    1306.6915     646.2111   1419.86267    1306.6915     646.2111
   1419.84741    1331.7128     659.6814   1419.84741    1331.7128     659.6814
   1419.83215    1378.4584     680.8929   1419.83215    1378.4584     680.8929
   1419.81689    1343.0085     664.0585   1419.81689    1343.0085     664.0585
   1419.80164    1169.9010     578.2685   1419.80164    1169.9010     578.2685
   1419.78638    1034.1023     511.7983   1419.78638    1034.1023     511.7983
   1419.77112     951.5411     471.6220   1419.77112     951.5411     471.6220
   1419.75586     897.2115     446.9922   1419.75586     897.2115     446.9922
   1419.74060     862.3363     428.5281   1419.74060     862.3363     428.5281
   1419.72534     835.7914     415.0706   1419.72534     835.7914     415.0706
   1419.71008     816.4189     406.1120   1419.71008     816.4189     406.1120
   1419.69482     801.4658     398.5973   1419.69482     801.4658     398.5973
   1419.67957     785.4620     390.7445   1419.67957     785.4620     390.7445
   1419.66431     771.1207     384.3570   1419.66431     771.1207     384.3570
   1419.64905     758.5963     377.1955   1419.64905     758.5963     377.1955
   1419.63379     747.7195     371.2215   1419.63379     747.7195     371.2215
   1419.61853     737.1232     366.4363   1419.61853     737.1232     366.4363
   1419.60327     729.5525     363.0976   1419.60327     729.5525     363.0976
   1419.58801     727.8187     360.5774   1419.58801     727.8187     360.5774
   1419.57275     722.9709     359.1804   1419.57275     722.9709     359.1804
   1419.55750     722.2774     357.2183   1419.55750     722.2774     357.2183
   1419.54224     722.1169     357.4780   1419.54224     722.1169     357.4780
   1419.52698     721.7031     357.4118   1419.52698     721.7031     357.4118
   1419.51172     722.2657     356.6833   1419.51172     722.2657     356.6833
   1419.49646     720.8672     356.7386   1419.49646     720.8672     356.7386
   1419.48120     722.3043     356.6521   1419.48120     722.3043     356.6521
   1419.46594     721.6069     356.3857   1419.46594     721.6069     356.3857
   1419.45068     722.5408     355.7605   1419.45068     722.5408     355.7605
   1419.43542     722.2759     356.1096   1419.43542     722.2759     356.1096
   1419.42017     722.1956     355.7852   1419.42017     722.1956     355.7852
   1419.40491     722.6697     355.6555   1419.40491     722.6697     355.6555
   1419.38965     723.5385     355.6099   1419.38965     723.5385     355.6099
   1419.37439     721.6465     355.1953   1419.37439     721.6465     355.1953
   1419.35913     722.9785     355.5726   1419.35913     722.9785     355.5726
   1419.34387     723.7002     355.4458   1419.34387     723.7002     355.4458
   1419.32861     724.4526     355.4355   1419.32861     724.4526     355.4355
   1419.31335     723.7812     355.6450   1419.31335     723.7812     355.6450
   1419.29810     724.9849     355.9275   1419.29810     724.9849     355.9275
   1419.28284     725.2380     355.3124   1419.28284     725.2380     355.3124
   1419.26758     727.3723     354.9135   1419.26758     727.3723     354.9135
   1419.25232     725.3471     355.3506   1419.25232     725.3471     355.3506
   1419.23706     727.8121     355.2622   1419.23706     727.8121     355.2622
   1419.22180     727.4909     355.0316   1419.22180     727.4909     355.0316
   1419.20654     727.7572     355.1924   1419.20654     727.7572     355.1924
   1419.19128     728.8438     354.9210   1419.19128     728.8438     354.9210
   1419.17603     729.5501     355.8310   1419.17603     729.5501     355.8310
   1419.16077     728.9001     355.2897   1419.16077     728.9001     355.2897
   1419.14551     729.6111     355.3043   1419.14551     729.6111     355.3043
   1419.13025     730.2208     355.4095   1419.13025     730.2208     355.4095
   1419.11499     730.3919     355.8244   1419.11499     730.3919     355.8244
   1419.09973     731.7626     355.3545   1419.09973     731.7626     355.3545
   1419.08447     731.5000     355.8247   1419.08447     731.5000     355.8247
   1419.06921     732.2997     355.3586   1419.06921     732.2997     355.3586
   1419.05396     733.4642     355.6538   1419.05396     733.4642     355.6538
   1419.03870     735.3812     355.5024   1419.03870     735.3812     355.5024
   1419.02344     734.3629     356.5046   1419.02344     734.3629     356.5046
   1419.00818     735.0919     356.4663   1419.00818     735.0919     356.4663
   1418.99292     734.3507     356.4681   1418.99292     734.3507     356.4681
   1418.97766     735.7416     356.2277   1418.97766     735.7416     356.2277
   1418.96240     736.5475     357.0207   1418.96240     736.5475     357.0207
   1418.94714     736.4247     356.5055   1418.94714     736.4247     356.5055
   1418.93188     739.2157     356.8622   1418.93188     739.2157     356.8622
   1418.91663     739.1880     357.2113   1418.91663     739.1880     357.2113
   1418.90137     739.9236     358.0082   1418.90137     739.9236     358.0082
   1418.88611     739.8654     357.1873   1418.88611     739.8654     357.1873
   1418.87085     740.0674     357.5233   1418.87085     740.0674     357.5233
   1418.85559     742.3925     357.5286   1418.85559     742.3925     357.5286
   1418.84033     742.7512     357.9585   1418.84033     742.7512     357.9585
   1418.82507     741.6721     358.2293   1418.82507     741.6721     358.2293
   1418.80981     744.2118     358.1222   1418.80981     744.2118     358.1222
   1418.79456     744.1308     359.0223   1418.79456     744.1308     359.0223
   1418.77930     745.9949     359.2328   1418.77930     745.9949     359.2328
   1418.76404     746.3318     359.1750   1418.76404     746.3318     359.1750
   1418.74878     746.3476     359.4242   1418.74878     746.3476     359.4242
   1418.73352     746.6992     359.7750   1418.73352     746.6992     359.7750
   1418.71826     748.0693     359.9300   1418.71826     748.0693     359.9300
   1418.70300     749.1548     359.6416   1418.70300     749.1548     359.6416
   1418.68774     749.4817     360.3809   1418.68774     749.4817     360.3809
   1418.67249     751.2637     360.7527   1418.67249     751.2637     360.7527
   1418.65723     751.2658     361.1949   1418.65723     751.2658     361.1949
   1418.64197     752.2742     361.3867   1418.64197     752.2742     361.3867
   1418.62671     752.7697     361.4169   1418.62671     752.7697     361.4169
   1418.61145     754.8538     362.7250   1418.61145     754.8538     362.7250
   1418.59619     754.8943     362.6193   1418.59619     754.8943     362.6193
   1418.58093     755.9721     362.4737   1418.58093     755.9721     362.4737
   1418.56567     757.5833     362.3233   1418.56567     757.5833     362.3233
   1418.55042     758.1404     363.4831   1418.55042     758.1404     363.4831
   1418.53516     758.8012     363.7817   1418.53516     758.8012     363.7817
   1418.51990     760.1073     363.9746   1418.51990     760.1073     363.9746
   1418.50464     762.3167     364.5746   1418.50464     762.3167     364.5746
   1418.48938     762.1347     364.5848   1418.48938     762.1347     364.5848
   1418.47412     762.4264     364.4208   1418.47412     762.4264     364.4208
   1418.45886     764.0076     365.1281   1418.45886     764.0076     365.1281
   1418.44360     764.7054     366.3751   1418.44360     764.7054     366.3751
   1418.42834     765.6727     365.5564   1418.42834     765.6727     365.5564
   1418.41309     767.1830     366.8105   1418.41309     767.1830     366.8105
   1418.39783     768.0160     367.2621   1418.39783     768.0160     367.2621
   1418.38257     770.5892     367.3195   1418.38257     770.5892     367.3195
   1418.36731     769.5436     367.6438   1418.36731     769.5436     367.6438
   1418.35205     771.9046     367.9204   1418.35205     771.9046     367.9204
   1418.33679     772.4533     368.2506   1418.33679     772.4533     368.2506
   1418.32153     773.0736     368.9472   1418.32153     773.0736     368.9472
   1418.30627     773.6014     369.3414   1418.30627     773.6014     369.3414
   1418.29102     775.2563     369.1356   1418.29102     775.2563     369.1356
   1418.27576     777.0627     369.9558   1418.27576     777.0627     369.9558
   1418.26050     778.1667     370.2260   1418.26050     778.1667     370.2260
   1418.24524     779.6739     371.4594   1418.24524     779.6739     371.4594
   1418.22998     780.5033     371.4680   1418.22998     780.5033     371.4680
   1418.21472     780.3912     371.8438   1418.21472     780.3912     371.8438
   1418.19946     783.0131     371.9553   1418.19946     783.0131     371.9553
   1418.18420     783.3999     372.6839   1418.18420     783.3999     372.6839
   1418.16895     784.4408     373.8489   1418.16895     784.4408     373.8489
   1418.15369     785.5143     373.4647   1418.15369     785.5143     373.4647
   1418.13843     785.9721     375.1405   1418.13843     785.9721     375.1405
   1418.12317     787.1005     373.8022   1418.12317     787.1005     373.8022
   1418.10791     789.3495     375.3472   1418.10791     789.3495     375.3472
   1418.09265     789.8340     375.4240   1418.09265     789.8340     375.4240
   1418.07739     790.5934     375.9065   1418.07739     790.5934     375.9065
   1418.06213     792.7562     376.4079   1418.06213     792.7562     376.4079
   1418.04688     794.0458     376.3185   1418.04688     794.0458     376.3185
   1418.03162     795.5253     377.0498   1418.03162     795.5253     377.0498
   1418.01636     796.9105     377.2206   1418.01636     796.9105     377.2206
   1418.00110     797.5200     378.7486   1418.00110     797.5200     378.7486
   1417.98584     799.3415     379.0604   1417.98584     799.3415     379.0604
   1417.97058     799.9492     379.5494   1417.97058     799.9492     379.5494
   1417.95532     801.2035     380.2414   1417.95532     801.2035     380.2414
   1417.94006     802.2876     380.0999   1417.94006     802.2876     380.0999
   1417.92480     804.5490     380.8318   1417.92480     804.5490     380.8318
   1417.90955     804.2849     380.3234   1417.90955     804.2849     380.3234
   1417.89429     806.0579     381.5399   1417.89429     806.0579     381.5399
   1417.87903     807.2716     382.0646   1417.87903     807.2716     382.0646
   1417.86377     808.6975     383.2673   1417.86377     808.6975     383.2673
   1417.84851     809.8925     382.8644   1417.84851     809.8925     382.8644
   1417.83325     810.5931     383.8823   1417.83325     810.5931     383.8823
   1417.81799     813.0833     384.6545   1417.81799     813.0833     384.6545
   1417.80273     813.8536     384.6881   1417.80273     813.8536     384.6881
   1417.78748     815.2291     385.1691   1417.78748     815.2291     385.1691
   1417.77222     817.1548     385.8732   1417.77222     817.1548     385.8732
   1417.75696     818.3933     385.9338   1417.75696     818.3933     385.9338
   1417.74170     819.7419     387.0514   1417.74170     819.7419     387.0514
   1417.72644     821.0868     387.4248   1417.72644     821.0868     387.4248
   1417.71118     822.8076     388.2931   1417.71118     822.8076     388.2931
   1417.69592     822.6328     388.4857   1417.69592     822.6328     388.4857
   1417.68066     825.3914     389.6250   1417.68066     825.3914     389.6250
   1417.66541     826.4449     389.7852   1417.66541     826.4449     389.7852
   1417.65015     827.3931     389.7853   1417.65015     827.3931     389.7853
   1417.63489     829.0467     390.7526   1417.63489     829.0467     390.7526
   1417.61963     830.5123     391.0117   1417.61963     830.5123     391.0117
   1417.60437     829.1973     391.7070   1417.60437     829.1973     391.7070
   1417.58911     831.4631     392.3389   1417.58911     831.4631     392.3389
   1417.57385     834.5139     392.2893   1417.57385     834.5139     392.2893
   1417.55859     834.4017     393.0853   1417.55859     834.4017     393.0853
   1417.54333     836.5220     393.8582   1417.54333     836.5220     393.8582
   1417.52808     837.2883     394.9207   1417.52808     837.2883     394.9207
   1417.51282     838.4056     394.7932   1417.51282     838.4056     394.7932
   1417.49756     840.0911     395.7098   1417.49756     840.0911     395.7098
   1417.48230     841.4463     396.3493   1417.48230     841.4463     396.3493
   1417.46704     842.3674     396.6032   1417.46704     842.3674     396.6032
   1417.45178     844.1744     397.5497   1417.45178     844.1744     397.5497
   1417.43652     844.9453     397.4901   1417.43652     844.9453     397.4901
   1417.42126     845.9744     398.1547   1417.42126     845.9744     398.1547
   1417.40601     847.7450     398.9780   1417.40601     847.7450     398.9780
   1417.39075     848.5538     399.0864   1417.39075     848.5538     399.0864
   1417.37549     849.7942     399.6089   1417.37549     849.7942     399.6089
   1417.36023     851.0742     400.7215   1417.36023     851.0742     400.7215
   1417.34497     852.6406     400.4956   1417.34497     852.6406     400.4956
   1417.32971     854.4144     401.1484   1417.32971     854.4144     401.1484
   1417.31445     854.3093     401.6301   1417.31445     854.3093     401.6301
   1417.29919     855.5505     402.7863   1417.29919     855.5505     402.7863
   1417.28394     856.5294     402.7902   1417.28394     856.5294     402.7902
   1417.26868     856.9041     403.5815   1417.26868     856.9041     403.5815
   1417.25342     859.0016     403.4640   1417.25342     859.0016     403.4640
   1417.23816     861.0049     404.7830   1417.23816     861.0049     404.7830
   1417.22290     861.5160     404.5718   1417.22290     861.5160     404.5718
   1417.20764     861.3479     405.0742   1417.20764     861.3479     405.0742
   1417.19238     861.7426     404.8372   1417.19238     861.7426     404.8372
   1417.17712     863.3235     406.1668   1417.17712     863.3235     406.1668
   1417.16187     864.4649     406.5392   1417.16187     864.4649     406.5392
   1417.14661     865.6678     407.3897   1417.14661     865.6678     407.3897
   1417.13135     867.1606     407.8423   1417.13135     867.1606     407.8423
   1417.11609     867.5526     408.1936   1417.11609     867.5526     408.1936
   1417.10083     868.8463     408.3511   1417.10083     868.8463     408.3511
   1417.08557     869.7735     408.7257   1417.08557     869.7735     408.7257
   1417.07031     871.1172     409.6881   1417.07031     871.1172     409.6881
   1417.05505     872.6663     410.2230   1417.05505     872.6663     410.2230
   1417.03979     872.9312     410.4407   1417.03979     872.9312     410.4407
   1417.02454     873.9673     410.6718   1417.02454     873.9673     410.6718
   1417.00928     875.2303     411.5287   1417.00928     875.2303     411.5287
   1416.99402     876.3541     411.5609   1416.99402     876.3541     411.5609
   1416.97876     876.8865     411.8716   1416.97876     876.8865     411.8716
   1416.96350     875.8775     411.9936   1416.96350     875.8775     411.9936
   1416.94824     879.1497     412.7714   1416.94824     879.1497     412.7714
   1416.93298     878.7073     413.4046   1416.93298     878.7073     413.4046
   1416.91772     879.5407     413.0060   1416.91772     879.5407     413.0060
   1416.90247     879.4638     413.5630   1416.90247     879.4638     413.5630
   1416.88721     882.0615     414.0158   1416.88721     882.0615     414.0158
   1416.87195     880.8660     413.9483   1416.87195     880.8660     413.9483
   1416.85669     882.8417     414.7375   1416.85669     882.8417     414.7375
   1416.84143     883.6484     415.0444   1416.84143     883.6484     415.0444
   1416.82617     885.3034     415.8395   1416.82617     885.3034     415.8395
   1416.81091     884.5826     415.5167   1416.81091     884.5826     415.5167
   1416.79565     884.7607     415.7728   1416.79565     884.7607     415.7728
   1416.78040     885.6089     416.2511   1416.78040     885.6089     416.2511
   1416.76514     885.7328     416.6174   1416.76514     885.7328     416.6174
   1416.74988     887.7101     416.6601   1416.74988     887.7101     416.6601
   1416.73462     888.0193     416.7110   1416.73462     888.0193     416.7110
   1416.71936     887.7867     417.3009   1416.71936     887.7867     417.3009
   1416.70410     887.7615     417.5139   1416.70410     887.7615     417.5139
   1416.68884     889.3403     417.5797   1416.68884     889.3403     417.5797
   1416.67358     888.2778     417.8267   1416.67358     888.2778     417.8267
   1416.65833     889.6340     418.3047   1416.65833     889.6340     418.3047
   1416.64307     889.4058     418.1891   1416.64307     889.4058     418.1891
   1416.62781     889.0140     417.9825   1416.62781     889.0140     417.9825
   1416.61255     891.4947     419.2539   1416.61255     891.4947     419.2539
   1416.59729     891.7206     419.5030   1416.59729     891.7206     419.5030
   1416.58203     890.4858     419.0334   1416.58203     890.4858     419.0334
   1416.56677     890.5183     418.9296   1416.56677     890.5183     418.9296
   1416.55151     890.8584     419.5981   1416.55151     890.8584     419.5981
   1416.53625     889.4206     419.1507   1416.53625     889.4206     419.1507
   1416.52100     890.6431     418.7251   1416.52100     890.6431     418.7251
   1416.50574     889.9942     419.8993   1416.50574     889.9942     419.8993
   1416.49048     891.2516     419.9013   1416.49048     891.2516     419.9013
   1416.47522     890.4490     419.5125   1416.47522     890.4490     419.5125
   1416.45996     890.7296     420.0654   1416.45996     890.7296     420.0654
   1416.44470     891.9743     419.4340   1416.44470     891.9743     419.4340
   1416.42944     891.7999     419.4445   1416.42944     891.7999     419.4445
   1416.41418     892.7599     419.4230   1416.41418     892.7599     419.4230
   1416.39893     890.2126     419.4459   1416.39893     890.2126     419.4459
   1416.38367     891.2068     419.6605   1416.38367     891.2068     419.6605
   1416.36841     890.2163     419.8800   1416.36841     890.2163     419.8800
   1416.35315     890.4882     419.2043   1416.35315     890.4882     419.2043
   1416.33789     889.6897     419.4458   1416.33789     889.6897     419.4458
   1416.32263     889.4736     419.5630   1416.32263     889.4736     419.5630
   1416.30737     890.2679     418.9304   1416.30737     890.2679     418.9304
   1416.29211     889.5074     419.8926   1416.29211     889.5074     419.8926
   1416.27686     888.8221     419.6988   1416.27686     888.8221     419.6988
   1416.26160     888.0082     419.4229   1416.26160     888.0082     419.4229
   1416.24634     888.4906     418.1565   1416.24634     888.4906     418.1565
   1416.23108     887.6979     419.4720   1416.23108     887.6979     419.4720
   1416.21582     890.2724     420.4534   1416.21582     890.2724     420.4534
   1416.20056     886.7900     418.9047   1416.20056     886.7900     418.9047
   1416.18530     887.3051     418.3194   1416.18530     887.3051     418.3194
   1416.17004     885.1180     418.3429   1416.17004     885.1180     418.3429
   1416.15479     883.9167     417.8032   1416.15479     883.9167     417.8032
   1416.13953     885.5473     418.5664   1416.13953     885.5473     418.5664
   1416.12427     884.3259     418.8040   1416.12427     884.3259     418.8040
   1416.10901     883.1451     417.7984   1416.10901     883.1451     417.7984
   1416.09375     881.7794     417.7017   1416.09375     881.7794     417.7017
   1416.07849     881.4675     416.9998   1416.07849     881.4675     416.9998
   1416.06323     881.4185     417.6348   1416.06323     881.4185     417.6348
   1416.04797     880.9225     417.4999   1416.04797     880.9225     417.4999
   1416.03271     880.6127     417.7465   1416.03271     880.6127     417.7465
   1416.01746     880.3030     417.2472   1416.01746     880.3030     417.2472
   1416.00220     879.0015     417.1017   1416.00220     879.0015     417.1017
   1415.98694     880.5746     416.4679   1415.98694     880.5746     416.4679
   1415.97168     876.8422     416.7691   1415.97168     876.8422     416.7691
   1415.95642     878.2788     416.7036   1415.95642     878.2788     416.7036
   1415.94116     876.9040     416.4240   1415.94116     876.9040     416.4240
   1415.92590     876.0925     415.6239   1415.92590     876.0925     415.6239
   1415.91064     874.4727     415.2049   1415.91064     874.4727     415.2049
   1415.89539     873.2607     415.6341   1415.89539     873.2607     415.6341
   1415.88013     873.4788     414.7754   1415.88013     873.4788     414.7754
   1415.86487     870.7421     414.6954   1415.86487     870.7421     414.6954
   1415.84961     870.4465     415.0126   1415.84961     870.4465     415.0126
   1415.83435     872.0257     415.1366   1415.83435     872.0257     415.1366
   1415.81909     869.2250     414.2877   1415.81909     869.2250     414.2877
   1415.80383     868.3589     414.1610   1415.80383     868.3589     414.1610
   1415.78857     867.2578     414.4747   1415.78857     867.2578     414.4747
   1415.77332     866.6622     413.7327   1415.77332     866.6622     413.7327
   1415.75806     864.6746     413.0025   1415.75806     864.6746     413.0025
   1415.74280     863.9509     412.8370   1415.74280     863.9509     412.8370
   1415.72754     862.3226     412.7026   1415.72754     862.3226     412.7026
   1415.71228     862.2064     412.9343   1415.71228     862.2064     412.9343
   1415.69702     860.5815     412.5768   1415.69702     860.5815     412.5768
   1415.68176     859.4324     412.7997   1415.68176     859.4324     412.7997
   1415.66650     859.3331     411.9027   1415.66650     859.3331     411.9027
   1415.65125     859.2818     411.8606   1415.65125     859.2818     411.8606
   1415.63599     856.1655     411.3114   1415.63599     856.1655     411.3114
   1415.62073     856.1432     411.1482   1415.62073     856.1432     411.1482
   1415.60547     854.1456     410.6661   1415.60547     854.1456     410.6661
   1415.59021     853.1891     409.9575   1415.59021     853.1891     409.9575
   1415.57495     853.0063     409.4877   1415.57495     853.0063     409.4877
   1415.55969     850.7702     410.3571   1415.55969     850.7702     410.3571
   1415.54443     849.5071     409.5217   1415.54443     849.5071     409.5217
   1415.52917     847.2037     409.1903   1415.52917     847.2037     409.1903
   1415.51392     849.0396     408.6385   1415.51392     849.0396     408.6385
   1415.49866     845.3894     409.5886   1415.49866     845.3894     409.5886
   1415.48340     846.1774     408.3224   1415.48340     846.1774     408.3224
   1415.46814     844.0022     408.2069   1415.46814     844.0022     408.2069
   1415.45288     845.6171     410.0710   1415.45288     845.6171     410.0710
   1415.43762     840.7373     407.7002   1415.43762     840.7373     407.7002
   1415.42236     838.4805     407.1391   1415.42236     838.4805     407.1391
   1415.40710     838.3729     406.9019   1415.40710     838.3729     406.9019
   1415.39185     836.4342     407.2283   1415.39185     836.4342     407.2283
   1415.37659     835.3360     406.6802   1415.37659     835.3360     406.6802
   1415.36133     833.7003     406.1912   1415.36133     833.7003     406.1912
   1415.34607     833.8333     405.6313   1415.34607     833.8333     405.6313
   1415.33081     830.7200     406.1867   1415.33081     830.7200     406.1867
   1415.31555     829.1544     405.3594   1415.31555     829.1544     405.3594
   1415.30029     828.4636     404.5037   1415.30029     828.4636     404.5037
   1415.28503     826.7475     404.5004   1415.28503     826.7475     404.5004
   1415.26978     825.8841     404.5124   1415.26978     825.8841     404.5124
   1415.25452     821.8136     403.5211   1415.25452     821.8136     403.5211
   1415.23926     821.8369     403.1612   1415.23926     821.8369     403.1612
   1415.22400     820.2031     403.3688   1415.22400     820.2031     403.3688
   1415.20874     818.9098     402.4893   1415.20874     818.9098     402.4893
   1415.19348     815.2989     402.3004   1415.19348     815.2989     402.3004
   1415.17822     815.6330     401.5164   1415.17822     815.6330     401.5164
   1415.16296     814.4928     401.7793   1415.16296     814.4928     401.7793
   1415.14771     812.4387     400.6368   1415.14771     812.4387     400.6368
   1415.13245     810.7112     400.7915   1415.13245     810.7112     400.7915
   1415.11719     808.7205     400.2585   1415.11719     808.7205     400.2585
   1415.10193     807.0220     399.5628   1415.10193     807.0220     399.5628
   1415.08667     804.7485     399.1097   1415.08667     804.7485     399.1097
   1415.07141     805.0225     399.5450   1415.07141     805.0225     399.5450
   1415.05615     801.7286     398.9335   1415.05615     801.7286     398.9335
   1415.04089     799.3395     397.8782   1415.04089     799.3395     397.8782
   1415.02563     798.3438     397.5037   1415.02563     798.3438     397.5037
   1415.01038     795.0318     396.4095   1415.01038     795.0318     396.4095
   1414.99512     795.5874     397.1068   1414.99512     795.5874     397.1068
   1414.97986     791.4320     396.1273   1414.97986     791.4320     396.1273
   1414.96460     788.9125     395.3190   1414.96460     788.9125     395.3190
   1414.94934     787.6842     395.4283   1414.94934     787.6842     395.4283
   1414.93408     786.4940     395.1578   1414.93408     786.4940     395.1578
   1414.91882     784.7307     394.1508   1414.91882     784.7307     394.1508
   1414.90356     781.9026     393.2166   1414.90356     781.9026     393.2166
   1414.88831     780.0055     393.0285   1414.88831     780.0055     393.0285
   1414.87305     777.1293     392.2578   1414.87305     777.1293     392.2578
   1414.85779     775.2791     391.9068   1414.85779     775.2791     391.9068
   1414.84253     773.6240     391.2151   1414.84253     773.6240     391.2151
   1414.82727     771.3672     390.0699   1414.82727     771.3672     390.0699
   1414.81201     769.5570     390.1229   1414.81201     769.5570     390.1229
   1414.79675     766.6893     389.3911   1414.79675     766.6893     389.3911
   1414.78149     763.8761     388.5054   1414.78149     763.8761     388.5054
   1414.76624     762.7889     388.5109   1414.76624     762.7889     388.5109
   1414.75098     759.6786     387.5899   1414.75098     759.6786     387.5899
   1414.73572     759.3433     387.3895   1414.73572     759.3433     387.3895
   1414.72046     755.6383     386.6664   1414.72046     755.6383     386.6664
   1414.70520     754.2838     386.3313   1414.70520     754.2838     386.3313
   1414.68994     751.1968     385.4527   1414.68994     751.1968     385.4527
   1414.67468     749.5191     384.2068   1414.67468     749.5191     384.2068
   1414.65942     746.8223     384.3260   1414.65942     746.8223     384.3260
   1414.64417     743.6141     383.3625   1414.64417     743.6141     383.3625
   1414.62891     741.2681     382.5759   1414.62891     741.2681     382.5759
   1414.61365     738.5278     382.4897   1414.61365     738.5278     382.4897
   1414.59839     736.5836     381.0924   1414.59839     736.5836     381.0924
   1414.58313     734.0103     380.3377   1414.58313     734.0103     380.3377
   1414.56787     730.9163     379.2119   1414.56787     730.9163     379.2119
   1414.55261     729.7667     378.3563   1414.55261     729.7667     378.3563
   1414.53735     726.5023     377.7738   1414.53735     726.5023     377.7738
   1414.52209     723.8749     376.7967   1414.52209     723.8749     376.7967
   1414.50684     722.1808     376.3728   1414.50684     722.1808     376.3728
   1414.49158     719.0370     375.0950   1414.49158     719.0370     375.0950
   1414.47632     716.1049     374.6941   1414.47632     716.1049     374.6941
   1414.46106     713.3689     373.6978   1414.46106     713.3689     373.6978
   1414.44580     710.5118     372.3479   1414.44580     710.5118     372.3479
   1414.43054     707.1348     372.1508   1414.43054     707.1348     372.1508
   1414.41528     704.6417     370.9536   1414.41528     704.6417     370.9536
   1414.40002     701.9147     369.9160   1414.40002     701.9147     369.9160
   1414.38477     698.3632     369.3238   1414.38477     698.3632     369.3238
   1414.36951     695.7122     368.3290   1414.36951     695.7122     368.3290
   1414.35425     693.0411     367.4714   1414.35425     693.0411     367.4714
   1414.33899     690.5023     366.5979   1414.33899     690.5023     366.5979
   1414.32373     688.0947     366.1710   1414.32373     688.0947     366.1710
   1414.30847     684.8854     365.3845   1414.30847     684.8854     365.3845
   1414.29321     681.9083     364.4540   1414.29321     681.9083     364.4540
   1414.27795     677.9642     362.5139   1414.27795     677.9642     362.5139
   1414.26270     677.0082     361.2300   1414.26270     677.0082     361.2300
   1414.24744     672.6230     360.2375   1414.24744     672.6230     360.2375
   1414.23218     670.9389     359.8726   1414.23218     670.9389     359.8726
   1414.21692     666.4553     358.6859   1414.21692     666.4553     358.6859
   1414.20166     663.8432     357.8228   1414.20166     663.8432     357.8228
   1414.18640     661.4388     356.1844   1414.18640     661.4388     356.1844
   1414.17114     657.2932     355.9683   1414.17114     657.2932     355.9683
   1414.15588     654.6852     355.0625   1414.15588     654.6852     355.0625
   1414.14062     651.7386     353.6888   1414.14062     651.7386     353.6888
   1414.12537     649.0167     352.3952   1414.12537     649.0167     352.3952
   1414.11011     645.9164     351.8362   1414.11011     645.9164     351.8362
   1414.09485     642.5848     350.5228   1414.09485     642.5848     350.5228
   1414.07959     639.8868     349.2977   1414.07959     639.8868     349.2977
   1414.06433     637.2264     347.8904   1414.06433     637.2264     347.8904
   1414.04907     633.0667     346.8778   1414.04907     633.0667     346.8778
   1414.03381     629.5630     345.6918   1414.03381     629.5630     345.6918
   1414.01855     627.3627     344.2549   1414.01855     627.3627     344.2549
   1414.00330     648.6718     351.2108   1414.00330     648.6718     351.2108
   1413.98804     621.5845     342.9933   1413.98804     621.5845     342.9933
   1413.97278     618.0950     341.4174   1413.97278     618.0950     341.4174
   1413.95752     613.2615     340.5783   1413.95752     613.2615     340.5783
   1413.94226     610.2927     338.9647   1413.94226     610.2927     338.9647
   1413.92700     608.2361     338.0341   1413.92700     608.2361     338.0341
   1413.91174     604.6111     336.2116   1413.91174     604.6111     336.2116
   1413.89648     601.5471     335.6674   1413.89648     601.5471     335.6674
   1413.88123     597.7697     334.4363   1413.88123     597.7697     334.4363
   1413.86597     595.3633     332.9876   1413.86597     595.3633     332.9876
   1413.85071     591.3887     332.0104   1413.85071     591.3887     332.0104
   1413.83545     589.2023     330.5031   1413.83545     589.2023     330.5031
   1413.82019     585.4066     329.1250   1413.82019     585.4066     329.1250
   1413.80493     581.6038     328.8626   1413.80493     581.6038     328.8626
   1413.78967     578.3717     327.0117   1413.78967     578.3717     327.0117
   1413.77441     575.6172     325.2608   1413.77441     575.6172     325.2608
   1413.75916     572.8107     324.4503   1413.75916     572.8107     324.4503
   1413.74390     568.6647     322.6655   1413.74390     568.6647     322.6655
   1413.72864     565.5521     321.2900   1413.72864     565.5521     321.2900
   1413.71338     562.7974     320.5025   1413.71338     562.7974     320.5025
   1413.69812     559.1968     319.1419   1413.69812     559.1968     319.1419
   1413.68286     555.4379     317.7737   1413.68286     555.4379     317.7737
   1413.66760     552.7296     316.6386   1413.66760     552.7296     316.6386
   1413.65234     549.0844     315.2349   1413.65234     549.0844     315.2349
   1413.63708     544.9863     314.2061   1413.63708     544.9863     314.2061
   1413.62183     542.3832     312.4828   1413.62183     542.3832     312.4828
   1413.60657     539.4313     311.4197   1413.60657     539.4313     311.4197
   1413.59131     536.0277     310.5627   1413.59131     536.0277     310.5627
   1413.57605     532.7651     308.8891   1413.57605     532.7651     308.8891
   1413.56079     529.9899     307.8807   1413.56079     529.9899     307.8807
   1413.54553     526.7105     306.8245   1413.54553     526.7105     306.8245
   1413.53027     524.1196     304.9458   1413.53027     524.1196     304.9458
   1413.51501     520.8219     303.8413   1413.51501     520.8219     303.8413
   1413.49976     518.2721     302.2123   1413.49976     518.2721     302.2123
   1413.48450     513.3323     301.2980   1413.48450     513.3323     301.2980
   1413.46924     511.3633     299.5490   1413.46924     511.3633     299.5490
   1413.45398     507.6477     298.6070   1413.45398     507.6477     298.6070
   1413.43872     505.0593     296.6623   1413.43872     505.0593     296.6623
   1413.42346     501.3008     295.3955   1413.42346     501.3008     295.3955
   1413.40820     499.2448     294.3979   1413.40820     499.2448     294.3979
   1413.39294     496.0436     292.9374   1413.39294     496.0436     292.9374
   1413.37769     491.7220     292.2375   1413.37769     491.7220     292.2375
   1413.36243     490.7682     290.7440   1413.36243     490.7682     290.7440
   1413.34717     487.2283     289.1534   1413.34717     487.2283     289.1534
   1413.33191     483.7742     288.4809   1413.33191     483.7742     288.4809
   1413.31665     481.6506     286.8535   1413.31665     481.6506     286.8535
   1413.30139     478.4961     284.9729   1413.30139     478.4961     284.9729
   1413.28613     475.0874     284.3934   1413.28613     475.0874     284.3934
   1413.27087     472.0341     283.2167   1413.27087     472.0341     283.2167
   1413.25562     470.4751     281.7316   1413.25562     470.4751     281.7316
   1413.24036     467.1455     280.2334   1413.24036     467.1455     280.2334
   1413.22510     464.7608     279.6826   1413.22510     464.7608     279.6826
   1413.20984     462.0388     278.2942   1413.20984     462.0388     278.2942
   1413.19458     459.0012     276.7675   1413.19458     459.0012     276.7675
   1413.17932     456.3051     275.6964   1413.17932     456.3051     275.6964
   1413.16406     454.3029     274.9073   1413.16406     454.3029     274.9073
   1413.14880     450.9447     273.5141   1413.14880     450.9447     273.5141
   1413.13354     448.6476     272.9359   1413.13354     448.6476     272.9359
   1413.11829     446.6278     270.8317   1413.11829     446.6278     270.8317
   1413.10303     443.7157     270.0879   1413.10303     443.7157     270.0879
   1413.08777     440.6661     268.3800   1413.08777     440.6661     268.3800
   1413.07251     438.6371     267.3988   1413.07251     438.6371     267.3988
   1413.05725     436.2167     266.7653   1413.05725     436.2167     266.7653
   1413.04199     434.6117     265.4297   1413.04199     434.6117     265.4297
   1413.02673     431.8121     264.3746   1413.02673     431.8121     264.3746
   1413.01147     429.2285     263.1558   1413.01147     429.2285     263.1558
   1412.99622     427.0502     261.9589   1412.99622     427.0502     261.9589
   1412.98096     424.9547     261.0055   1412.98096     424.9547     261.0055
   1412.96570     423.1859     260.6843   1412.96570     423.1859     260.6843
   1412.95044     421.0907     259.2377   1412.95044     421.0907     259.2377
   1412.93518     419.1924     258.1098   1412.93518     419.1924     258.1098
   1412.91992     417.0532     257.4542   1412.91992     417.0532     257.4542
   1412.90466     415.2047     256.3853   1412.90466     415.2047     256.3853
   1412.88940     412.8048     255.1904   1412.88940     412.8048     255.1904
   1412.87415     411.6018     255.3732   1412.87415     411.6018     255.3732
   1412.85889     409.5387     254.1614   1412.85889     409.5387     254.1614
   1412.84363     407.6303     252.6867   1412.84363     407.6303     252.6867
   1412.82837     406.8900     252.2130   1412.82837     406.8900     252.2130
   1412.81311     404.4236     251.1553   1412.81311     404.4236     251.1553
   1412.79785     403.5302     250.3226   1412.79785     403.5302     250.3226
   1412.78259     401.7354     249.8147   1412.78259     401.7354     249.8147
   1412.76733     400.0937     249.1918   1412.76733     400.0937     249.1918
   1412.75208     398.3487     248.0250   1412.75208     398.3487     248.0250
   1412.73682     396.6592     247.5994   1412.73682     396.6592     247.5994
   1412.72156     395.0041     246.5996   1412.72156     395.0041     246.5996
   1412.70630     394.7480     246.5260   1412.70630     394.7480     246.5260
   1412.69104     393.3547     245.9692   1412.69104     393.3547     245.9692
   1412.67578     391.9628     244.8683   1412.67578     391.9628     244.8683
   1412.66052     391.2633     244.6271   1412.66052     391.2633     244.6271
   1412.64526     389.7796     244.2802   1412.64526     389.7796     244.2802
   1412.63000     388.9028     243.0225   1412.63000     388.9028     243.0225
   1412.61475     387.6279     242.5786   1412.61475     387.6279     242.5786
   1412.59949     387.1746     242.5910   1412.59949     387.1746     242.5910
   1412.58423     385.9665     242.0855   1412.58423     385.9665     242.0855
   1412.56897     385.0221     241.7980   1412.56897     385.0221     241.7980
   1412.55371     384.3271     241.4830   1412.55371     384.3271     241.4830
   1412.53845     383.7158     240.5433   1412.53845     383.7158     240.5433
   1412.52319     383.1307     240.6382   1412.52319     383.1307     240.6382
   1412.50793     383.1020     240.1976   1412.50793     383.1020     240.1976
   1412.49268     381.6745     240.0924   1412.49268     381.6745     240.0924
   1412.47742     381.3279     239.9906   1412.47742     381.3279     239.9906
   1412.46216     381.4807     239.6113   1412.46216     381.4807     239.6113
   1412.44690     380.9367     239.5537   1412.44690     380.9367     239.5537
   1412.43164     380.5586     239.7626   1412.43164     380.5586     239.7626
   1412.41638     380.3062     239.5028   1412.41638     380.3062     239.5028
   1412.40112     380.2513     239.5892   1412.40112     380.2513     239.5892
   1412.38586     379.9551     239.5270   1412.38586     379.9551     239.5270
   1412.37061     379.6266     238.9717   1412.37061     379.6266     238.9717
   1412.35535     379.7445     239.5407   1412.35535     379.7445     239.5407
   1412.34009     379.8734     240.0563   1412.34009     379.8734     240.0563
   1412.32483     380.3646     239.9360   1412.32483     380.3646     239.9360
   1412.30957     380.0469     239.8811   1412.30957     380.0469     239.8811
   1412.29431     380.9131     240.2898   1412.29431     380.9131     240.2898
   1412.27905     380.6875     240.3834   1412.27905     380.6875     240.3834
   1412.26379     381.3883     240.9397   1412.26379     381.3883     240.9397
   1412.24854     381.5037     240.6525   1412.24854     381.5037     240.6525
   1412.23328     382.2181     241.4780   1412.23328     382.2181     241.4780
   1412.21802     382.3196     241.7882   1412.21802     382.3196     241.7882
   1412.20276     382.7859     241.9803   1412.20276     382.7859     241.9803