#     FILENAME=!Skynet_57528_lach-cc-74_20506_20920.cyb.fits
#     BASENAME=Skynet_57528_lach-cc-74_20506_20920
#     SRC_NAME=lach-cc-74
#     OBSERVER=ccmadison16_9505
#     DATE_OBS=2016-05-20T15:49:41.750
#        OBSID=20506
#      SCANNUM=20920
#          MJD=57528.6606
#          UTC=57071
#     SCANTYPE=track
#     DATAMODE=HIRES
#     TUNEFREQ=1420.0000
# Actual_FREQ1=1420.0000
# Actual_FREQ2=1420.0000
#    LO1Tuning=6870.000
#     RFFILTER=1355_1435
#        OBSBW=-15.6250
#        NCHAN=1024 
#        FOCUS=37.0709
#           RA=20:18:08.17
#          DEC=35:46:49.12
#      RA(hrs)=20.302300
#     DEC(deg)=35.780300
#    AZIM(deg)=299.743
#    ELEV(deg)=20.112
#     IFattens=11.00, 10.00
#      WARNING=None
#    TCAL_XL1=7.9635
#    TCAL_YR1=9.1340
#    TCAL_XL2=7.9635
#    TCAL_YR2=9.1340
#     TRX_XL1=11.7060
#     TRX_YR1=11.7060
#     TRX_XL2=11.7060
#     TRX_YR2=11.7060
#        TAVE=1.0000
#Freq1(MHz)          XL1          YR1  Freq2(MHz)          XL2          YR2 

   1427.81250     328.9926     276.2067   1427.81250     328.9926     276.2067
   1427.79724     330.4132     276.9151   1427.79724     330.4132     276.9151
   1427.78198     330.2677     277.4982   1427.78198     330.2677     277.4982
   1427.76672     331.1219     278.8773   1427.76672     331.1219     278.8773
   1427.75146     331.8790     279.2960   1427.75146     331.8790     279.2960
   1427.73621     332.7974     280.2613   1427.73621     332.7974     280.2613
   1427.72095     333.4210     280.6830   1427.72095     333.4210     280.6830
   1427.70569     334.8269     281.4585   1427.70569     334.8269     281.4585
   1427.69043     335.4415     282.4693   1427.69043     335.4415     282.4693
   1427.67517     336.0618     283.4450   1427.67517     336.0618     283.4450
   1427.65991     337.1695     284.1653   1427.65991     337.1695     284.1653
   1427.64465     337.5460     285.0331   1427.64465     337.5460     285.0331
   1427.62939     338.7440     286.1006   1427.62939     338.7440     286.1006
   1427.61414     339.9001     287.3159   1427.61414     339.9001     287.3159
   1427.59888     341.5953     288.4055   1427.59888     341.5953     288.4055
   1427.58362     342.2438     289.4717   1427.58362     342.2438     289.4717
   1427.56836     343.4817     290.5310   1427.56836     343.4817     290.5310
   1427.55310     345.7711     291.8372   1427.55310     345.7711     291.8372
   1427.53784     346.5899     293.2650   1427.53784     346.5899     293.2650
   1427.52258     348.2096     294.9428   1427.52258     348.2096     294.9428
   1427.50732     349.5931     296.2186   1427.50732     349.5931     296.2186
   1427.49207     350.8167     296.8848   1427.49207     350.8167     296.8848
   1427.47681     352.2421     298.7680   1427.47681     352.2421     298.7680
   1427.46155     353.8965     299.9431   1427.46155     353.8965     299.9431
   1427.44629     355.2236     301.2599   1427.44629     355.2236     301.2599
   1427.43103     356.9450     303.9240   1427.43103     356.9450     303.9240
   1427.41577     358.3724     304.9706   1427.41577     358.3724     304.9706
   1427.40051     360.6453     305.9875   1427.40051     360.6453     305.9875
   1427.38525     362.3326     307.6351   1427.38525     362.3326     307.6351
   1427.37000     363.8653     309.7458   1427.37000     363.8653     309.7458
   1427.35474     365.2936     311.7357   1427.35474     365.2936     311.7357
   1427.33948     367.5050     313.0836   1427.33948     367.5050     313.0836
   1427.32422     369.9443     315.1106   1427.32422     369.9443     315.1106
   1427.30896     370.8693     316.7215   1427.30896     370.8693     316.7215
   1427.29370     373.5490     318.3336   1427.29370     373.5490     318.3336
   1427.27844     375.0349     320.2882   1427.27844     375.0349     320.2882
   1427.26318     377.4272     321.7864   1427.26318     377.4272     321.7864
   1427.24792     379.1751     324.0483   1427.24792     379.1751     324.0483
   1427.23267     381.1121     325.6002   1427.23267     381.1121     325.6002
   1427.21741     383.8316     327.9250   1427.21741     383.8316     327.9250
   1427.20215     385.0693     329.6506   1427.20215     385.0693     329.6506
   1427.18689     388.0290     331.5565   1427.18689     388.0290     331.5565
   1427.17163     389.8915     333.4953   1427.17163     389.8915     333.4953
   1427.15637     393.1741     335.7677   1427.15637     393.1741     335.7677
   1427.14111     394.6070     337.8729   1427.14111     394.6070     337.8729
   1427.12585     396.5033     340.1071   1427.12585     396.5033     340.1071
   1427.11060     399.3014     341.7061   1427.11060     399.3014     341.7061
   1427.09534     401.6967     343.4939   1427.09534     401.6967     343.4939
   1427.08008     404.8943     346.6595   1427.08008     404.8943     346.6595
   1427.06482     406.7886     347.4632   1427.06482     406.7886     347.4632
   1427.04956     409.4557     350.1909   1427.04956     409.4557     350.1909
   1427.03430     411.2355     352.3495   1427.03430     411.2355     352.3495
   1427.01904     414.0987     354.9360   1427.01904     414.0987     354.9360
   1427.00378     415.8253     356.8429   1427.00378     415.8253     356.8429
   1426.98853     418.6165     359.0772   1426.98853     418.6165     359.0772
   1426.97327     420.6310     361.5057   1426.97327     420.6310     361.5057
   1426.95801     423.8289     363.5392   1426.95801     423.8289     363.5392
   1426.94275     426.1405     366.0899   1426.94275     426.1405     366.0899
   1426.92749     428.5393     368.1683   1426.92749     428.5393     368.1683
   1426.91223     431.5030     370.1123   1426.91223     431.5030     370.1123
   1426.89697     433.3922     371.9681   1426.89697     433.3922     371.9681
   1426.88171     436.2918     375.2445   1426.88171     436.2918     375.2445
   1426.86646     438.7409     376.8474   1426.86646     438.7409     376.8474
   1426.85120     441.6358     380.0273   1426.85120     441.6358     380.0273
   1426.83594     443.6213     381.0928   1426.83594     443.6213     381.0928
   1426.82068     446.5720     383.9173   1426.82068     446.5720     383.9173
   1426.80542     449.9247     385.8722   1426.80542     449.9247     385.8722
   1426.79016     453.0262     388.6580   1426.79016     453.0262     388.6580
   1426.77490     455.1696     390.1766   1426.77490     455.1696     390.1766
   1426.75964     457.4343     393.0175   1426.75964     457.4343     393.0175
   1426.74438     460.2729     395.2474   1426.74438     460.2729     395.2474
   1426.72913     462.1348     397.3139   1426.72913     462.1348     397.3139
   1426.71387     464.8518     399.7389   1426.71387     464.8518     399.7389
   1426.69861     468.4495     402.2680   1426.69861     468.4495     402.2680
   1426.68335     470.1414     404.4460   1426.68335     470.1414     404.4460
   1426.66809     473.0357     406.7013   1426.66809     473.0357     406.7013
   1426.65283     476.6269     408.9628   1426.65283     476.6269     408.9628
   1426.63757     479.7379     411.2057   1426.63757     479.7379     411.2057
   1426.62231     483.5971     413.9218   1426.62231     483.5971     413.9218
   1426.60706     483.8203     415.9951   1426.60706     483.8203     415.9951
   1426.59180     486.5787     417.7366   1426.59180     486.5787     417.7366
   1426.57654     489.3404     420.9223   1426.57654     489.3404     420.9223
   1426.56128     492.6976     422.5306   1426.56128     492.6976     422.5306
   1426.54602     495.3335     424.9741   1426.54602     495.3335     424.9741
   1426.53076     497.9333     426.9710   1426.53076     497.9333     426.9710
   1426.51550     499.8946     428.9518   1426.51550     499.8946     428.9518
   1426.50024     502.2176     431.2666   1426.50024     502.2176     431.2666
   1426.48499     505.0449     433.0141   1426.48499     505.0449     433.0141
   1426.46973     507.4586     435.3303   1426.46973     507.4586     435.3303
   1426.45447     511.0933     436.9603   1426.45447     511.0933     436.9603
   1426.43921     513.0726     439.6541   1426.43921     513.0726     439.6541
   1426.42395     515.3199     441.5162   1426.42395     515.3199     441.5162
   1426.40869     518.9709     444.7848   1426.40869     518.9709     444.7848
   1426.39343     520.7855     446.0121   1426.39343     520.7855     446.0121
   1426.37817     523.7200     448.6592   1426.37817     523.7200     448.6592
   1426.36292     525.5229     449.8679   1426.36292     525.5229     449.8679
   1426.34766     527.5642     451.6869   1426.34766     527.5642     451.6869
   1426.33240     530.6694     454.0228   1426.33240     530.6694     454.0228
   1426.31714     533.1252     457.1451   1426.31714     533.1252     457.1451
   1426.30188     536.4183     457.9226   1426.30188     536.4183     457.9226
   1426.28662     538.2111     460.0641   1426.28662     538.2111     460.0641
   1426.27136     540.5416     461.7558   1426.27136     540.5416     461.7558
   1426.25610     542.9431     464.5326   1426.25610     542.9431     464.5326
   1426.24084     545.3589     465.9828   1426.24084     545.3589     465.9828
   1426.22559     547.5412     467.1988   1426.22559     547.5412     467.1988
   1426.21033     550.6248     470.0120   1426.21033     550.6248     470.0120
   1426.19507     552.5568     472.5095   1426.19507     552.5568     472.5095
   1426.17981     553.9545     473.1352   1426.17981     553.9545     473.1352
   1426.16455     557.7430     475.6080   1426.16455     557.7430     475.6080
   1426.14929     559.7446     477.5969   1426.14929     559.7446     477.5969
   1426.13403     562.5597     479.0811   1426.13403     562.5597     479.0811
   1426.11877     564.0594     480.9506   1426.11877     564.0594     480.9506
   1426.10352     567.2109     482.5587   1426.10352     567.2109     482.5587
   1426.08826     568.2228     484.3715   1426.08826     568.2228     484.3715
   1426.07300     571.3844     485.7854   1426.07300     571.3844     485.7854
   1426.05774     572.3492     487.5183   1426.05774     572.3492     487.5183
   1426.04248     574.4429     489.2750   1426.04248     574.4429     489.2750
   1426.02722     576.8901     490.3743   1426.02722     576.8901     490.3743
   1426.01196     578.9096     492.6095   1426.01196     578.9096     492.6095
   1425.99670     581.0303     494.5656   1425.99670     581.0303     494.5656
   1425.98145     583.5016     496.1259   1425.98145     583.5016     496.1259
   1425.96619     585.7308     496.8989   1425.96619     585.7308     496.8989
   1425.95093     587.0166     499.6582   1425.95093     587.0166     499.6582
   1425.93567     588.9961     501.3644   1425.93567     588.9961     501.3644
   1425.92041     590.7015     502.1357   1425.92041     590.7015     502.1357
   1425.90515     593.2764     504.1531   1425.90515     593.2764     504.1531
   1425.88989     595.1671     505.8525   1425.88989     595.1671     505.8525
   1425.87463     596.1660     506.4104   1425.87463     596.1660     506.4104
   1425.85938     599.0035     508.4766   1425.85938     599.0035     508.4766
   1425.84412     599.7612     509.0070   1425.84412     599.7612     509.0070
   1425.82886     602.4514     511.2501   1425.82886     602.4514     511.2501
   1425.81360     603.1961     513.1547   1425.81360     603.1961     513.1547
   1425.79834     605.0837     513.3658   1425.79834     605.0837     513.3658
   1425.78308     607.2722     514.4879   1425.78308     607.2722     514.4879
   1425.76782     608.0304     516.9913   1425.76782     608.0304     516.9913
   1425.75256     610.1990     517.5296   1425.75256     610.1990     517.5296
   1425.73730     612.3423     518.9207   1425.73730     612.3423     518.9207
   1425.72205     613.0381     520.9072   1425.72205     613.0381     520.9072
   1425.70679     615.0118     522.3508   1425.70679     615.0118     522.3508
   1425.69153     616.3922     523.7283   1425.69153     616.3922     523.7283
   1425.67627     618.5124     525.1770   1425.67627     618.5124     525.1770
   1425.66101     619.4703     525.5441   1425.66101     619.4703     525.5441
   1425.64575     620.7796     527.1121   1425.64575     620.7796     527.1121
   1425.63049     621.6898     528.2805   1425.63049     621.6898     528.2805
   1425.61523     623.7890     529.6129   1425.61523     623.7890     529.6129
   1425.59998     625.0184     530.8690   1425.59998     625.0184     530.8690
   1425.58472     625.9958     532.4274   1425.58472     625.9958     532.4274
   1425.56946     627.7128     532.7363   1425.56946     627.7128     532.7363
   1425.55420     628.7389     534.0324   1425.55420     628.7389     534.0324
   1425.53894     630.6566     535.7184   1425.53894     630.6566     535.7184
   1425.52368     631.9106     536.6921   1425.52368     631.9106     536.6921
   1425.50842     633.1910     537.7359   1425.50842     633.1910     537.7359
   1425.49316     633.2138     539.0592   1425.49316     633.2138     539.0592
   1425.47791     635.6019     540.3593   1425.47791     635.6019     540.3593
   1425.46265     635.6832     540.6542   1425.46265     635.6832     540.6542
   1425.44739     637.7316     542.0728   1425.44739     637.7316     542.0728
   1425.43213     637.8124     543.2532   1425.43213     637.8124     543.2532
   1425.41687     639.2320     544.9657   1425.41687     639.2320     544.9657
   1425.40161     640.7700     545.1693   1425.40161     640.7700     545.1693
   1425.38635     641.8256     545.1817   1425.38635     641.8256     545.1817
   1425.37109     642.4294     547.3794   1425.37109     642.4294     547.3794
   1425.35583     642.9628     548.2078   1425.35583     642.9628     548.2078
   1425.34058     644.4987     548.8918   1425.34058     644.4987     548.8918
   1425.32532     644.4863     549.6406   1425.32532     644.4863     549.6406
   1425.31006     646.0621     551.4138   1425.31006     646.0621     551.4138
   1425.29480     646.5237     551.0989   1425.29480     646.5237     551.0989
   1425.27954     647.9754     553.7130   1425.27954     647.9754     553.7130
   1425.26428     648.4995     554.3132   1425.26428     648.4995     554.3132
   1425.24902     649.1683     554.6498   1425.24902     649.1683     554.6498
   1425.23376     648.9034     556.2153   1425.23376     648.9034     556.2153
   1425.21851     650.5141     557.6642   1425.21851     650.5141     557.6642
   1425.20325     652.7147     557.8057   1425.20325     652.7147     557.8057
   1425.18799     651.9733     558.7694   1425.18799     651.9733     558.7694
   1425.17273     652.9568     560.3950   1425.17273     652.9568     560.3950
   1425.15747     652.4612     561.4823   1425.15747     652.4612     561.4823
   1425.14221     653.9237     561.5569   1425.14221     653.9237     561.5569
   1425.12695     654.9127     561.6137   1425.12695     654.9127     561.6137
   1425.11169     654.9252     562.4062   1425.11169     654.9252     562.4062
   1425.09644     656.2241     564.1198   1425.09644     656.2241     564.1198
   1425.08118     656.3291     564.8861   1425.08118     656.3291     564.8861
   1425.06592     656.9125     565.7442   1425.06592     656.9125     565.7442
   1425.05066     656.9449     566.4127   1425.05066     656.9449     566.4127
   1425.03540     658.4299     568.2720   1425.03540     658.4299     568.2720
   1425.02014     657.9683     567.9645   1425.02014     657.9683     567.9645
   1425.00488     658.7663     568.1926   1425.00488     658.7663     568.1926
   1424.98962     658.8377     569.6347   1424.98962     658.8377     569.6347
   1424.97437     660.5067     570.7488   1424.97437     660.5067     570.7488
   1424.95911     660.7754     570.5784   1424.95911     660.7754     570.5784
   1424.94385     659.9315     572.5331   1424.94385     659.9315     572.5331
   1424.92859     660.2723     573.0848   1424.92859     660.2723     573.0848
   1424.91333     660.8625     574.1135   1424.91333     660.8625     574.1135
   1424.89807     660.8052     574.7567   1424.89807     660.8052     574.7567
   1424.88281     661.2702     575.2343   1424.88281     661.2702     575.2343
   1424.86755     661.5176     576.3472   1424.86755     661.5176     576.3472
   1424.85229     663.1946     576.5695   1424.85229     663.1946     576.5695
   1424.83704     662.3715     576.6495   1424.83704     662.3715     576.6495
   1424.82178     662.6543     577.7008   1424.82178     662.6543     577.7008
   1424.80652     662.4016     577.7863   1424.80652     662.4016     577.7863
   1424.79126     663.6329     579.0520   1424.79126     663.6329     579.0520
   1424.77600     663.1997     579.4739   1424.77600     663.1997     579.4739
   1424.76074     662.6944     580.9056   1424.76074     662.6944     580.9056
   1424.74548     663.3054     580.6964   1424.74548     663.3054     580.6964
   1424.73022     663.1616     581.5059   1424.73022     663.1616     581.5059
   1424.71497     663.7881     583.0646   1424.71497     663.7881     583.0646
   1424.69971     663.6921     583.5836   1424.69971     663.6921     583.5836
   1424.68445     664.1678     583.7155   1424.68445     664.1678     583.7155
   1424.66919     664.1637     584.3356   1424.66919     664.1637     584.3356
   1424.65393     664.9449     586.1549   1424.65393     664.9449     586.1549
   1424.63867     663.5889     586.0281   1424.63867     663.5889     586.0281
   1424.62341     663.8335     587.1710   1424.62341     663.8335     587.1710
   1424.60815     664.4584     588.3223   1424.60815     664.4584     588.3223
   1424.59290     664.3050     588.7624   1424.59290     664.3050     588.7624
   1424.57764     664.8191     588.9090   1424.57764     664.8191     588.9090
   1424.56238     665.5244     590.0201   1424.56238     665.5244     590.0201
   1424.54712     664.3456     590.4426   1424.54712     664.3456     590.4426
   1424.53186     664.0925     591.4772   1424.53186     664.0925     591.4772
   1424.51660     664.0941     591.0210   1424.51660     664.0941     591.0210
   1424.50134     665.0464     592.1845   1424.50134     665.0464     592.1845
   1424.48608     665.4699     593.8543   1424.48608     665.4699     593.8543
   1424.47083     664.7859     593.8535   1424.47083     664.7859     593.8535
   1424.45557     664.0244     593.9611   1424.45557     664.0244     593.9611
   1424.44031     665.6993     595.4565   1424.44031     665.6993     595.4565
   1424.42505     663.7189     595.4968   1424.42505     663.7189     595.4968
   1424.40979     664.2654     596.6552   1424.40979     664.2654     596.6552
   1424.39453     665.1773     598.0660   1424.39453     665.1773     598.0660
   1424.37927     664.5234     597.4927   1424.37927     664.5234     597.4927
   1424.36401     664.3179     598.9379   1424.36401     664.3179     598.9379
   1424.34875     663.0082     600.0909   1424.34875     663.0082     600.0909
   1424.33350     663.6696     599.9460   1424.33350     663.6696     599.9460
   1424.31824     664.7758     601.1174   1424.31824     664.7758     601.1174
   1424.30298     664.0918     601.4673   1424.30298     664.0918     601.4673
   1424.28772     663.4837     601.6454   1424.28772     663.4837     601.6454
   1424.27246     664.6493     602.6118   1424.27246     664.6493     602.6118
   1424.25720     663.1168     603.4144   1424.25720     663.1168     603.4144
   1424.24194     664.2173     604.2618   1424.24194     664.2173     604.2618
   1424.22668     663.2717     605.0467   1424.22668     663.2717     605.0467
   1424.21143     664.5323     605.4672   1424.21143     664.5323     605.4672
   1424.19617     663.2683     606.4239   1424.19617     663.2683     606.4239
   1424.18091     663.9185     606.5367   1424.18091     663.9185     606.5367
   1424.16565     664.3964     607.1938   1424.16565     664.3964     607.1938
   1424.15039     663.9632     606.8705   1424.15039     663.9632     606.8705
   1424.13513     663.2739     608.6034   1424.13513     663.2739     608.6034
   1424.11987     662.7123     608.8917   1424.11987     662.7123     608.8917
   1424.10461     661.7610     610.4510   1424.10461     661.7610     610.4510
   1424.08936     662.3469     610.4117   1424.08936     662.3469     610.4117
   1424.07410     662.3994     610.7859   1424.07410     662.3994     610.7859
   1424.05884     660.8190     611.4852   1424.05884     660.8190     611.4852
   1424.04358     661.7019     612.7271   1424.04358     661.7019     612.7271
   1424.02832     661.8282     612.4559   1424.02832     661.8282     612.4559
   1424.01306     662.2014     613.3726   1424.01306     662.2014     613.3726
   1423.99780     662.2017     614.2933   1423.99780     662.2017     614.2933
   1423.98254     660.7266     614.7819   1423.98254     660.7266     614.7819
   1423.96729     661.7278     614.8856   1423.96729     661.7278     614.8856
   1423.95203     661.8866     615.3629   1423.95203     661.8866     615.3629
   1423.93677     661.3247     616.8806   1423.93677     661.3247     616.8806
   1423.92151     660.2349     617.4466   1423.92151     660.2349     617.4466
   1423.90625     662.0365     617.7368   1423.90625     662.0365     617.7368
   1423.89099     660.9241     618.4426   1423.89099     660.9241     618.4426
   1423.87573     661.4210     620.0273   1423.87573     661.4210     620.0273
   1423.86047     661.1077     619.2488   1423.86047     661.1077     619.2488
   1423.84521     659.3265     620.5951   1423.84521     659.3265     620.5951
   1423.82996     659.9728     621.3893   1423.82996     659.9728     621.3893
   1423.81470     661.0876     621.6553   1423.81470     661.0876     621.6553
   1423.79944     660.3201     622.8173   1423.79944     660.3201     622.8173
   1423.78418     659.3930     623.0114   1423.78418     659.3930     623.0114
   1423.76892     659.9504     622.3071   1423.76892     659.9504     622.3071
   1423.75366     658.9277     623.8284   1423.75366     658.9277     623.8284
   1423.73840     660.7791     624.1646   1423.73840     660.7791     624.1646
   1423.72314     658.0884     625.2126   1423.72314     658.0884     625.2126
   1423.70789     659.3333     625.6757   1423.70789     659.3333     625.6757
   1423.69263     657.8185     626.2599   1423.69263     657.8185     626.2599
   1423.67737     658.2064     626.6339   1423.67737     658.2064     626.6339
   1423.66211     658.5034     627.4822   1423.66211     658.5034     627.4822
   1423.64685     657.4432     627.4484   1423.64685     657.4432     627.4484
   1423.63159     658.2948     627.7188   1423.63159     658.2948     627.7188
   1423.61633     657.5696     628.1845   1423.61633     657.5696     628.1845
   1423.60107     657.8002     630.3196   1423.60107     657.8002     630.3196
   1423.58582     657.1630     629.1342   1423.58582     657.1630     629.1342
   1423.57056     657.4389     628.9887   1423.57056     657.4389     628.9887
   1423.55530     656.8281     629.9127   1423.55530     656.8281     629.9127
   1423.54004     655.6993     629.9454   1423.54004     655.6993     629.9454
   1423.52478     656.5672     630.1312   1423.52478     656.5672     630.1312
   1423.50952     656.0110     631.1536   1423.50952     656.0110     631.1536
   1423.49426     656.7699     632.4779   1423.49426     656.7699     632.4779
   1423.47900     656.4473     632.6567   1423.47900     656.4473     632.6567
   1423.46375     655.5508     632.9623   1423.46375     655.5508     632.9623
   1423.44849     656.0732     632.7269   1423.44849     656.0732     632.7269
   1423.43323     655.2974     633.8265   1423.43323     655.2974     633.8265
   1423.41797     655.1225     633.3588   1423.41797     655.1225     633.3588
   1423.40271     655.7405     634.6956   1423.40271     655.7405     634.6956
   1423.38745     655.0594     634.4636   1423.38745     655.0594     634.4636
   1423.37219     655.2558     635.3757   1423.37219     655.2558     635.3757
   1423.35693     654.9402     634.1050   1423.35693     654.9402     634.1050
   1423.34167     653.7625     634.8976   1423.34167     653.7625     634.8976
   1423.32642     653.7848     635.4771   1423.32642     653.7848     635.4771
   1423.31116     653.4575     636.3257   1423.31116     653.4575     636.3257
   1423.29590     653.6388     635.6721   1423.29590     653.6388     635.6721
   1423.28064     654.2208     636.5605   1423.28064     654.2208     636.5605
   1423.26538     654.2256     636.7744   1423.26538     654.2256     636.7744
   1423.25012     652.6962     636.2634   1423.25012     652.6962     636.2634
   1423.23486     653.6796     637.0464   1423.23486     653.6796     637.0464
   1423.21960     652.7679     636.9775   1423.21960     652.7679     636.9775
   1423.20435     652.9677     636.7134   1423.20435     652.9677     636.7134
   1423.18909     652.7958     637.0970   1423.18909     652.7958     637.0970
   1423.17383     653.0688     636.5757   1423.17383     653.0688     636.5757
   1423.15857     653.3608     637.2922   1423.15857     653.3608     637.2922
   1423.14331     651.6022     637.1974   1423.14331     651.6022     637.1974
   1423.12805     652.3908     637.2321   1423.12805     652.3908     637.2321
   1423.11279     651.9355     637.4745   1423.11279     651.9355     637.4745
   1423.09753     652.3367     636.4014   1423.09753     652.3367     636.4014
   1423.08228     650.6290     637.3396   1423.08228     650.6290     637.3396
   1423.06702     650.9677     638.0930   1423.06702     650.9677     638.0930
   1423.05176     650.4784     636.8424   1423.05176     650.4784     636.8424
   1423.03650     650.6019     636.2733   1423.03650     650.6019     636.2733
   1423.02124     650.0632     636.5918   1423.02124     650.0632     636.5918
   1423.00598     650.4743     637.0398   1423.00598     650.4743     637.0398
   1422.99072     649.8909     637.1316   1422.99072     649.8909     637.1316
   1422.97546     649.3702     636.4062   1422.97546     649.3702     636.4062
   1422.96021     648.6318     636.6601   1422.96021     648.6318     636.6601
   1422.94495     649.5063     635.1470   1422.94495     649.5063     635.1470
   1422.92969     649.4634     636.5820   1422.92969     649.4634     636.5820
   1422.91443     649.5891     635.0854   1422.91443     649.5891     635.0854
   1422.89917     649.5198     635.6156   1422.89917     649.5198     635.6156
   1422.88391     649.2256     634.6599   1422.88391     649.2256     634.6599
   1422.86865     648.0319     634.7945   1422.86865     648.0319     634.7945
   1422.85339     648.4233     633.9376   1422.85339     648.4233     633.9376
   1422.83813     648.0187     634.0745   1422.83813     648.0187     634.0745
   1422.82288     648.2392     633.2258   1422.82288     648.2392     633.2258
   1422.80762     648.0240     633.7191   1422.80762     648.0240     633.7191
   1422.79236     647.6602     632.4415   1422.79236     647.6602     632.4415
   1422.77710     647.3945     632.2725   1422.77710     647.3945     632.2725
   1422.76184     646.5685     632.3057   1422.76184     646.5685     632.3057
   1422.74658     646.6113     631.8127   1422.74658     646.6113     631.8127
   1422.73132     647.0280     631.7534   1422.73132     647.0280     631.7534
   1422.71606     645.9089     630.0957   1422.71606     645.9089     630.0957
   1422.70081     646.0695     629.0709   1422.70081     646.0695     629.0709
   1422.68555     646.5209     628.9616   1422.68555     646.5209     628.9616
   1422.67029     645.8919     628.4674   1422.67029     645.8919     628.4674
   1422.65503     645.6923     628.4846   1422.65503     645.6923     628.4846
   1422.63977     645.6832     627.1281   1422.63977     645.6832     627.1281
   1422.62451     644.9878     626.9865   1422.62451     644.9878     626.9865
   1422.60925     645.5429     625.0444   1422.60925     645.5429     625.0444
   1422.59399     644.6768     625.8231   1422.59399     644.6768     625.8231
   1422.57874     643.0191     624.8357   1422.57874     643.0191     624.8357
   1422.56348     643.8328     622.8481   1422.56348     643.8328     622.8481
   1422.54822     644.0916     622.5475   1422.54822     644.0916     622.5475
   1422.53296     644.8948     621.7455   1422.53296     644.8948     621.7455
   1422.51770     642.9777     621.8370   1422.51770     642.9777     621.8370
   1422.50244     643.4505     620.8257   1422.50244     643.4505     620.8257
   1422.48718     642.5506     619.2186   1422.48718     642.5506     619.2186
   1422.47192     643.7982     618.7598   1422.47192     643.7982     618.7598
   1422.45667     641.5969     616.7956   1422.45667     641.5969     616.7956
   1422.44141     641.8950     617.2698   1422.44141     641.8950     617.2698
   1422.42615     643.3747     615.5146   1422.42615     643.3747     615.5146
   1422.41089     642.3426     614.2778   1422.41089     642.3426     614.2778
   1422.39563     641.9796     613.3661   1422.39563     641.9796     613.3661
   1422.38037     641.3089     613.0070   1422.38037     641.3089     613.0070
   1422.36511     640.7202     611.5045   1422.36511     640.7202     611.5045
   1422.34985     641.0627     610.3516   1422.34985     641.0627     610.3516
   1422.33459     640.7102     608.9629   1422.33459     640.7102     608.9629
   1422.31934     640.2941     609.5742   1422.31934     640.2941     609.5742
   1422.30408     639.5135     607.3466   1422.30408     639.5135     607.3466
   1422.28882     640.8954     605.8906   1422.28882     640.8954     605.8906
   1422.27356     640.5541     604.6907   1422.27356     640.5541     604.6907
   1422.25830     640.1463     604.6232   1422.25830     640.1463     604.6232
   1422.24304     640.5319     603.2861   1422.24304     640.5319     603.2861
   1422.22778     638.9751     601.2816   1422.22778     638.9751     601.2816
   1422.21252     639.1742     601.2204   1422.21252     639.1742     601.2204
   1422.19727     639.6271     599.6617   1422.19727     639.6271     599.6617
   1422.18201     638.8220     597.7794   1422.18201     638.8220     597.7794
   1422.16675     637.8803     597.0328   1422.16675     637.8803     597.0328
   1422.15149     637.0760     594.9528   1422.15149     637.0760     594.9528
   1422.13623     638.8174     594.4547   1422.13623     638.8174     594.4547
   1422.12097     638.5142     592.8276   1422.12097     638.5142     592.8276
   1422.10571     637.3618     591.7644   1422.10571     637.3618     591.7644
   1422.09045     637.0714     590.2081   1422.09045     637.0714     590.2081
   1422.07520     637.3267     588.7333   1422.07520     637.3267     588.7333
   1422.05994     637.9756     587.3719   1422.05994     637.9756     587.3719
   1422.04468     636.3586     586.2388   1422.04468     636.3586     586.2388
   1422.02942     635.3933     584.5580   1422.02942     635.3933     584.5580
   1422.01416     635.6009     584.0971   1422.01416     635.6009     584.0971
   1421.99890     635.7290     582.0375   1421.99890     635.7290     582.0375
   1421.98364     635.4031     580.0862   1421.98364     635.4031     580.0862
   1421.96838     635.4487     579.3074   1421.96838     635.4487     579.3074
   1421.95312     635.2753     576.7629   1421.95312     635.2753     576.7629
   1421.93787     635.2828     576.1939   1421.93787     635.2828     576.1939
   1421.92261     635.6827     574.5560   1421.92261     635.6827     574.5560
   1421.90735     634.6967     573.8521   1421.90735     634.6967     573.8521
   1421.89209     634.7692     571.5960   1421.89209     634.7692     571.5960
   1421.87683     634.6686     570.8762   1421.87683     634.6686     570.8762
   1421.86157     634.0977     568.1998   1421.86157     634.0977     568.1998
   1421.84631     634.3447     567.7374   1421.84631     634.3447     567.7374
   1421.83105     634.0184     566.0601   1421.83105     634.0184     566.0601
   1421.81580     632.9592     564.1011   1421.81580     632.9592     564.1011
   1421.80054     632.7881     563.0807   1421.80054     632.7881     563.0807
   1421.78528     633.0553     561.6801   1421.78528     633.0553     561.6801
   1421.77002     632.4583     560.2115   1421.77002     632.4583     560.2115
   1421.75476     632.0911     558.5458   1421.75476     632.0911     558.5458
   1421.73950     632.0097     556.9008   1421.73950     632.0097     556.9008
   1421.72424     632.1621     554.7977   1421.72424     632.1621     554.7977
   1421.70898     631.3935     553.4251   1421.70898     631.3935     553.4251
   1421.69373     631.8851     552.7966   1421.69373     631.8851     552.7966
   1421.67847     630.8671     550.5567   1421.67847     630.8671     550.5567
   1421.66321     630.9312     549.0627   1421.66321     630.9312     549.0627
   1421.64795     631.5494     547.6767   1421.64795     631.5494     547.6767
   1421.63269     630.2268     545.6064   1421.63269     630.2268     545.6064
   1421.61743     631.4863     545.6306   1421.61743     631.4863     545.6306
   1421.60217     630.2343     543.1208   1421.60217     630.2343     543.1208
   1421.58691     630.3853     540.3651   1421.58691     630.3853     540.3651
   1421.57166     629.3626     539.4619   1421.57166     629.3626     539.4619
   1421.55640     630.1326     538.5515   1421.55640     630.1326     538.5515
   1421.54114     629.8616     537.2087   1421.54114     629.8616     537.2087
   1421.52588     629.2746     535.8159   1421.52588     629.2746     535.8159
   1421.51062     628.6014     533.0878   1421.51062     628.6014     533.0878
   1421.49536     629.4444     531.6096   1421.49536     629.4444     531.6096
   1421.48010     628.8383     531.3247   1421.48010     628.8383     531.3247
   1421.46484     628.8077     528.2682   1421.46484     628.8077     528.2682
   1421.44958     629.1027     526.8563   1421.44958     629.1027     526.8563
   1421.43433     628.3264     525.3972   1421.43433     628.3264     525.3972
   1421.41907     628.5321     524.3061   1421.41907     628.5321     524.3061
   1421.40381     627.9564     522.5470   1421.40381     627.9564     522.5470
   1421.38855     627.7495     520.7347   1421.38855     627.7495     520.7347
   1421.37329     628.7707     519.5000   1421.37329     628.7707     519.5000
   1421.35803     628.0306     517.7667   1421.35803     628.0306     517.7667
   1421.34277     626.9579     516.7651   1421.34277     626.9579     516.7651
   1421.32751     628.2734     515.3218   1421.32751     628.2734     515.3218
   1421.31226     627.1236     513.4628   1421.31226     627.1236     513.4628
   1421.29700     628.4673     511.8468   1421.29700     628.4673     511.8468
   1421.28174     627.1249     511.0921   1421.28174     627.1249     511.0921
   1421.26648     628.0200     509.9191   1421.26648     628.0200     509.9191
   1421.25122     628.7733     508.3348   1421.25122     628.7733     508.3348
   1421.23596     629.0723     507.5793   1421.23596     629.0723     507.5793
   1421.22070     630.3169     507.8480   1421.22070     630.3169     507.8480
   1421.20544     637.6500     511.0887   1421.20544     637.6500     511.0887
   1421.19019     644.2231     515.2192   1421.19019     644.2231     515.2192
   1421.17493     647.6442     515.1179   1421.17493     647.6442     515.1179
   1421.15967     645.6699     512.9814   1421.15967     645.6699     512.9814
   1421.14441     640.8201     507.5476   1421.14441     640.8201     507.5476
   1421.12915     639.3640     504.3441   1421.12915     639.3640     504.3441
   1421.11389     639.0646     502.8408   1421.11389     639.0646     502.8408
   1421.09863     640.1809     502.5756   1421.09863     640.1809     502.5756
   1421.08337     642.1124     503.0322   1421.08337     642.1124     503.0322
   1421.06812     645.7267     504.5620   1421.06812     645.7267     504.5620
   1421.05286     651.8847     507.8771   1421.05286     651.8847     507.8771
   1421.03760     662.2122     514.8849   1421.03760     662.2122     514.8849
   1421.02234     687.1572     530.1619   1421.02234     687.1572     530.1619
   1421.00708     732.6125     561.0028   1421.00708     732.6125     561.0028
   1420.99182     810.2380     616.9255   1420.99182     810.2380     616.9255
   1420.97656     908.4546     688.2220   1420.97656     908.4546     688.2220
   1420.96130     987.9421     742.3469   1420.96130     987.9421     742.3469
   1420.94604    1057.0468     790.9337   1420.94604    1057.0468     790.9337
   1420.93079    1121.4559     833.8693   1420.93079    1121.4559     833.8693
   1420.91553    1164.6112     860.0409   1420.91553    1164.6112     860.0409
   1420.90027    1191.3008     877.5181   1420.90027    1191.3008     877.5181
   1420.88501    1140.7706     839.6636   1420.88501    1140.7706     839.6636
   1420.86975    1058.4868     780.3331   1420.86975    1058.4868     780.3331
   1420.85449    1036.1250     762.3286   1420.85449    1036.1250     762.3286
   1420.83923    1094.1295     800.4231   1420.83923    1094.1295     800.4231
   1420.82397    1108.1940     805.9067   1420.82397    1108.1940     805.9067
   1420.80872     973.8030     709.1144   1420.80872     973.8030     709.1144
   1420.79346     837.2631     614.5859   1420.79346     837.2631     614.5859
   1420.77820     795.4533     584.6453   1420.77820     795.4533     584.6453
   1420.76294     802.6686     588.0517   1420.76294     802.6686     588.0517
   1420.74768     845.1394     614.0475   1420.74768     845.1394     614.0475
   1420.73242     968.5941     697.5287   1420.73242     968.5941     697.5287
   1420.71716    1156.4431     824.4425   1420.71716    1156.4431     824.4425
   1420.70190    1224.5067     871.6581   1420.70190    1224.5067     871.6581
   1420.68665    1215.0627     860.3293   1420.68665    1215.0627     860.3293
   1420.67139    1213.3530     856.3687   1420.67139    1213.3530     856.3687
   1420.65613    1251.2767     877.2617   1420.65613    1251.2767     877.2617
   1420.64087    1354.4091     943.6155   1420.64087    1354.4091     943.6155
   1420.62561    1430.4122     995.8828   1420.62561    1430.4122     995.8828
   1420.61035    1529.4476    1059.8635   1420.61035    1529.4476    1059.8635
   1420.59509    1805.8149    1245.8215   1420.59509    1805.8149    1245.8215
   1420.57983    2137.3955    1466.1663   1420.57983    2137.3955    1466.1663
   1420.56458    2344.7822    1599.9396   1420.56458    2344.7822    1599.9396
   1420.54932    2311.1902    1575.4595   1420.54932    2311.1902    1575.4595
   1420.53406    2216.4558    1508.4139   1420.53406    2216.4558    1508.4139
   1420.51880    1845.8951    1255.5647   1420.51880    1845.8951    1255.5647
   1420.50354    1403.0015     957.4161   1420.50354    1403.0015     957.4161
   1420.48828    1061.9227     730.7994   1420.48828    1061.9227     730.7994
   1420.47302     840.5925     584.1632   1420.47302     840.5925     584.1632
   1420.45776     739.7911     516.1857   1420.45776     739.7911     516.1857
   1420.44250     688.6478     481.8998   1420.44250     688.6478     481.8998
   1420.42725     661.6970     462.7702   1420.42725     661.6970     462.7702
   1420.41199     648.1038     452.6899   1420.41199     648.1038     452.6899
   1420.39673     641.0578     446.2452   1420.39673     641.0578     446.2452
   1420.38147     637.3088     442.1387   1420.38147     637.3088     442.1387
   1420.36621     634.2263     439.2563   1420.36621     634.2263     439.2563
   1420.35095     633.0745     437.4327   1420.35095     633.0745     437.4327
   1420.33569     632.6956     435.1561   1420.33569     632.6956     435.1561
   1420.32043     631.0742     434.2612   1420.32043     631.0742     434.2612
   1420.30518     632.3618     433.1240   1420.30518     632.3618     433.1240
   1420.28992     630.7800     433.0150   1420.28992     630.7800     433.0150
   1420.27466     631.0875     431.0168   1420.27466     631.0875     431.0168
   1420.25940     630.2878     430.7753   1420.25940     630.2878     430.7753
   1420.24414     629.6463     428.8651   1420.24414     629.6463     428.8651
   1420.22888     628.4153     426.8633   1420.22888     628.4153     426.8633
   1420.21362     626.2229     424.8475   1420.21362     626.2229     424.8475
   1420.19836     625.7960     423.3097   1420.19836     625.7960     423.3097
   1420.18311     625.0452     422.0197   1420.18311     625.0452     422.0197
   1420.16785     624.3842     421.3842   1420.16785     624.3842     421.3842
   1420.15259     622.8254     420.0806   1420.15259     622.8254     420.0806
   1420.13733     623.4696     419.5370   1420.13733     623.4696     419.5370
   1420.12207     622.1153     417.7185   1420.12207     622.1153     417.7185
   1420.10681     622.0334     417.0295   1420.10681     622.0334     417.0295
   1420.09155     622.2661     415.9137   1420.09155     622.2661     415.9137
   1420.07629     621.3483     414.7765   1420.07629     621.3483     414.7765
   1420.06104     622.5293     414.2086   1420.06104     622.5293     414.2086
   1420.04578     621.5628     413.6361   1420.04578     621.5628     413.6361
   1420.03052     622.7292     412.6251   1420.03052     622.7292     412.6251
   1420.01526     622.7475     412.0842   1420.01526     622.7475     412.0842
   1420.00000     623.6038     412.7029   1420.00000     623.6038     412.7029
   1419.98474     624.4601     413.3218   1419.98474     624.4601     413.3218
   1419.96948     624.7776     410.8447   1419.96948     624.7776     410.8447
   1419.95422     622.8374     409.3920   1419.95422     622.8374     409.3920
   1419.93896     621.9924     408.7813   1419.93896     621.9924     408.7813
   1419.92371     622.8098     408.0369   1419.92371     622.8098     408.0369
   1419.90845     622.6364     407.3813   1419.90845     622.6364     407.3813
   1419.89319     623.0952     406.6758   1419.89319     623.0952     406.6758
   1419.87793     623.1840     406.8470   1419.87793     623.1840     406.8470
   1419.86267     624.0083     405.5609   1419.86267     624.0083     405.5609
   1419.84741     623.9196     405.8419   1419.84741     623.9196     405.8419
   1419.83215     624.4048     404.5350   1419.83215     624.4048     404.5350
   1419.81689     624.1036     405.2548   1419.81689     624.1036     405.2548
   1419.80164     625.4583     404.0809   1419.80164     625.4583     404.0809
   1419.78638     625.1921     403.7845   1419.78638     625.1921     403.7845
   1419.77112     625.2333     403.3523   1419.77112     625.2333     403.3523
   1419.75586     625.3824     402.2084   1419.75586     625.3824     402.2084
   1419.74060     626.3084     402.2273   1419.74060     626.3084     402.2273
   1419.72534     626.1751     401.9188   1419.72534     626.1751     401.9188
   1419.71008     626.4349     401.7837   1419.71008     626.4349     401.7837
   1419.69482     627.3716     401.4364   1419.69482     627.3716     401.4364
   1419.67957     626.3635     400.1796   1419.67957     626.3635     400.1796
   1419.66431     627.6647     400.0809   1419.66431     627.6647     400.0809
   1419.64905     627.3055     399.2288   1419.64905     627.3055     399.2288
   1419.63379     628.4799     399.5809   1419.63379     628.4799     399.5809
   1419.61853     629.7230     399.2567   1419.61853     629.7230     399.2567
   1419.60327     628.7932     399.0345   1419.60327     628.7932     399.0345
   1419.58801     628.9106     398.4114   1419.58801     628.9106     398.4114
   1419.57275     629.7504     397.6422   1419.57275     629.7504     397.6422
   1419.55750     630.0737     398.2973   1419.55750     630.0737     398.2973
   1419.54224     629.7265     397.8324   1419.54224     629.7265     397.8324
   1419.52698     631.1110     397.5304   1419.52698     631.1110     397.5304
   1419.51172     631.1815     397.1252   1419.51172     631.1815     397.1252
   1419.49646     632.1259     397.0822   1419.49646     632.1259     397.0822
   1419.48120     631.8384     397.0041   1419.48120     631.8384     397.0041
   1419.46594     632.7498     396.6216   1419.46594     632.7498     396.6216
   1419.45068     632.6027     396.4945   1419.45068     632.6027     396.4945
   1419.43542     632.5523     396.8123   1419.43542     632.5523     396.8123
   1419.42017     633.1013     395.8402   1419.42017     633.1013     395.8402
   1419.40491     633.9745     396.8089   1419.40491     633.9745     396.8089
   1419.38965     634.2979     396.1193   1419.38965     634.2979     396.1193
   1419.37439     635.0589     395.7982   1419.37439     635.0589     395.7982
   1419.35913     635.2792     395.2913   1419.35913     635.2792     395.2913
   1419.34387     635.7998     395.4339   1419.34387     635.7998     395.4339
   1419.32861     635.7778     396.1035   1419.32861     635.7778     396.1035
   1419.31335     636.9505     395.2307   1419.31335     636.9505     395.2307
   1419.29810     636.6147     395.6234   1419.29810     636.6147     395.6234
   1419.28284     637.4008     395.7944   1419.28284     637.4008     395.7944
   1419.26758     638.0314     395.9602   1419.26758     638.0314     395.9602
   1419.25232     638.0831     395.5035   1419.25232     638.0831     395.5035
   1419.23706     639.0623     395.4095   1419.23706     639.0623     395.4095
   1419.22180     639.3376     395.2854   1419.22180     639.3376     395.2854
   1419.20654     640.6747     394.9102   1419.20654     640.6747     394.9102
   1419.19128     640.3387     395.4041   1419.19128     640.3387     395.4041
   1419.17603     640.5144     395.3757   1419.17603     640.5144     395.3757
   1419.16077     640.8885     394.9299   1419.16077     640.8885     394.9299
   1419.14551     641.8472     395.3101   1419.14551     641.8472     395.3101
   1419.13025     641.7355     394.9618   1419.13025     641.7355     394.9618
   1419.11499     642.5262     395.6201   1419.11499     642.5262     395.6201
   1419.09973     642.6907     395.4876   1419.09973     642.6907     395.4876
   1419.08447     643.5350     395.9767   1419.08447     643.5350     395.9767
   1419.06921     643.3792     395.7457   1419.06921     643.3792     395.7457
   1419.05396     644.2978     395.0757   1419.05396     644.2978     395.0757
   1419.03870     644.9669     395.7745   1419.03870     644.9669     395.7745
   1419.02344     645.1526     396.1521   1419.02344     645.1526     396.1521
   1419.00818     646.8795     395.0763   1419.00818     646.8795     395.0763
   1418.99292     647.1427     396.3146   1418.99292     647.1427     396.3146
   1418.97766     647.4785     396.4392   1418.97766     647.4785     396.4392
   1418.96240     647.4794     396.8457   1418.96240     647.4794     396.8457
   1418.94714     648.6900     396.0227   1418.94714     648.6900     396.0227
   1418.93188     649.5836     396.4460   1418.93188     649.5836     396.4460
   1418.91663     650.1431     396.8102   1418.91663     650.1431     396.8102
   1418.90137     651.0533     397.5535   1418.90137     651.0533     397.5535
   1418.88611     652.1696     397.5143   1418.88611     652.1696     397.5143
   1418.87085     651.1481     397.5782   1418.87085     651.1481     397.5782
   1418.85559     653.1672     397.2977   1418.85559     653.1672     397.2977
   1418.84033     652.4267     397.4639   1418.84033     652.4267     397.4639
   1418.82507     653.2956     398.2983   1418.82507     653.2956     398.2983
   1418.80981     653.9238     398.1327   1418.80981     653.9238     398.1327
   1418.79456     654.6671     398.9657   1418.79456     654.6671     398.9657
   1418.77930     654.8555     399.3938   1418.77930     654.8555     399.3938
   1418.76404     655.6216     399.7169   1418.76404     655.6216     399.7169
   1418.74878     656.3764     398.9736   1418.74878     656.3764     398.9736
   1418.73352     658.0457     400.5953   1418.73352     658.0457     400.5953
   1418.71826     657.6810     400.3393   1418.71826     657.6810     400.3393
   1418.70300     658.3024     400.7652   1418.70300     658.3024     400.7652
   1418.68774     660.1028     400.4744   1418.68774     660.1028     400.4744
   1418.67249     660.0863     401.2617   1418.67249     660.0863     401.2617
   1418.65723     661.2809     401.7644   1418.65723     661.2809     401.7644
   1418.64197     660.8454     401.5820   1418.64197     660.8454     401.5820
   1418.62671     661.5691     401.4809   1418.62671     661.5691     401.4809
   1418.61145     662.6630     402.8345   1418.61145     662.6630     402.8345
   1418.59619     662.6767     403.0699   1418.59619     662.6767     403.0699
   1418.58093     665.0665     403.4111   1418.58093     665.0665     403.4111
   1418.56567     665.5186     404.0118   1418.56567     665.5186     404.0118
   1418.55042     666.0625     404.3131   1418.55042     666.0625     404.3131
   1418.53516     666.1057     403.6233   1418.53516     666.1057     403.6233
   1418.51990     667.0742     405.0166   1418.51990     667.0742     405.0166
   1418.50464     668.0616     405.4680   1418.50464     668.0616     405.4680
   1418.48938     669.4922     405.7207   1418.48938     669.4922     405.7207
   1418.47412     669.7949     405.9718   1418.47412     669.7949     405.9718
   1418.45886     669.9301     407.2845   1418.45886     669.9301     407.2845
   1418.44360     671.6083     407.1083   1418.44360     671.6083     407.1083
   1418.42834     672.2212     407.1286   1418.42834     672.2212     407.1286
   1418.41309     672.2397     407.8357   1418.41309     672.2397     407.8357
   1418.39783     672.5088     408.7763   1418.39783     672.5088     408.7763
   1418.38257     675.0387     408.5171   1418.38257     675.0387     408.5171
   1418.36731     675.0452     409.5204   1418.36731     675.0452     409.5204
   1418.35205     676.0501     410.2625   1418.35205     676.0501     410.2625
   1418.33679     677.1413     410.6659   1418.33679     677.1413     410.6659
   1418.32153     678.2001     410.6251   1418.32153     678.2001     410.6251
   1418.30627     677.7960     411.8156   1418.30627     677.7960     411.8156
   1418.29102     679.6210     412.2094   1418.29102     679.6210     412.2094
   1418.27576     681.4901     412.5068   1418.27576     681.4901     412.5068
   1418.26050     681.1382     413.2920   1418.26050     681.1382     413.2920
   1418.24524     681.6147     413.8268   1418.24524     681.6147     413.8268
   1418.22998     683.9027     413.9620   1418.22998     683.9027     413.9620
   1418.21472     683.8646     413.8417   1418.21472     683.8646     413.8417
   1418.19946     685.3716     415.5878   1418.19946     685.3716     415.5878
   1418.18420     684.5989     416.0465   1418.18420     684.5989     416.0465
   1418.16895     686.7610     416.8812   1418.16895     686.7610     416.8812
   1418.15369     686.3265     417.1942   1418.15369     686.3265     417.1942
   1418.13843     687.9769     418.3496   1418.13843     687.9769     418.3496
   1418.12317     689.0519     418.0517   1418.12317     689.0519     418.0517
   1418.10791     689.8345     418.5281   1418.10791     689.8345     418.5281
   1418.09265     691.7680     420.4431   1418.09265     691.7680     420.4431
   1418.07739     690.8698     421.1129   1418.07739     690.8698     421.1129
   1418.06213     692.6314     421.5405   1418.06213     692.6314     421.5405
   1418.04688     693.5380     421.7415   1418.04688     693.5380     421.7415
   1418.03162     694.3813     421.8592   1418.03162     694.3813     421.8592
   1418.01636     695.6500     422.2704   1418.01636     695.6500     422.2704
   1418.00110     696.7368     424.3507   1418.00110     696.7368     424.3507
   1417.98584     696.7255     424.0578   1417.98584     696.7255     424.0578
   1417.97058     697.4142     425.3722   1417.97058     697.4142     425.3722
   1417.95532     698.3974     426.2941   1417.95532     698.3974     426.2941
   1417.94006     700.3634     425.8727   1417.94006     700.3634     425.8727
   1417.92480     700.4781     426.9979   1417.92480     700.4781     426.9979
   1417.90955     702.0741     427.5901   1417.90955     702.0741     427.5901
   1417.89429     702.5928     427.6912   1417.89429     702.5928     427.6912
   1417.87903     703.5499     429.1613   1417.87903     703.5499     429.1613
   1417.86377     705.7954     430.0775   1417.86377     705.7954     430.0775
   1417.84851     704.8486     430.3768   1417.84851     704.8486     430.3768
   1417.83325     706.3184     431.3114   1417.83325     706.3184     431.3114
   1417.81799     708.4178     431.7127   1417.81799     708.4178     431.7127
   1417.80273     708.7731     432.3242   1417.80273     708.7731     432.3242
   1417.78748     708.9128     433.6097   1417.78748     708.9128     433.6097
   1417.77222     710.9562     433.6019   1417.77222     710.9562     433.6019
   1417.75696     710.5073     434.3930   1417.75696     710.5073     434.3930
   1417.74170     712.9777     435.0767   1417.74170     712.9777     435.0767
   1417.72644     713.8828     436.4789   1417.72644     713.8828     436.4789
   1417.71118     714.9520     436.6678   1417.71118     714.9520     436.6678
   1417.69592     716.6484     437.9066   1417.69592     716.6484     437.9066
   1417.68066     717.3749     438.5017   1417.68066     717.3749     438.5017
   1417.66541     717.1660     439.5119   1417.66541     717.1660     439.5119
   1417.65015     717.9145     440.4236   1417.65015     717.9145     440.4236
   1417.63489     719.2659     440.7836   1417.63489     719.2659     440.7836
   1417.61963     719.9548     441.5656   1417.61963     719.9548     441.5656
   1417.60437     721.6456     442.2372   1417.60437     721.6456     442.2372
   1417.58911     722.2732     442.6894   1417.58911     722.2732     442.6894
   1417.57385     723.9155     443.6410   1417.57385     723.9155     443.6410
   1417.55859     723.6365     444.6557   1417.55859     723.6365     444.6557
   1417.54333     725.3936     445.0365   1417.54333     725.3936     445.0365
   1417.52808     726.6997     446.1621   1417.52808     726.6997     446.1621
   1417.51282     727.2073     446.1980   1417.51282     727.2073     446.1980
   1417.49756     727.3233     447.6145   1417.49756     727.3233     447.6145
   1417.48230     731.0016     447.9430   1417.48230     731.0016     447.9430
   1417.46704     728.9082     448.8094   1417.46704     728.9082     448.8094
   1417.45178     730.5633     449.9685   1417.45178     730.5633     449.9685
   1417.43652     731.3140     450.4654   1417.43652     731.3140     450.4654
   1417.42126     732.2247     450.9637   1417.42126     732.2247     450.9637
   1417.40601     733.5291     451.6800   1417.40601     733.5291     451.6800
   1417.39075     735.1030     452.6028   1417.39075     735.1030     452.6028
   1417.37549     735.7330     453.2115   1417.37549     735.7330     453.2115
   1417.36023     736.4459     454.3398   1417.36023     736.4459     454.3398
   1417.34497     736.4642     454.2838   1417.34497     736.4642     454.2838
   1417.32971     738.3252     455.6476   1417.32971     738.3252     455.6476
   1417.31445     738.0031     456.1841   1417.31445     738.0031     456.1841
   1417.29919     739.5633     457.0258   1417.29919     739.5633     457.0258
   1417.28394     739.9651     457.4066   1417.28394     739.9651     457.4066
   1417.26868     740.8418     458.1046   1417.26868     740.8418     458.1046
   1417.25342     741.2352     458.3708   1417.25342     741.2352     458.3708
   1417.23816     741.8934     458.8578   1417.23816     741.8934     458.8578
   1417.22290     743.9219     461.9787   1417.22290     743.9219     461.9787
   1417.20764     743.8395     460.6465   1417.20764     743.8395     460.6465
   1417.19238     745.0660     461.5868   1417.19238     745.0660     461.5868
   1417.17712     745.1378     461.9170   1417.17712     745.1378     461.9170
   1417.16187     747.0788     463.0403   1417.16187     747.0788     463.0403
   1417.14661     747.5997     463.6744   1417.14661     747.5997     463.6744
   1417.13135     749.0773     464.3218   1417.13135     749.0773     464.3218
   1417.11609     749.1020     464.6206   1417.11609     749.1020     464.6206
   1417.10083     749.5314     465.9322   1417.10083     749.5314     465.9322
   1417.08557     749.4766     466.5317   1417.08557     749.4766     466.5317
   1417.07031     751.7663     466.7090   1417.07031     751.7663     466.7090
   1417.05505     752.2582     468.0494   1417.05505     752.2582     468.0494
   1417.03979     751.9244     468.5008   1417.03979     751.9244     468.5008
   1417.02454     753.3816     468.4190   1417.02454     753.3816     468.4190
   1417.00928     754.7578     469.2379   1417.00928     754.7578     469.2379
   1416.99402     754.4236     470.0205   1416.99402     754.4236     470.0205
   1416.97876     753.8438     470.1399   1416.97876     753.8438     470.1399
   1416.96350     754.7161     471.3623   1416.96350     754.7161     471.3623
   1416.94824     756.1168     471.9588   1416.94824     756.1168     471.9588
   1416.93298     756.5547     472.6550   1416.93298     756.5547     472.6550
   1416.91772     758.2053     472.9435   1416.91772     758.2053     472.9435
   1416.90247     759.1396     473.2008   1416.90247     759.1396     473.2008
   1416.88721     758.2684     473.6002   1416.88721     758.2684     473.6002
   1416.87195     759.2628     474.5490   1416.87195     759.2628     474.5490
   1416.85669     759.8587     474.2426   1416.85669     759.8587     474.2426
   1416.84143     761.0565     475.7210   1416.84143     761.0565     475.7210
   1416.82617     759.8342     475.6991   1416.82617     759.8342     475.6991
   1416.81091     760.2713     476.5748   1416.81091     760.2713     476.5748
   1416.79565     760.3445     476.3994   1416.79565     760.3445     476.3994
   1416.78040     762.2300     477.2456   1416.78040     762.2300     477.2456
   1416.76514     761.9673     477.4494   1416.76514     761.9673     477.4494
   1416.74988     761.8506     478.3342   1416.74988     761.8506     478.3342
   1416.73462     762.9512     478.2360   1416.73462     762.9512     478.2360
   1416.71936     763.2676     477.5689   1416.71936     763.2676     477.5689
   1416.70410     762.8153     479.0691   1416.70410     762.8153     479.0691
   1416.68884     763.4071     479.1602   1416.68884     763.4071     479.1602
   1416.67358     763.9601     480.1048   1416.67358     763.9601     480.1048
   1416.65833     764.8305     480.4934   1416.65833     764.8305     480.4934
   1416.64307     765.2512     480.0562   1416.64307     765.2512     480.0562
   1416.62781     763.0105     481.1659   1416.62781     763.0105     481.1659
   1416.61255     764.4703     481.1805   1416.61255     764.4703     481.1805
   1416.59729     764.9867     480.9775   1416.59729     764.9867     480.9775
   1416.58203     765.2874     481.2527   1416.58203     765.2874     481.2527
   1416.56677     763.8191     482.4002   1416.56677     763.8191     482.4002
   1416.55151     764.0054     481.2050   1416.55151     764.0054     481.2050
   1416.53625     764.8965     482.0094   1416.53625     764.8965     482.0094
   1416.52100     764.2308     482.4460   1416.52100     764.2308     482.4460
   1416.50574     765.3306     482.3477   1416.50574     765.3306     482.3477
   1416.49048     765.3350     482.1733   1416.49048     765.3350     482.1733
   1416.47522     764.2617     481.9842   1416.47522     764.2617     481.9842
   1416.45996     764.7195     482.3384   1416.45996     764.7195     482.3384
   1416.44470     765.4824     482.6449   1416.44470     765.4824     482.6449
   1416.42944     765.3636     482.6801   1416.42944     765.3636     482.6801
   1416.41418     764.4888     482.5222   1416.41418     764.4888     482.5222
   1416.39893     764.6818     482.8622   1416.39893     764.6818     482.8622
   1416.38367     763.8277     483.1098   1416.38367     763.8277     483.1098
   1416.36841     762.9491     483.1546   1416.36841     762.9491     483.1546
   1416.35315     763.3414     483.0942   1416.35315     763.3414     483.0942
   1416.33789     763.8414     482.9905   1416.33789     763.8414     482.9905
   1416.32263     764.0260     482.4355   1416.32263     764.0260     482.4355
   1416.30737     762.5016     483.1757   1416.30737     762.5016     483.1757
   1416.29211     763.4470     483.2813   1416.29211     763.4470     483.2813
   1416.27686     763.2070     483.2900   1416.27686     763.2070     483.2900
   1416.26160     762.3132     482.4773   1416.26160     762.3132     482.4773
   1416.24634     761.0112     482.3434   1416.24634     761.0112     482.3434
   1416.23108     762.6818     482.5086   1416.23108     762.6818     482.5086
   1416.21582     761.8114     482.2038   1416.21582     761.8114     482.2038
   1416.20056     760.7949     481.9957   1416.20056     760.7949     481.9957
   1416.18530     760.6346     481.9156   1416.18530     760.6346     481.9156
   1416.17004     760.5685     482.3581   1416.17004     760.5685     482.3581
   1416.15479     759.9023     482.5469   1416.15479     759.9023     482.5469
   1416.13953     759.7990     481.9966   1416.13953     759.7990     481.9966
   1416.12427     760.2869     481.3825   1416.12427     760.2869     481.3825
   1416.10901     759.0334     481.8623   1416.10901     759.0334     481.8623
   1416.09375     758.2672     481.2451   1416.09375     758.2672     481.2451
   1416.07849     757.5524     481.2888   1416.07849     757.5524     481.2888
   1416.06323     757.6280     480.7256   1416.06323     757.6280     480.7256
   1416.04797     757.7776     481.4798   1416.04797     757.7776     481.4798
   1416.03271     755.7236     479.8116   1416.03271     755.7236     479.8116
   1416.01746     755.5822     480.1398   1416.01746     755.5822     480.1398
   1416.00220     755.3978     480.0551   1416.00220     755.3978     480.0551
   1415.98694     754.9449     480.2578   1415.98694     754.9449     480.2578
   1415.97168     753.6280     479.8925   1415.97168     753.6280     479.8925
   1415.95642     754.3007     480.1561   1415.95642     754.3007     480.1561
   1415.94116     753.3083     478.5437   1415.94116     753.3083     478.5437
   1415.92590     751.9240     477.8905   1415.92590     751.9240     477.8905
   1415.91064     752.3600     478.7524   1415.91064     752.3600     478.7524
   1415.89539     751.0096     477.9325   1415.89539     751.0096     477.9325
   1415.88013     749.9485     478.0121   1415.88013     749.9485     478.0121
   1415.86487     749.9619     477.2492   1415.86487     749.9619     477.2492
   1415.84961     748.3974     477.3779   1415.84961     748.3974     477.3779
   1415.83435     750.3508     477.1261   1415.83435     750.3508     477.1261
   1415.81909     747.7178     476.3628   1415.81909     747.7178     476.3628
   1415.80383     745.7861     476.1940   1415.80383     745.7861     476.1940
   1415.78857     745.6877     475.8051   1415.78857     745.6877     475.8051
   1415.77332     745.9859     475.7243   1415.77332     745.9859     475.7243
   1415.75806     745.6614     475.0891   1415.75806     745.6614     475.0891
   1415.74280     744.3227     474.6698   1415.74280     744.3227     474.6698
   1415.72754     742.1124     474.0876   1415.72754     742.1124     474.0876
   1415.71228     742.5168     474.5951   1415.71228     742.5168     474.5951
   1415.69702     741.5300     473.8382   1415.69702     741.5300     473.8382
   1415.68176     739.4000     474.5184   1415.68176     739.4000     474.5184
   1415.66650     739.0665     473.3302   1415.66650     739.0665     473.3302
   1415.65125     737.9635     472.7100   1415.65125     737.9635     472.7100
   1415.63599     739.1636     472.2685   1415.63599     739.1636     472.2685
   1415.62073     737.2276     471.9547   1415.62073     737.2276     471.9547
   1415.60547     736.4702     471.5691   1415.60547     736.4702     471.5691
   1415.59021     735.9954     471.4937   1415.59021     735.9954     471.4937
   1415.57495     734.4417     470.9005   1415.57495     734.4417     470.9005
   1415.55969     734.2103     470.6599   1415.55969     734.2103     470.6599
   1415.54443     733.4381     470.3354   1415.54443     733.4381     470.3354
   1415.52917     731.5483     469.8516   1415.52917     731.5483     469.8516
   1415.51392     730.6144     469.5100   1415.51392     730.6144     469.5100
   1415.49866     730.7766     468.9133   1415.49866     730.7766     468.9133
   1415.48340     728.6020     468.6446   1415.48340     728.6020     468.6446
   1415.46814     726.9913     468.0265   1415.46814     726.9913     468.0265
   1415.45288     726.4753     467.7670   1415.45288     726.4753     467.7670
   1415.43762     724.6752     467.6417   1415.43762     724.6752     467.6417
   1415.42236     724.6747     466.5956   1415.42236     724.6747     466.5956
   1415.40710     723.4821     466.4755   1415.40710     723.4821     466.4755
   1415.39185     723.7159     466.2597   1415.39185     723.7159     466.2597
   1415.37659     722.8052     465.9854   1415.37659     722.8052     465.9854
   1415.36133     721.3626     464.9147   1415.36133     721.3626     464.9147
   1415.34607     719.1520     465.0612   1415.34607     719.1520     465.0612
   1415.33081     717.9065     463.7605   1415.33081     717.9065     463.7605
   1415.31555     717.1320     463.8162   1415.31555     717.1320     463.8162
   1415.30029     715.8722     463.0560   1415.30029     715.8722     463.0560
   1415.28503     715.7620     462.6399   1415.28503     715.7620     462.6399
   1415.26978     713.9041     461.8119   1415.26978     713.9041     461.8119
   1415.25452     712.6002     461.9187   1415.25452     712.6002     461.9187
   1415.23926     710.5533     460.9021   1415.23926     710.5533     460.9021
   1415.22400     709.0957     460.5012   1415.22400     709.0957     460.5012
   1415.20874     707.3196     460.7631   1415.20874     707.3196     460.7631
   1415.19348     707.3824     459.5052   1415.19348     707.3824     459.5052
   1415.17822     706.5025     459.4327   1415.17822     706.5025     459.4327
   1415.16296     703.7872     458.3552   1415.16296     703.7872     458.3552
   1415.14771     702.9385     457.5593   1415.14771     702.9385     457.5593
   1415.13245     700.4484     457.4722   1415.13245     700.4484     457.4722
   1415.11719     699.8683     456.6192   1415.11719     699.8683     456.6192
   1415.10193     698.7508     456.2338   1415.10193     698.7508     456.2338
   1415.08667     696.5889     455.4514   1415.08667     696.5889     455.4514
   1415.07141     696.5903     454.1429   1415.07141     696.5903     454.1429
   1415.05615     694.2547     454.5643   1415.05615     694.2547     454.5643
   1415.04089     692.3568     453.2906   1415.04089     692.3568     453.2906
   1415.02563     691.3859     452.7204   1415.02563     691.3859     452.7204
   1415.01038     689.9849     452.0277   1415.01038     689.9849     452.0277
   1414.99512     688.0770     452.5182   1414.99512     688.0770     452.5182
   1414.97986     687.5481     450.6221   1414.97986     687.5481     450.6221
   1414.96460     685.5194     450.7574   1414.96460     685.5194     450.7574
   1414.94934     682.7660     449.3185   1414.94934     682.7660     449.3185
   1414.93408     681.3500     449.2961   1414.93408     681.3500     449.2961
   1414.91882     680.6138     449.1037   1414.91882     680.6138     449.1037
   1414.90356     678.5710     447.9760   1414.90356     678.5710     447.9760
   1414.88831     677.3259     446.8845   1414.88831     677.3259     446.8845
   1414.87305     675.4240     445.7214   1414.87305     675.4240     445.7214
   1414.85779     672.4512     446.4116   1414.85779     672.4512     446.4116
   1414.84253     671.6487     445.7940   1414.84253     671.6487     445.7940
   1414.82727     668.3799     444.5415   1414.82727     668.3799     444.5415
   1414.81201     668.3293     444.2986   1414.81201     668.3293     444.2986
   1414.79675     666.0078     441.7884   1414.79675     666.0078     441.7884
   1414.78149     664.5366     442.1168   1414.78149     664.5366     442.1168
   1414.76624     662.6484     441.1362   1414.76624     662.6484     441.1362
   1414.75098     659.8595     440.1228   1414.75098     659.8595     440.1228
   1414.73572     658.4630     439.1289   1414.73572     658.4630     439.1289
   1414.72046     656.2710     438.8921   1414.72046     656.2710     438.8921
   1414.70520     654.4027     438.4465   1414.70520     654.4027     438.4465
   1414.68994     652.9744     437.0788   1414.68994     652.9744     437.0788
   1414.67468     649.5961     435.9300   1414.67468     649.5961     435.9300
   1414.65942     648.8160     434.3613   1414.65942     648.8160     434.3613
   1414.64417     645.9409     434.6212   1414.64417     645.9409     434.6212
   1414.62891     644.3913     433.2623   1414.62891     644.3913     433.2623
   1414.61365     641.8194     432.5391   1414.61365     641.8194     432.5391
   1414.59839     639.9089     431.9598   1414.59839     639.9089     431.9598
   1414.58313     637.8464     431.5466   1414.58313     637.8464     431.5466
   1414.56787     636.4772     430.2782   1414.56787     636.4772     430.2782
   1414.55261     634.5589     428.9940   1414.55261     634.5589     428.9940
   1414.53735     631.0274     427.9791   1414.53735     631.0274     427.9791
   1414.52209     629.1822     426.7752   1414.52209     629.1822     426.7752
   1414.50684     627.6789     426.7570   1414.50684     627.6789     426.7570
   1414.49158     624.2311     425.0120   1414.49158     624.2311     425.0120
   1414.47632     622.3730     424.1033   1414.47632     622.3730     424.1033
   1414.46106     620.3895     423.3601   1414.46106     620.3895     423.3601
   1414.44580     618.0620     422.4853   1414.44580     618.0620     422.4853
   1414.43054     615.5645     421.0247   1414.43054     615.5645     421.0247
   1414.41528     612.8540     419.5691   1414.41528     612.8540     419.5691
   1414.40002     611.2099     418.7566   1414.40002     611.2099     418.7566
   1414.38477     608.3483     418.4658   1414.38477     608.3483     418.4658
   1414.36951     606.7656     417.0709   1414.36951     606.7656     417.0709
   1414.35425     603.2136     415.7365   1414.35425     603.2136     415.7365
   1414.33899     601.2663     414.7499   1414.33899     601.2663     414.7499
   1414.32373     599.0641     414.0167   1414.32373     599.0641     414.0167
   1414.30847     597.4071     412.9441   1414.30847     597.4071     412.9441
   1414.29321     593.7303     411.1785   1414.29321     593.7303     411.1785
   1414.27795     591.2831     409.7856   1414.27795     591.2831     409.7856
   1414.26270     588.8366     409.4669   1414.26270     588.8366     409.4669
   1414.24744     585.8270     408.1049   1414.24744     585.8270     408.1049
   1414.23218     584.5554     406.7459   1414.23218     584.5554     406.7459
   1414.21692     581.2906     406.0014   1414.21692     581.2906     406.0014
   1414.20166     578.1801     404.7179   1414.20166     578.1801     404.7179
   1414.18640     574.9694     402.9448   1414.18640     574.9694     402.9448
   1414.17114     572.9231     402.3210   1414.17114     572.9231     402.3210
   1414.15588     570.0082     401.3277   1414.15588     570.0082     401.3277
   1414.14062     567.5478     399.6687   1414.14062     567.5478     399.6687
   1414.12537     565.9445     398.4820   1414.12537     565.9445     398.4820
   1414.11011     562.4158     397.2739   1414.11011     562.4158     397.2739
   1414.09485     559.5365     395.3015   1414.09485     559.5365     395.3015
   1414.07959     557.2927     394.7561   1414.07959     557.2927     394.7561
   1414.06433     555.9687     393.0580   1414.06433     555.9687     393.0580
   1414.04907     552.5638     392.4622   1414.04907     552.5638     392.4622
   1414.03381     548.8169     390.8907   1414.03381     548.8169     390.8907
   1414.01855     546.5499     389.9341   1414.01855     546.5499     389.9341
   1414.00330     561.7033     394.7279   1414.00330     561.7033     394.7279
   1413.98804     542.6329     387.5660   1413.98804     542.6329     387.5660
   1413.97278     539.0783     385.3080   1413.97278     539.0783     385.3080
   1413.95752     535.2227     383.7605   1413.95752     535.2227     383.7605
   1413.94226     532.9449     382.8512   1413.94226     532.9449     382.8512
   1413.92700     528.7990     381.7802   1413.92700     528.7990     381.7802
   1413.91174     526.7646     380.5023   1413.91174     526.7646     380.5023
   1413.89648     523.8593     378.7854   1413.89648     523.8593     378.7854
   1413.88123     520.7312     377.3919   1413.88123     520.7312     377.3919
   1413.86597     517.9451     375.8682   1413.86597     517.9451     375.8682
   1413.85071     515.6588     374.5171   1413.85071     515.6588     374.5171
   1413.83545     511.9476     373.5295   1413.83545     511.9476     373.5295
   1413.82019     509.6039     372.1862   1413.82019     509.6039     372.1862
   1413.80493     507.2446     370.4370   1413.80493     507.2446     370.4370
   1413.78967     503.2881     368.7874   1413.78967     503.2881     368.7874
   1413.77441     501.5500     367.3430   1413.77441     501.5500     367.3430
   1413.75916     498.7388     366.5990   1413.75916     498.7388     366.5990
   1413.74390     494.7572     364.7146   1413.74390     494.7572     364.7146
   1413.72864     491.9298     363.2831   1413.72864     491.9298     363.2831
   1413.71338     489.4558     362.3229   1413.71338     489.4558     362.3229
   1413.69812     486.8266     360.6589   1413.69812     486.8266     360.6589
   1413.68286     484.3772     358.9572   1413.68286     484.3772     358.9572
   1413.66760     481.2443     357.6131   1413.66760     481.2443     357.6131
   1413.65234     478.5178     355.9228   1413.65234     478.5178     355.9228
   1413.63708     475.1671     355.0847   1413.63708     475.1671     355.0847
   1413.62183     472.8731     353.2111   1413.62183     472.8731     353.2111
   1413.60657     469.8028     351.7737   1413.60657     469.8028     351.7737
   1413.59131     466.9775     349.9714   1413.59131     466.9775     349.9714
   1413.57605     464.1386     348.6909   1413.57605     464.1386     348.6909
   1413.56079     461.0877     347.8616   1413.56079     461.0877     347.8616
   1413.54553     458.5175     345.0818   1413.54553     458.5175     345.0818
   1413.53027     455.3679     343.7711   1413.53027     455.3679     343.7711
   1413.51501     453.8094     342.9584   1413.51501     453.8094     342.9584
   1413.49976     450.9218     341.0627   1413.49976     450.9218     341.0627
   1413.48450     447.6286     339.2291   1413.48450     447.6286     339.2291
   1413.46924     444.7808     338.7790   1413.46924     444.7808     338.7790
   1413.45398     442.5192     337.2481   1413.45398     442.5192     337.2481
   1413.43872     440.1508     335.4845   1413.43872     440.1508     335.4845
   1413.42346     437.2301     334.1848   1413.42346     437.2301     334.1848
   1413.40820     434.3980     332.6962   1413.40820     434.3980     332.6962
   1413.39294     431.4512     330.8818   1413.39294     431.4512     330.8818
   1413.37769     428.3933     329.6905   1413.37769     428.3933     329.6905
   1413.36243     426.6133     328.6596   1413.36243     426.6133     328.6596
   1413.34717     423.4486     326.9064   1413.34717     423.4486     326.9064
   1413.33191     421.2435     324.8604   1413.33191     421.2435     324.8604
   1413.31665     419.3206     323.7090   1413.31665     419.3206     323.7090
   1413.30139     415.8164     322.8050   1413.30139     415.8164     322.8050
   1413.28613     414.1970     320.9064   1413.28613     414.1970     320.9064
   1413.27087     410.8237     319.9008   1413.27087     410.8237     319.9008
   1413.25562     409.0076     318.4254   1413.25562     409.0076     318.4254
   1413.24036     406.1448     317.2964   1413.24036     406.1448     317.2964
   1413.22510     404.1173     315.1114   1413.22510     404.1173     315.1114
   1413.20984     401.5245     314.3006   1413.20984     401.5245     314.3006
   1413.19458     399.1635     313.1079   1413.19458     399.1635     313.1079
   1413.17932     396.7732     311.3033   1413.17932     396.7732     311.3033
   1413.16406     394.2789     310.0294   1413.16406     394.2789     310.0294
   1413.14880     392.1126     309.0938   1413.14880     392.1126     309.0938
   1413.13354     390.6454     308.4391   1413.13354     390.6454     308.4391
   1413.11829     387.8718     306.2859   1413.11829     387.8718     306.2859
   1413.10303     384.9607     304.6383   1413.10303     384.9607     304.6383
   1413.08777     383.6417     303.7452   1413.08777     383.6417     303.7452
   1413.07251     381.0387     302.4958   1413.07251     381.0387     302.4958
   1413.05725     379.2399     301.5813   1413.05725     379.2399     301.5813
   1413.04199     377.2419     299.9386   1413.04199     377.2419     299.9386
   1413.02673     374.7527     299.1253   1413.02673     374.7527     299.1253
   1413.01147     372.7498     297.7264   1413.01147     372.7498     297.7264
   1412.99622     371.0204     296.7527   1412.99622     371.0204     296.7527
   1412.98096     368.6559     295.3944   1412.98096     368.6559     295.3944
   1412.96570     367.0267     294.2253   1412.96570     367.0267     294.2253
   1412.95044     364.8769     293.2253   1412.95044     364.8769     293.2253
   1412.93518     362.9212     291.9779   1412.93518     362.9212     291.9779
   1412.91992     361.9024     290.8586   1412.91992     361.9024     290.8586
   1412.90466     359.6702     290.2927   1412.90466     359.6702     290.2927
   1412.88940     357.6935     289.2739   1412.88940     357.6935     289.2739
   1412.87415     356.4928     288.0957   1412.87415     356.4928     288.0957
   1412.85889     355.3828     287.3109   1412.85889     355.3828     287.3109
   1412.84363     353.8023     286.0358   1412.84363     353.8023     286.0358
   1412.82837     351.9312     285.2458   1412.82837     351.9312     285.2458
   1412.81311     350.4533     284.5055   1412.81311     350.4533     284.5055
   1412.79785     348.4407     283.7350   1412.79785     348.4407     283.7350
   1412.78259     347.8400     282.9651   1412.78259     347.8400     282.9651
   1412.76733     346.0504     282.1124   1412.76733     346.0504     282.1124
   1412.75208     344.2903     281.3937   1412.75208     344.2903     281.3937
   1412.73682     343.2670     280.4245   1412.73682     343.2670     280.4245
   1412.72156     341.9865     279.9815   1412.72156     341.9865     279.9815
   1412.70630     341.2386     278.6873   1412.70630     341.2386     278.6873
   1412.69104     339.6422     278.0334   1412.69104     339.6422     278.0334
   1412.67578     338.6855     277.3446   1412.67578     338.6855     277.3446
   1412.66052     337.5643     277.0865   1412.66052     337.5643     277.0865
   1412.64526     336.8336     276.6718   1412.64526     336.8336     276.6718
   1412.63000     335.7253     276.1294   1412.63000     335.7253     276.1294
   1412.61475     335.0701     275.6267   1412.61475     335.0701     275.6267
   1412.59949     334.2862     275.2095   1412.59949     334.2862     275.2095
   1412.58423     333.6302     274.7520   1412.58423     333.6302     274.7520
   1412.56897     332.6161     274.2864   1412.56897     332.6161     274.2864
   1412.55371     331.1572     273.8701   1412.55371     331.1572     273.8701
   1412.53845     331.0126     273.6807   1412.53845     331.0126     273.6807
   1412.52319     330.5947     273.0936   1412.52319     330.5947     273.0936
   1412.50793     330.2122     273.0574   1412.50793     330.2122     273.0574
   1412.49268     329.2558     272.7612   1412.49268     329.2558     272.7612
   1412.47742     328.5052     272.3755   1412.47742     328.5052     272.3755
   1412.46216     328.0384     272.2191   1412.46216     328.0384     272.2191
   1412.44690     327.8351     272.5401   1412.44690     327.8351     272.5401
   1412.43164     327.8404     272.2766   1412.43164     327.8404     272.2766
   1412.41638     327.3059     272.1268   1412.41638     327.3059     272.1268
   1412.40112     327.2022     271.8392   1412.40112     327.2022     271.8392
   1412.38586     326.8955     272.2238   1412.38586     326.8955     272.2238
   1412.37061     326.2661     272.0789   1412.37061     326.2661     272.0789
   1412.35535     326.9467     272.5977   1412.35535     326.9467     272.5977
   1412.34009     326.7493     272.4131   1412.34009     326.7493     272.4131
   1412.32483     326.7931     272.8924   1412.32483     326.7931     272.8924
   1412.30957     327.6842     273.1499   1412.30957     327.6842     273.1499
   1412.29431     327.3177     273.1161   1412.29431     327.3177     273.1161
   1412.27905     327.5410     273.5474   1412.27905     327.5410     273.5474
   1412.26379     327.7346     274.0899   1412.26379     327.7346     274.0899
   1412.24854     327.8737     274.5128   1412.24854     327.8737     274.5128
   1412.23328     328.0957     274.7084   1412.23328     328.0957     274.7084
   1412.21802     328.8607     275.5458   1412.21802     328.8607     275.5458
   1412.20276     329.4173     276.1463   1412.20276     329.4173     276.1463