#     FILENAME=!Skynet_57528_lach-hhg-101_20349_20908.cyb.fits
#     BASENAME=Skynet_57528_lach-hhg-101_20349_20908
#     SRC_NAME=lach-hhg-101
#     OBSERVER=hhgmadison16_9500
#     DATE_OBS=2016-05-20T15:25:31.680
#        OBSID=20349
#      SCANNUM=20908
#          MJD=57528.6438
#          UTC=55620
#     SCANTYPE=track
#     DATAMODE=HIRES
#     TUNEFREQ=1420.0000
# Actual_FREQ1=1420.0000
# Actual_FREQ2=1420.0000
#    LO1Tuning=6870.000
#     RFFILTER=1355_1435
#        OBSBW=-15.6250
#        NCHAN=1024 
#        FOCUS=37.0709
#           RA=22:05:37.61
#          DEC=55:38:46.90
#      RA(hrs)=22.093800
#     DEC(deg)=55.646400
#    AZIM(deg)=313.508
#    ELEV(deg)=47.850
#     IFattens=10.00, 9.00
#      WARNING=None
#    TCAL_XL1=7.9635
#    TCAL_YR1=9.1340
#    TCAL_XL2=7.9635
#    TCAL_YR2=9.1340
#     TRX_XL1=11.7060
#     TRX_YR1=11.7060
#     TRX_XL2=11.7060
#     TRX_YR2=11.7060
#        TAVE=1.0000
#Freq1(MHz)          XL1          YR1  Freq2(MHz)          XL2          YR2 

   1427.81250     370.3336     282.6346   1427.81250     370.3336     282.6346
   1427.79724     369.9926     283.0608   1427.79724     369.9926     283.0608
   1427.78198     371.0758     283.8630   1427.78198     371.0758     283.8630
   1427.76672     371.6473     284.9695   1427.76672     371.6473     284.9695
   1427.75146     372.9442     285.2465   1427.75146     372.9442     285.2465
   1427.73621     373.8660     286.1044   1427.73621     373.8660     286.1044
   1427.72095     374.0565     287.6000   1427.72095     374.0565     287.6000
   1427.70569     375.0162     288.3889   1427.70569     375.0162     288.3889
   1427.69043     376.3793     288.9828   1427.69043     376.3793     288.9828
   1427.67517     377.2390     290.1607   1427.67517     377.2390     290.1607
   1427.65991     379.1713     291.3452   1427.65991     379.1713     291.3452
   1427.64465     379.6656     292.5241   1427.64465     379.6656     292.5241
   1427.62939     381.5378     294.2213   1427.62939     381.5378     294.2213
   1427.61414     382.5493     294.7498   1427.61414     382.5493     294.7498
   1427.59888     384.0279     296.4200   1427.59888     384.0279     296.4200
   1427.58362     385.9312     297.4991   1427.58362     385.9312     297.4991
   1427.56836     387.2798     298.5139   1427.56836     387.2798     298.5139
   1427.55310     388.1995     299.8650   1427.55310     388.1995     299.8650
   1427.53784     389.5439     300.7992   1427.53784     389.5439     300.7992
   1427.52258     391.9658     302.0247   1427.52258     391.9658     302.0247
   1427.50732     393.4998     303.6544   1427.50732     393.4998     303.6544
   1427.49207     395.3914     305.5066   1427.49207     395.3914     305.5066
   1427.47681     397.1389     306.8563   1427.47681     397.1389     306.8563
   1427.46155     398.9332     308.3807   1427.46155     398.9332     308.3807
   1427.44629     400.9795     309.9225   1427.44629     400.9795     309.9225
   1427.43103     402.5455     311.7969   1427.43103     402.5455     311.7969
   1427.41577     404.7849     312.8151   1427.41577     404.7849     312.8151
   1427.40051     406.4219     314.2520   1427.40051     406.4219     314.2520
   1427.38525     408.2617     316.2890   1427.38525     408.2617     316.2890
   1427.37000     411.4634     317.4189   1427.37000     411.4634     317.4189
   1427.35474     413.3944     319.0995   1427.35474     413.3944     319.0995
   1427.33948     415.5091     321.1520   1427.33948     415.5091     321.1520
   1427.32422     417.8112     322.6432   1427.32422     417.8112     322.6432
   1427.30896     420.0510     324.6001   1427.30896     420.0510     324.6001
   1427.29370     421.6053     326.4938   1427.29370     421.6053     326.4938
   1427.27844     424.3495     328.4244   1427.27844     424.3495     328.4244
   1427.26318     426.4220     330.3907   1427.26318     426.4220     330.3907
   1427.24792     429.0448     331.7165   1427.24792     429.0448     331.7165
   1427.23267     431.6189     334.1709   1427.23267     431.6189     334.1709
   1427.21741     434.0155     335.9827   1427.21741     434.0155     335.9827
   1427.20215     436.4088     337.5719   1427.20215     436.4088     337.5719
   1427.18689     439.2310     339.3934   1427.18689     439.2310     339.3934
   1427.17163     442.1169     340.9645   1427.17163     442.1169     340.9645
   1427.15637     445.3394     344.2661   1427.15637     445.3394     344.2661
   1427.14111     446.2151     345.2502   1427.14111     446.2151     345.2502
   1427.12585     449.9260     347.5464   1427.12585     449.9260     347.5464
   1427.11060     452.9387     349.2838   1427.11060     452.9387     349.2838
   1427.09534     455.3869     351.7935   1427.09534     455.3869     351.7935
   1427.08008     457.3567     353.9325   1427.08008     457.3567     353.9325
   1427.06482     460.7032     355.5765   1427.06482     460.7032     355.5765
   1427.04956     463.9293     358.1041   1427.04956     463.9293     358.1041
   1427.03430     467.2151     359.7875   1427.03430     467.2151     359.7875
   1427.01904     469.2001     361.8776   1427.01904     469.2001     361.8776
   1427.00378     471.9965     364.0734   1427.00378     471.9965     364.0734
   1426.98853     474.9190     366.6599   1426.98853     474.9190     366.6599
   1426.97327     478.2341     368.9671   1426.97327     478.2341     368.9671
   1426.95801     480.7777     370.3738   1426.95801     480.7777     370.3738
   1426.94275     484.3636     372.9970   1426.94275     484.3636     372.9970
   1426.92749     486.8135     374.9221   1426.92749     486.8135     374.9221
   1426.91223     489.8361     377.1093   1426.91223     489.8361     377.1093
   1426.89697     491.8850     379.2163   1426.89697     491.8850     379.2163
   1426.88171     495.2223     381.5617   1426.88171     495.2223     381.5617
   1426.86646     498.5634     384.0774   1426.86646     498.5634     384.0774
   1426.85120     501.4694     386.5032   1426.85120     501.4694     386.5032
   1426.83594     504.7989     387.9200   1426.83594     504.7989     387.9200
   1426.82068     507.2679     390.6202   1426.82068     507.2679     390.6202
   1426.80542     510.5463     392.3901   1426.80542     510.5463     392.3901
   1426.79016     514.1428     394.5668   1426.79016     514.1428     394.5668
   1426.77490     516.9580     397.4675   1426.77490     516.9580     397.4675
   1426.75964     520.3563     399.1077   1426.75964     520.3563     399.1077
   1426.74438     522.5235     401.5753   1426.74438     522.5235     401.5753
   1426.72913     525.3535     404.3036   1426.72913     525.3535     404.3036
   1426.71387     528.8214     405.9984   1426.71387     528.8214     405.9984
   1426.69861     531.8558     408.2802   1426.69861     531.8558     408.2802
   1426.68335     534.8884     410.8822   1426.68335     534.8884     410.8822
   1426.66809     538.5056     413.0058   1426.66809     538.5056     413.0058
   1426.65283     541.7811     415.6221   1426.65283     541.7811     415.6221
   1426.63757     544.3110     417.0941   1426.63757     544.3110     417.0941
   1426.62231     547.1703     420.6520   1426.62231     547.1703     420.6520
   1426.60706     550.3951     421.7259   1426.60706     550.3951     421.7259
   1426.59180     553.5403     424.2594   1426.59180     553.5403     424.2594
   1426.57654     556.5702     425.4927   1426.57654     556.5702     425.4927
   1426.56128     559.6906     428.6320   1426.56128     559.6906     428.6320
   1426.54602     561.7347     429.8326   1426.54602     561.7347     429.8326
   1426.53076     564.6475     432.2820   1426.53076     564.6475     432.2820
   1426.51550     569.0116     435.0636   1426.51550     569.0116     435.0636
   1426.50024     571.8644     437.3181   1426.50024     571.8644     437.3181
   1426.48499     574.4089     439.0839   1426.48499     574.4089     439.0839
   1426.46973     576.9729     441.3539   1426.46973     576.9729     441.3539
   1426.45447     579.7538     443.4137   1426.45447     579.7538     443.4137
   1426.43921     582.7877     445.4068   1426.43921     582.7877     445.4068
   1426.42395     586.7935     447.7611   1426.42395     586.7935     447.7611
   1426.40869     589.5193     449.4384   1426.40869     589.5193     449.4384
   1426.39343     592.8027     451.8108   1426.39343     592.8027     451.8108
   1426.37817     595.0121     454.4369   1426.37817     595.0121     454.4369
   1426.36292     598.5820     456.0287   1426.36292     598.5820     456.0287
   1426.34766     600.1447     458.1331   1426.34766     600.1447     458.1331
   1426.33240     603.6049     459.5397   1426.33240     603.6049     459.5397
   1426.31714     606.1425     462.0562   1426.31714     606.1425     462.0562
   1426.30188     608.6199     463.9387   1426.30188     608.6199     463.9387
   1426.28662     611.0605     466.0605   1426.28662     611.0605     466.0605
   1426.27136     614.6484     467.5715   1426.27136     614.6484     467.5715
   1426.25610     617.2255     469.9665   1426.25610     617.2255     469.9665
   1426.24084     619.9655     472.5652   1426.24084     619.9655     472.5652
   1426.22559     623.2155     474.3632   1426.22559     623.2155     474.3632
   1426.21033     625.5955     476.5025   1426.21033     625.5955     476.5025
   1426.19507     628.2595     479.0536   1426.19507     628.2595     479.0536
   1426.17981     630.8156     479.9096   1426.17981     630.8156     479.9096
   1426.16455     634.0642     483.0168   1426.16455     634.0642     483.0168
   1426.14929     635.4337     483.6417   1426.14929     635.4337     483.6417
   1426.13403     638.6917     485.5505   1426.13403     638.6917     485.5505
   1426.11877     640.2608     487.0387   1426.11877     640.2608     487.0387
   1426.10352     644.2630     489.6060   1426.10352     644.2630     489.6060
   1426.08826     645.2762     491.3825   1426.08826     645.2762     491.3825
   1426.07300     648.4846     493.1688   1426.07300     648.4846     493.1688
   1426.05774     650.9058     494.1033   1426.05774     650.9058     494.1033
   1426.04248     653.3218     495.8565   1426.04248     653.3218     495.8565
   1426.02722     654.6584     498.4681   1426.02722     654.6584     498.4681
   1426.01196     657.5705     500.6950   1426.01196     657.5705     500.6950
   1425.99670     658.8669     502.2603   1425.99670     658.8669     502.2603
   1425.98145     662.2553     503.5760   1425.98145     662.2553     503.5760
   1425.96619     663.8231     505.8992   1425.96619     663.8231     505.8992
   1425.95093     667.1162     507.8237   1425.95093     667.1162     507.8237
   1425.93567     669.2266     508.2369   1425.93567     669.2266     508.2369
   1425.92041     671.4056     509.3310   1425.92041     671.4056     509.3310
   1425.90515     673.2247     511.8910   1425.90515     673.2247     511.8910
   1425.88989     675.3055     512.9807   1425.88989     675.3055     512.9807
   1425.87463     676.9229     515.3401   1425.87463     676.9229     515.3401
   1425.85938     679.5837     517.0980   1425.85938     679.5837     517.0980
   1425.84412     681.4584     518.7860   1425.84412     681.4584     518.7860
   1425.82886     683.2998     520.2852   1425.82886     683.2998     520.2852
   1425.81360     685.2816     521.3886   1425.81360     685.2816     521.3886
   1425.79834     687.3327     522.7698   1425.79834     687.3327     522.7698
   1425.78308     688.1480     524.2669   1425.78308     688.1480     524.2669
   1425.76782     690.0632     525.8657   1425.76782     690.0632     525.8657
   1425.75256     692.3511     527.6865   1425.75256     692.3511     527.6865
   1425.73730     695.6192     529.7457   1425.73730     695.6192     529.7457
   1425.72205     696.1249     530.4019   1425.72205     696.1249     530.4019
   1425.70679     698.2447     531.8177   1425.70679     698.2447     531.8177
   1425.69153     700.0764     534.3008   1425.69153     700.0764     534.3008
   1425.67627     700.3755     535.1882   1425.67627     700.3755     535.1882
   1425.66101     702.7792     536.8011   1425.66101     702.7792     536.8011
   1425.64575     703.6714     537.3929   1425.64575     703.6714     537.3929
   1425.63049     705.0671     539.2054   1425.63049     705.0671     539.2054
   1425.61523     706.5501     540.2469   1425.61523     706.5501     540.2469
   1425.59998     708.0723     542.3030   1425.59998     708.0723     542.3030
   1425.58472     709.0673     543.1476   1425.58472     709.0673     543.1476
   1425.56946     710.8552     544.6632   1425.56946     710.8552     544.6632
   1425.55420     713.7532     546.2628   1425.55420     713.7532     546.2628
   1425.53894     713.2204     547.5605   1425.53894     713.2204     547.5605
   1425.52368     714.7426     548.7240   1425.52368     714.7426     548.7240
   1425.50842     716.5329     549.9655   1425.50842     716.5329     549.9655
   1425.49316     719.3928     550.8067   1425.49316     719.3928     550.8067
   1425.47791     719.0657     552.6782   1425.47791     719.0657     552.6782
   1425.46265     719.1084     553.2544   1425.46265     719.1084     553.2544
   1425.44739     721.5071     554.2476   1425.44739     721.5071     554.2476
   1425.43213     721.9750     556.3431   1425.43213     721.9750     556.3431
   1425.41687     724.1409     557.7080   1425.41687     724.1409     557.7080
   1425.40161     724.3868     558.8378   1425.40161     724.3868     558.8378
   1425.38635     725.3840     559.2605   1425.38635     725.3840     559.2605
   1425.37109     726.3177     561.2255   1425.37109     726.3177     561.2255
   1425.35583     728.3577     561.1454   1425.35583     728.3577     561.1454
   1425.34058     729.2929     562.4833   1425.34058     729.2929     562.4833
   1425.32532     729.8375     564.0040   1425.32532     729.8375     564.0040
   1425.31006     730.7677     564.7519   1425.31006     730.7677     564.7519
   1425.29480     731.0163     566.2848   1425.29480     731.0163     566.2848
   1425.27954     732.1851     567.1298   1425.27954     732.1851     567.1298
   1425.26428     732.1998     568.9885   1425.26428     732.1998     568.9885
   1425.24902     733.6311     568.6557   1425.24902     733.6311     568.6557
   1425.23376     733.6817     570.0130   1425.23376     733.6817     570.0130
   1425.21851     735.8862     571.3861   1425.21851     735.8862     571.3861
   1425.20325     735.2054     572.6426   1425.20325     735.2054     572.6426
   1425.18799     736.5660     573.9954   1425.18799     736.5660     573.9954
   1425.17273     736.6245     574.9260   1425.17273     736.6245     574.9260
   1425.15747     738.6339     574.9528   1425.15747     738.6339     574.9528
   1425.14221     738.5890     576.5636   1425.14221     738.5890     576.5636
   1425.12695     738.2442     578.6114   1425.12695     738.2442     578.6114
   1425.11169     738.8518     577.9691   1425.11169     738.8518     577.9691
   1425.09644     739.9753     578.5016   1425.09644     739.9753     578.5016
   1425.08118     740.6712     580.1667   1425.08118     740.6712     580.1667
   1425.06592     741.9430     580.8519   1425.06592     741.9430     580.8519
   1425.05066     741.6859     582.9169   1425.05066     741.6859     582.9169
   1425.03540     742.5720     582.6765   1425.03540     742.5720     582.6765
   1425.02014     743.3072     583.8725   1425.02014     743.3072     583.8725
   1425.00488     743.1006     584.9813   1425.00488     743.1006     584.9813
   1424.98962     741.9268     586.1254   1424.98962     741.9268     586.1254
   1424.97437     743.4224     585.5667   1424.97437     743.4224     585.5667
   1424.95911     744.1780     587.7734   1424.95911     744.1780     587.7734
   1424.94385     743.5736     588.0854   1424.94385     743.5736     588.0854
   1424.92859     743.8705     588.9191   1424.92859     743.8705     588.9191
   1424.91333     743.4548     590.8734   1424.91333     743.4548     590.8734
   1424.89807     745.6058     590.9940   1424.89807     745.6058     590.9940
   1424.88281     745.7354     591.8677   1424.88281     745.7354     591.8677
   1424.86755     746.2450     593.1475   1424.86755     746.2450     593.1475
   1424.85229     745.6706     592.9113   1424.85229     745.6706     592.9113
   1424.83704     745.9125     593.9818   1424.83704     745.9125     593.9818
   1424.82178     746.2085     594.6359   1424.82178     746.2085     594.6359
   1424.80652     746.0039     594.4008   1424.80652     746.0039     594.4008
   1424.79126     746.2065     596.4733   1424.79126     746.2065     596.4733
   1424.77600     746.3710     597.1722   1424.77600     746.3710     597.1722
   1424.76074     746.0729     597.9153   1424.76074     746.0729     597.9153
   1424.74548     745.2684     598.5436   1424.74548     745.2684     598.5436
   1424.73022     746.7767     599.0173   1424.73022     746.7767     599.0173
   1424.71497     745.8580     601.2798   1424.71497     745.8580     601.2798
   1424.69971     746.3511     601.5915   1424.69971     746.3511     601.5915
   1424.68445     746.3953     602.8041   1424.68445     746.3953     602.8041
   1424.66919     746.2828     601.5039   1424.66919     746.2828     601.5039
   1424.65393     746.8350     603.0466   1424.65393     746.8350     603.0466
   1424.63867     746.6986     603.4663   1424.63867     746.6986     603.4663
   1424.62341     747.4449     603.9832   1424.62341     747.4449     603.9832
   1424.60815     746.6506     604.6367   1424.60815     746.6506     604.6367
   1424.59290     747.4390     605.6382   1424.59290     747.4390     605.6382
   1424.57764     746.2900     605.8292   1424.57764     746.2900     605.8292
   1424.56238     746.4998     607.0048   1424.56238     746.4998     607.0048
   1424.54712     746.7888     607.7968   1424.54712     746.7888     607.7968
   1424.53186     746.3544     607.6473   1424.53186     746.3544     607.6473
   1424.51660     746.4255     608.9850   1424.51660     746.4255     608.9850
   1424.50134     747.6889     609.6721   1424.50134     747.6889     609.6721
   1424.48608     745.6725     609.8608   1424.48608     745.6725     609.8608
   1424.47083     745.9981     610.3506   1424.47083     745.9981     610.3506
   1424.45557     745.4030     611.3821   1424.45557     745.4030     611.3821
   1424.44031     744.7014     610.6479   1424.44031     744.7014     610.6479
   1424.42505     745.3684     611.2292   1424.42505     745.3684     611.2292
   1424.40979     746.0506     613.2902   1424.40979     746.0506     613.2902
   1424.39453     745.4015     612.9893   1424.39453     745.4015     612.9893
   1424.37927     744.5613     615.5582   1424.37927     744.5613     615.5582
   1424.36401     744.9166     614.3376   1424.36401     744.9166     614.3376
   1424.34875     743.8711     615.1434   1424.34875     743.8711     615.1434
   1424.33350     743.9365     615.9573   1424.33350     743.9365     615.9573
   1424.31824     744.9317     616.6049   1424.31824     744.9317     616.6049
   1424.30298     742.4992     617.0314   1424.30298     742.4992     617.0314
   1424.28772     742.6692     616.9442   1424.28772     742.6692     616.9442
   1424.27246     743.6879     617.6912   1424.27246     743.6879     617.6912
   1424.25720     743.4159     618.0275   1424.25720     743.4159     618.0275
   1424.24194     743.2573     619.1449   1424.24194     743.2573     619.1449
   1424.22668     743.1842     619.6687   1424.22668     743.1842     619.6687
   1424.21143     742.0292     620.4080   1424.21143     742.0292     620.4080
   1424.19617     742.1515     620.2266   1424.19617     742.1515     620.2266
   1424.18091     742.6959     620.2778   1424.18091     742.6959     620.2778
   1424.16565     742.0462     621.4628   1424.16565     742.0462     621.4628
   1424.15039     740.7740     622.7083   1424.15039     740.7740     622.7083
   1424.13513     741.0742     622.1299   1424.13513     741.0742     622.1299
   1424.11987     741.4442     622.5559   1424.11987     741.4442     622.5559
   1424.10461     740.6514     623.1110   1424.10461     740.6514     623.1110
   1424.08936     740.8955     622.8792   1424.08936     740.8955     622.8792
   1424.07410     741.3018     623.8469   1424.07410     741.3018     623.8469
   1424.05884     740.0657     623.7693   1424.05884     740.0657     623.7693
   1424.04358     739.3195     624.7394   1424.04358     739.3195     624.7394
   1424.02832     740.0927     626.0471   1424.02832     740.0927     626.0471
   1424.01306     739.5894     626.1133   1424.01306     739.5894     626.1133
   1423.99780     738.3745     625.2276   1423.99780     738.3745     625.2276
   1423.98254     739.8353     625.8524   1423.98254     739.8353     625.8524
   1423.96729     738.1522     626.2012   1423.96729     738.1522     626.2012
   1423.95203     738.5657     627.3568   1423.95203     738.5657     627.3568
   1423.93677     737.2868     627.3171   1423.93677     737.2868     627.3171
   1423.92151     737.2635     627.6077   1423.92151     737.2635     627.6077
   1423.90625     737.5125     628.3067   1423.90625     737.5125     628.3067
   1423.89099     735.8937     629.0140   1423.89099     735.8937     629.0140
   1423.87573     737.2408     628.7608   1423.87573     737.2408     628.7608
   1423.86047     736.3740     628.8486   1423.86047     736.3740     628.8486
   1423.84521     736.3659     629.9538   1423.84521     736.3659     629.9538
   1423.82996     736.1207     629.6152   1423.82996     736.1207     629.6152
   1423.81470     735.7660     630.4652   1423.81470     735.7660     630.4652
   1423.79944     734.9531     630.7052   1423.79944     734.9531     630.7052
   1423.78418     736.2791     629.9855   1423.78418     736.2791     629.9855
   1423.76892     735.0899     630.8147   1423.76892     735.0899     630.8147
   1423.75366     734.9097     631.3854   1423.75366     734.9097     631.3854
   1423.73840     734.9944     631.2068   1423.73840     734.9944     631.2068
   1423.72314     734.1857     631.7027   1423.72314     734.1857     631.7027
   1423.70789     733.3878     631.6887   1423.70789     733.3878     631.6887
   1423.69263     733.1406     631.8422   1423.69263     733.1406     631.8422
   1423.67737     733.4797     632.5795   1423.67737     733.4797     632.5795
   1423.66211     733.6733     632.9244   1423.66211     733.6733     632.9244
   1423.64685     732.6694     632.0683   1423.64685     732.6694     632.0683
   1423.63159     732.3739     632.7681   1423.63159     732.3739     632.7681
   1423.61633     732.1892     634.4143   1423.61633     732.1892     634.4143
   1423.60107     731.8370     634.2110   1423.60107     731.8370     634.2110
   1423.58582     730.4005     633.0693   1423.58582     730.4005     633.0693
   1423.57056     730.8663     632.7186   1423.57056     730.8663     632.7186
   1423.55530     732.3586     634.1188   1423.55530     732.3586     634.1188
   1423.54004     730.8312     634.4451   1423.54004     730.8312     634.4451
   1423.52478     729.1227     633.7953   1423.52478     729.1227     633.7953
   1423.50952     730.0483     634.0834   1423.50952     730.0483     634.0834
   1423.49426     729.8865     633.6357   1423.49426     729.8865     633.6357
   1423.47900     731.2457     633.5015   1423.47900     731.2457     633.5015
   1423.46375     728.7625     634.1567   1423.46375     728.7625     634.1567
   1423.44849     730.2089     633.6684   1423.44849     730.2089     633.6684
   1423.43323     729.6124     634.0656   1423.43323     729.6124     634.0656
   1423.41797     728.8973     633.4559   1423.41797     728.8973     633.4559
   1423.40271     729.6827     633.7241   1423.40271     729.6827     633.7241
   1423.38745     728.2671     634.4745   1423.38745     728.2671     634.4745
   1423.37219     729.4571     634.4395   1423.37219     729.4571     634.4395
   1423.35693     728.0215     634.5213   1423.35693     728.0215     634.5213
   1423.34167     728.4314     634.6249   1423.34167     728.4314     634.6249
   1423.32642     727.4999     634.9900   1423.32642     727.4999     634.9900
   1423.31116     728.4356     635.5784   1423.31116     728.4356     635.5784
   1423.29590     727.3550     633.6048   1423.29590     727.3550     633.6048
   1423.28064     726.2097     634.8287   1423.28064     726.2097     634.8287
   1423.26538     726.6091     634.5699   1423.26538     726.6091     634.5699
   1423.25012     726.4974     633.3413   1423.25012     726.4974     633.3413
   1423.23486     726.8947     633.7733   1423.23486     726.8947     633.7733
   1423.21960     726.0478     634.6722   1423.21960     726.0478     634.6722
   1423.20435     724.9821     633.5608   1423.20435     724.9821     633.5608
   1423.18909     725.4735     633.9365   1423.18909     725.4735     633.9365
   1423.17383     725.4011     633.3408   1423.17383     725.4011     633.3408
   1423.15857     725.1043     632.9710   1423.15857     725.1043     632.9710
   1423.14331     725.0548     632.5109   1423.14331     725.0548     632.5109
   1423.12805     724.3084     632.3494   1423.12805     724.3084     632.3494
   1423.11279     725.2297     633.1230   1423.11279     725.2297     633.1230
   1423.09753     723.5573     631.3386   1423.09753     723.5573     631.3386
   1423.08228     723.4937     631.0292   1423.08228     723.4937     631.0292
   1423.06702     724.4706     631.1393   1423.06702     724.4706     631.1393
   1423.05176     724.2700     631.4096   1423.05176     724.2700     631.4096
   1423.03650     724.5101     630.9468   1423.03650     724.5101     630.9468
   1423.02124     722.8329     631.0703   1423.02124     722.8329     631.0703
   1423.00598     722.7400     629.5287   1423.00598     722.7400     629.5287
   1422.99072     723.0153     629.3586   1422.99072     723.0153     629.3586
   1422.97546     721.8763     629.4282   1422.97546     721.8763     629.4282
   1422.96021     721.7797     629.4143   1422.96021     721.7797     629.4143
   1422.94495     722.3021     628.3995   1422.94495     722.3021     628.3995
   1422.92969     722.7374     628.3782   1422.92969     722.7374     628.3782
   1422.91443     721.8188     626.9229   1422.91443     721.8188     626.9229
   1422.89917     720.3248     627.3397   1422.89917     720.3248     627.3397
   1422.88391     722.0070     626.3577   1422.88391     722.0070     626.3577
   1422.86865     722.0456     626.6469   1422.86865     722.0456     626.6469
   1422.85339     720.9686     625.5919   1422.85339     720.9686     625.5919
   1422.83813     719.4949     625.2634   1422.83813     719.4949     625.2634
   1422.82288     719.7580     623.6073   1422.82288     719.7580     623.6073
   1422.80762     720.9163     624.4989   1422.80762     720.9163     624.4989
   1422.79236     720.0332     624.1031   1422.79236     720.0332     624.1031
   1422.77710     719.8327     623.3213   1422.77710     719.8327     623.3213
   1422.76184     720.5352     621.7526   1422.76184     720.5352     621.7526
   1422.74658     719.8517     621.6158   1422.74658     719.8517     621.6158
   1422.73132     719.9476     621.9504   1422.73132     719.9476     621.9504
   1422.71606     719.0031     620.9849   1422.71606     719.0031     620.9849
   1422.70081     720.0697     619.1722   1422.70081     720.0697     619.1722
   1422.68555     718.1164     619.0673   1422.68555     718.1164     619.0673
   1422.67029     718.3416     619.0601   1422.67029     718.3416     619.0601
   1422.65503     718.3479     617.5232   1422.65503     718.3479     617.5232
   1422.63977     717.5456     617.5819   1422.63977     717.5456     617.5819
   1422.62451     718.1531     615.9311   1422.62451     718.1531     615.9311
   1422.60925     718.1351     615.5271   1422.60925     718.1351     615.5271
   1422.59399     716.0941     614.9311   1422.59399     716.0941     614.9311
   1422.57874     718.7020     613.3759   1422.57874     718.7020     613.3759
   1422.56348     717.9583     612.5676   1422.56348     717.9583     612.5676
   1422.54822     716.7618     611.8165   1422.54822     716.7618     611.8165
   1422.53296     717.0953     611.2759   1422.53296     717.0953     611.2759
   1422.51770     716.8311     610.9744   1422.51770     716.8311     610.9744
   1422.50244     717.0794     609.4534   1422.50244     717.0794     609.4534
   1422.48718     716.0049     608.6068   1422.48718     716.0049     608.6068
   1422.47192     715.6420     608.4702   1422.47192     715.6420     608.4702
   1422.45667     716.8276     607.4597   1422.45667     716.8276     607.4597
   1422.44141     715.1914     606.9071   1422.44141     715.1914     606.9071
   1422.42615     715.0282     604.7558   1422.42615     715.0282     604.7558
   1422.41089     714.9286     603.8176   1422.41089     714.9286     603.8176
   1422.39563     715.3085     603.5237   1422.39563     715.3085     603.5237
   1422.38037     716.0652     602.7304   1422.38037     716.0652     602.7304
   1422.36511     714.0544     601.0656   1422.36511     714.0544     601.0656
   1422.34985     714.2178     600.5734   1422.34985     714.2178     600.5734
   1422.33459     715.0282     599.7529   1422.33459     715.0282     599.7529
   1422.31934     713.6675     598.8823   1422.31934     713.6675     598.8823
   1422.30408     714.4744     596.5968   1422.30408     714.4744     596.5968
   1422.28882     713.7476     595.7786   1422.28882     713.7476     595.7786
   1422.27356     713.9937     595.2886   1422.27356     713.9937     595.2886
   1422.25830     712.8102     593.8481   1422.25830     712.8102     593.8481
   1422.24304     714.1340     593.9267   1422.24304     714.1340     593.9267
   1422.22778     713.4449     591.8359   1422.22778     713.4449     591.8359
   1422.21252     711.5406     590.6613   1422.21252     711.5406     590.6613
   1422.19727     713.2483     589.6305   1422.19727     713.2483     589.6305
   1422.18201     712.2266     589.0779   1422.18201     712.2266     589.0779
   1422.16675     712.9815     588.1235   1422.16675     712.9815     588.1235
   1422.15149     712.5172     586.6876   1422.15149     712.5172     586.6876
   1422.13623     711.6331     585.5129   1422.13623     711.6331     585.5129
   1422.12097     712.2388     584.0785   1422.12097     712.2388     584.0785
   1422.10571     712.0103     583.4272   1422.10571     712.0103     583.4272
   1422.09045     711.2734     581.4618   1422.09045     711.2734     581.4618
   1422.07520     710.8265     580.2606   1422.07520     710.8265     580.2606
   1422.05994     711.0284     579.6708   1422.05994     711.0284     579.6708
   1422.04468     711.4044     578.3177   1422.04468     711.4044     578.3177
   1422.02942     710.6152     577.3953   1422.02942     710.6152     577.3953
   1422.01416     710.1814     575.6915   1422.01416     710.1814     575.6915
   1421.99890     710.5029     574.4486   1421.99890     710.5029     574.4486
   1421.98364     710.3376     573.8812   1421.98364     710.3376     573.8812
   1421.96838     710.0107     572.1483   1421.96838     710.0107     572.1483
   1421.95312     708.6544     570.7096   1421.95312     708.6544     570.7096
   1421.93787     709.5176     569.6133   1421.93787     709.5176     569.6133
   1421.92261     710.4758     569.3591   1421.92261     710.4758     569.3591
   1421.90735     707.8204     568.2646   1421.90735     707.8204     568.2646
   1421.89209     709.0305     566.6971   1421.89209     709.0305     566.6971
   1421.87683     708.7559     564.5043   1421.87683     708.7559     564.5043
   1421.86157     708.6045     563.2266   1421.86157     708.6045     563.2266
   1421.84631     708.5289     562.8049   1421.84631     708.5289     562.8049
   1421.83105     707.2127     559.9511   1421.83105     707.2127     559.9511
   1421.81580     707.3848     559.5370   1421.81580     707.3848     559.5370
   1421.80054     708.5883     559.6665   1421.80054     708.5883     559.6665
   1421.78528     707.3520     556.1533   1421.78528     707.3520     556.1533
   1421.77002     707.9262     555.8890   1421.77002     707.9262     555.8890
   1421.75476     705.7087     554.3507   1421.75476     705.7087     554.3507
   1421.73950     706.4986     553.7972   1421.73950     706.4986     553.7972
   1421.72424     706.1183     551.3706   1421.72424     706.1183     551.3706
   1421.70898     706.6786     550.2262   1421.70898     706.6786     550.2262
   1421.69373     706.7190     549.1819   1421.69373     706.7190     549.1819
   1421.67847     704.9206     548.3488   1421.67847     704.9206     548.3488
   1421.66321     706.0735     547.3478   1421.66321     706.0735     547.3478
   1421.64795     705.6270     545.2490   1421.64795     705.6270     545.2490
   1421.63269     705.7737     544.3967   1421.63269     705.7737     544.3967
   1421.61743     705.0276     542.1552   1421.61743     705.0276     542.1552
   1421.60217     704.0250     541.2896   1421.60217     704.0250     541.2896
   1421.58691     703.9539     540.0120   1421.58691     703.9539     540.0120
   1421.57166     703.8187     539.1150   1421.57166     703.8187     539.1150
   1421.55640     704.1438     537.7202   1421.55640     704.1438     537.7202
   1421.54114     703.9396     535.5729   1421.54114     703.9396     535.5729
   1421.52588     703.6553     534.3683   1421.52588     703.6553     534.3683
   1421.51062     702.5980     532.7080   1421.51062     702.5980     532.7080
   1421.49536     702.9465     531.8187   1421.49536     702.9465     531.8187
   1421.48010     703.7720     530.8141   1421.48010     703.7720     530.8141
   1421.46484     703.2933     530.3311   1421.46484     703.2933     530.3311
   1421.44958     702.8318     528.6547   1421.44958     702.8318     528.6547
   1421.43433     702.2723     526.6505   1421.43433     702.2723     526.6505
   1421.41907     701.9122     525.5790   1421.41907     701.9122     525.5790
   1421.40381     700.5138     523.7128   1421.40381     700.5138     523.7128
   1421.38855     702.1329     522.9724   1421.38855     702.1329     522.9724
   1421.37329     702.5634     520.7819   1421.37329     702.5634     520.7819
   1421.35803     702.2676     520.1504   1421.35803     702.2676     520.1504
   1421.34277     702.0449     518.8029   1421.34277     702.0449     518.8029
   1421.32751     701.4016     518.5295   1421.32751     701.4016     518.5295
   1421.31226     701.2169     516.8615   1421.31226     701.2169     516.8615
   1421.29700     702.3775     515.5212   1421.29700     702.3775     515.5212
   1421.28174     701.1256     514.2585   1421.28174     701.1256     514.2585
   1421.26648     700.7128     513.3942   1421.26648     700.7128     513.3942
   1421.25122     702.1173     512.5505   1421.25122     702.1173     512.5505
   1421.23596     700.6208     511.8837   1421.23596     700.6208     511.8837
   1421.22070     702.2103     508.8763   1421.22070     702.2103     508.8763
   1421.20544     701.2313     510.1520   1421.20544     701.2313     510.1520
   1421.19019     701.2199     508.6840   1421.19019     701.2199     508.6840
   1421.17493     702.6685     506.7121   1421.17493     702.6685     506.7121
   1421.15967     702.6460     506.9094   1421.15967     702.6460     506.9094
   1421.14441     703.6698     506.3598   1421.14441     703.6698     506.3598
   1421.12915     707.6841     507.9146   1421.12915     707.6841     507.9146
   1421.11389     714.2103     511.6973   1421.11389     714.2103     511.6973
   1421.09863     724.4108     517.5898   1421.09863     724.4108     517.5898
   1421.08337     740.8796     527.2321   1421.08337     740.8796     527.2321
   1421.06812     764.1326     543.3751   1421.06812     764.1326     543.3751
   1421.05286     797.0070     565.9807   1421.05286     797.0070     565.9807
   1421.03760     830.9433     587.5402   1421.03760     830.9433     587.5402
   1421.02234     860.0925     605.5829   1421.02234     860.0925     605.5829
   1421.00708     880.2872     617.2665   1421.00708     880.2872     617.2665
   1420.99182     901.9402     631.6714   1420.99182     901.9402     631.6714
   1420.97656     919.1350     641.5366   1420.97656     919.1350     641.5366
   1420.96130     907.0977     633.4205   1420.96130     907.0977     633.4205
   1420.94604     889.9249     618.6373   1420.94604     889.9249     618.6373
   1420.93079     863.6310     599.0157   1420.93079     863.6310     599.0157
   1420.91553     817.2542     565.4550   1420.91553     817.2542     565.4550
   1420.90027     805.2829     558.1960   1420.90027     805.2829     558.1960
   1420.88501     819.6184     566.2281   1420.88501     819.6184     566.2281
   1420.86975     866.2461     596.2317   1420.86975     866.2461     596.2317
   1420.85449     957.1979     657.2196   1420.85449     957.1979     657.2196
   1420.83923    1108.0098     755.0958   1420.83923    1108.0098     755.0958
   1420.82397    1392.4971     941.2698   1420.82397    1392.4971     941.2698
   1420.80872    1666.2953    1121.6295   1420.80872    1666.2953    1121.6295
   1420.79346    1820.0994    1221.0045   1420.79346    1820.0994    1221.0045
   1420.77820    1984.5714    1327.6626   1420.77820    1984.5714    1327.6626
   1420.76294    1940.4750    1291.6680   1420.76294    1940.4750    1291.6680
   1420.74768    1671.8114    1115.0731   1420.74768    1671.8114    1115.0731
   1420.73242    1521.1908    1013.7194   1420.73242    1521.1908    1013.7194
   1420.71716    1625.8594    1077.6519   1420.71716    1625.8594    1077.6519
   1420.70190    1667.3821    1105.5264   1420.70190    1667.3821    1105.5264
   1420.68665    1608.1500    1063.2844   1420.68665    1608.1500    1063.2844
   1420.67139    1435.9535     948.9897   1420.67139    1435.9535     948.9897
   1420.65613    1320.5168     873.5522   1420.65613    1320.5168     873.5522
   1420.64087    1404.5134     925.1135   1420.64087    1404.5134     925.1135
   1420.62561    1409.5865     925.0327   1420.62561    1409.5865     925.0327
   1420.61035    1266.1370     832.6822   1420.61035    1266.1370     832.6822
   1420.59509    1111.0380     730.0530   1420.59509    1111.0380     730.0530
   1420.57983    1094.8348     719.7849   1420.57983    1094.8348     719.7849
   1420.56458    1231.6477     807.2297   1420.56458    1231.6477     807.2297
   1420.54932    1475.8877     960.1837   1420.54932    1475.8877     960.1837
   1420.53406    1744.6920    1133.5359   1420.53406    1744.6920    1133.5359
   1420.51880    1950.1785    1261.4041   1420.51880    1950.1785    1261.4041
   1420.50354    1692.2496    1094.5533   1420.50354    1692.2496    1094.5533
   1420.48828    1272.9353     824.7159   1420.48828    1272.9353     824.7159
   1420.47302     995.5341     646.1072   1420.47302     995.5341     646.1072
   1420.45776     874.3920     568.7870   1420.45776     874.3920     568.7870
   1420.44250     812.3463     528.9190   1420.44250     812.3463     528.9190
   1420.42725     762.3580     496.0435   1420.42725     762.3580     496.0435
   1420.41199     726.8123     472.0383   1420.41199     726.8123     472.0383
   1420.39673     712.1264     462.2554   1420.39673     712.1264     462.2554
   1420.38147     704.3489     456.5483   1420.38147     704.3489     456.5483
   1420.36621     699.8141     453.5556   1420.36621     699.8141     453.5556
   1420.35095     697.4090     451.0671   1420.35095     697.4090     451.0671
   1420.33569     696.6465     450.0634   1420.33569     696.6465     450.0634
   1420.32043     695.6453     448.3309   1420.32043     695.6453     448.3309
   1420.30518     694.3100     447.1462   1420.30518     694.3100     447.1462
   1420.28992     694.1015     445.5474   1420.28992     694.1015     445.5474
   1420.27466     693.7105     444.6892   1420.27466     693.7105     444.6892
   1420.25940     692.5941     443.0769   1420.25940     692.5941     443.0769
   1420.24414     692.9001     441.9438   1420.24414     692.9001     441.9438
   1420.22888     692.0985     441.4053   1420.22888     692.0985     441.4053
   1420.21362     691.8858     440.1254   1420.21362     691.8858     440.1254
   1420.19836     691.3814     439.1984   1420.19836     691.3814     439.1984
   1420.18311     690.7024     437.1143   1420.18311     690.7024     437.1143
   1420.16785     688.4436     436.7777   1420.16785     688.4436     436.7777
   1420.15259     687.1960     435.6641   1420.15259     687.1960     435.6641
   1420.13733     687.3435     434.1730   1420.13733     687.3435     434.1730
   1420.12207     687.8278     432.7694   1420.12207     687.8278     432.7694
   1420.10681     687.0639     432.4101   1420.10681     687.0639     432.4101
   1420.09155     686.1826     431.5411   1420.09155     686.1826     431.5411
   1420.07629     686.7106     431.3189   1420.07629     686.7106     431.3189
   1420.06104     685.2735     430.1335   1420.06104     685.2735     430.1335
   1420.04578     685.0652     429.1771   1420.04578     685.0652     429.1771
   1420.03052     686.4786     429.3163   1420.03052     686.4786     429.3163
   1420.01526     686.2635     429.0891   1420.01526     686.2635     429.0891
   1420.00000     687.1456     429.4686   1420.00000     687.1456     429.4686
   1419.98474     688.0275     429.8479   1419.98474     688.0275     429.8479
   1419.96948     688.3455     427.4176   1419.96948     688.3455     427.4176
   1419.95422     684.2687     426.1135   1419.95422     684.2687     426.1135
   1419.93896     683.7784     425.2882   1419.93896     683.7784     425.2882
   1419.92371     684.8453     424.8425   1419.92371     684.8453     424.8425
   1419.90845     685.2097     423.8469   1419.90845     685.2097     423.8469
   1419.89319     684.9702     423.2089   1419.89319     684.9702     423.2089
   1419.87793     684.2512     422.7229   1419.87793     684.2512     422.7229
   1419.86267     684.7660     423.0374   1419.86267     684.7660     423.0374
   1419.84741     685.5583     422.4595   1419.84741     685.5583     422.4595
   1419.83215     686.3152     421.8676   1419.83215     686.3152     421.8676
   1419.81689     686.7933     421.3094   1419.81689     686.7933     421.3094
   1419.80164     686.5587     421.3397   1419.80164     686.5587     421.3397
   1419.78638     686.0355     420.4361   1419.78638     686.0355     420.4361
   1419.77112     686.5524     420.4908   1419.77112     686.5524     420.4908
   1419.75586     686.5959     420.3246   1419.75586     686.5959     420.3246
   1419.74060     686.7004     420.1647   1419.74060     686.7004     420.1647
   1419.72534     688.1852     419.3862   1419.72534     688.1852     419.3862
   1419.71008     686.9371     419.4732   1419.71008     686.9371     419.4732
   1419.69482     687.7870     419.0318   1419.69482     687.7870     419.0318
   1419.67957     687.7084     418.9723   1419.67957     687.7084     418.9723
   1419.66431     688.8251     418.8030   1419.66431     688.8251     418.8030
   1419.64905     689.0547     418.0697   1419.64905     689.0547     418.0697
   1419.63379     688.9505     419.2263   1419.63379     688.9505     419.2263
   1419.61853     690.2626     418.0854   1419.61853     690.2626     418.0854
   1419.60327     690.0070     418.0112   1419.60327     690.0070     418.0112
   1419.58801     690.6777     417.7953   1419.58801     690.6777     417.7953
   1419.57275     691.4667     417.7535   1419.57275     691.4667     417.7535
   1419.55750     690.4292     417.2900   1419.55750     690.4292     417.2900
   1419.54224     690.4649     417.4133   1419.54224     690.4649     417.4133
   1419.52698     691.6660     417.0380   1419.52698     691.6660     417.0380
   1419.51172     691.8026     417.3548   1419.51172     691.8026     417.3548
   1419.49646     693.4976     417.0983   1419.49646     693.4976     417.0983
   1419.48120     693.0236     417.2460   1419.48120     693.0236     417.2460
   1419.46594     692.3901     417.0772   1419.46594     692.3901     417.0772
   1419.45068     694.3022     416.9026   1419.45068     694.3022     416.9026
   1419.43542     693.7491     415.9095   1419.43542     693.7491     415.9095
   1419.42017     693.0682     417.0746   1419.42017     693.0682     417.0746
   1419.40491     693.7461     416.6103   1419.40491     693.7461     416.6103
   1419.38965     695.2728     416.6323   1419.38965     695.2728     416.6323
   1419.37439     695.3043     416.5277   1419.37439     695.3043     416.5277
   1419.35913     695.5515     417.0568   1419.35913     695.5515     417.0568
   1419.34387     697.0408     416.9009   1419.34387     697.0408     416.9009
   1419.32861     696.7581     416.4927   1419.32861     696.7581     416.4927
   1419.31335     696.2650     417.2444   1419.31335     696.2650     417.2444
   1419.29810     697.4237     416.8517   1419.29810     697.4237     416.8517
   1419.28284     697.2571     416.9657   1419.28284     697.2571     416.9657
   1419.26758     699.3440     417.6647   1419.26758     699.3440     417.6647
   1419.25232     699.0927     417.2090   1419.25232     699.0927     417.2090
   1419.23706     698.8998     417.5459   1419.23706     698.8998     417.5459
   1419.22180     701.0596     417.6323   1419.22180     701.0596     417.6323
   1419.20654     700.5859     417.3569   1419.20654     700.5859     417.3569
   1419.19128     701.4601     417.8458   1419.19128     701.4601     417.8458
   1419.17603     700.7936     417.3746   1419.17603     700.7936     417.3746
   1419.16077     701.4112     418.1124   1419.16077     701.4112     418.1124
   1419.14551     702.7788     418.0485   1419.14551     702.7788     418.0485
   1419.13025     703.0639     418.6483   1419.13025     703.0639     418.6483
   1419.11499     703.8431     418.7817   1419.11499     703.8431     418.7817
   1419.09973     704.7819     418.5826   1419.09973     704.7819     418.5826
   1419.08447     704.3804     418.9689   1419.08447     704.3804     418.9689
   1419.06921     706.0089     418.7338   1419.06921     706.0089     418.7338
   1419.05396     706.0763     419.4154   1419.05396     706.0763     419.4154
   1419.03870     707.2877     420.1719   1419.03870     707.2877     420.1719
   1419.02344     707.1540     420.5667   1419.02344     707.1540     420.5667
   1419.00818     707.7273     420.2428   1419.00818     707.7273     420.2428
   1418.99292     708.3423     420.4884   1418.99292     708.3423     420.4884
   1418.97766     709.4876     421.0290   1418.97766     709.4876     421.0290
   1418.96240     710.0276     421.5906   1418.96240     710.0276     421.5906
   1418.94714     710.6676     421.9620   1418.94714     710.6676     421.9620
   1418.93188     709.6140     422.1107   1418.93188     709.6140     422.1107
   1418.91663     710.5632     421.8615   1418.91663     710.5632     421.8615
   1418.90137     712.7570     423.1375   1418.90137     712.7570     423.1375
   1418.88611     712.3122     423.1069   1418.88611     712.3122     423.1069
   1418.87085     712.7896     422.8448   1418.87085     712.7896     422.8448
   1418.85559     714.0047     423.9299   1418.85559     714.0047     423.9299
   1418.84033     714.6871     424.2373   1418.84033     714.6871     424.2373
   1418.82507     714.7762     424.7057   1418.82507     714.7762     424.7057
   1418.80981     716.3121     425.6414   1418.80981     716.3121     425.6414
   1418.79456     715.8893     425.5029   1418.79456     715.8893     425.5029
   1418.77930     716.6356     426.0984   1418.77930     716.6356     426.0984
   1418.76404     718.6100     426.5835   1418.76404     718.6100     426.5835
   1418.74878     718.2436     426.6455   1418.74878     718.2436     426.6455
   1418.73352     719.6393     427.6170   1418.73352     719.6393     427.6170
   1418.71826     719.8107     427.9059   1418.71826     719.8107     427.9059
   1418.70300     721.2864     428.2069   1418.70300     721.2864     428.2069
   1418.68774     721.7872     428.9799   1418.68774     721.7872     428.9799
   1418.67249     722.9630     429.6299   1418.67249     722.9630     429.6299
   1418.65723     722.6147     430.1721   1418.65723     722.6147     430.1721
   1418.64197     723.8003     430.3890   1418.64197     723.8003     430.3890
   1418.62671     725.0600     431.3281   1418.62671     725.0600     431.3281
   1418.61145     725.0309     431.3825   1418.61145     725.0309     431.3825
   1418.59619     727.1201     432.2295   1418.59619     727.1201     432.2295
   1418.58093     726.8766     432.7117   1418.58093     726.8766     432.7117
   1418.56567     727.7920     433.3153   1418.56567     727.7920     433.3153
   1418.55042     728.7753     434.3333   1418.55042     728.7753     434.3333
   1418.53516     730.5991     435.2373   1418.53516     730.5991     435.2373
   1418.51990     730.5032     436.4250   1418.51990     730.5032     436.4250
   1418.50464     730.5282     436.0101   1418.50464     730.5282     436.0101
   1418.48938     731.7731     437.0539   1418.48938     731.7731     437.0539
   1418.47412     733.0833     437.7435   1418.47412     733.0833     437.7435
   1418.45886     732.8975     438.4610   1418.45886     732.8975     438.4610
   1418.44360     733.8098     438.9968   1418.44360     733.8098     438.9968
   1418.42834     735.5472     439.5401   1418.42834     735.5472     439.5401
   1418.41309     736.8748     440.5193   1418.41309     736.8748     440.5193
   1418.39783     737.1968     440.4897   1418.39783     737.1968     440.4897
   1418.38257     737.4413     440.8850   1418.38257     737.4413     440.8850
   1418.36731     738.2155     442.7340   1418.36731     738.2155     442.7340
   1418.35205     740.0728     443.2397   1418.35205     740.0728     443.2397
   1418.33679     740.1161     444.2068   1418.33679     740.1161     444.2068
   1418.32153     742.4159     444.6034   1418.32153     742.4159     444.6034
   1418.30627     742.3668     445.4082   1418.30627     742.3668     445.4082
   1418.29102     743.2570     446.2496   1418.29102     743.2570     446.2496
   1418.27576     744.0917     446.5272   1418.27576     744.0917     446.5272
   1418.26050     746.0983     447.4965   1418.26050     746.0983     447.4965
   1418.24524     746.1040     447.7172   1418.24524     746.1040     447.7172
   1418.22998     746.8785     448.6077   1418.22998     746.8785     448.6077
   1418.21472     748.8312     450.6395   1418.21472     748.8312     450.6395
   1418.19946     750.8001     450.6250   1418.19946     750.8001     450.6250
   1418.18420     750.0999     451.4029   1418.18420     750.0999     451.4029
   1418.16895     751.0839     451.8963   1418.16895     751.0839     451.8963
   1418.15369     752.1166     452.6537   1418.15369     752.1166     452.6537
   1418.13843     752.5644     454.1949   1418.13843     752.5644     454.1949
   1418.12317     754.1027     454.8894   1418.12317     754.1027     454.8894
   1418.10791     754.6752     455.5728   1418.10791     754.6752     455.5728
   1418.09265     755.3655     456.7989   1418.09265     755.3655     456.7989
   1418.07739     756.0250     457.8319   1418.07739     756.0250     457.8319
   1418.06213     758.6614     458.0477   1418.06213     758.6614     458.0477
   1418.04688     759.1033     458.7820   1418.04688     759.1033     458.7820
   1418.03162     759.5729     460.0144   1418.03162     759.5729     460.0144
   1418.01636     760.5988     460.7399   1418.01636     760.5988     460.7399
   1418.00110     761.1322     462.0067   1418.00110     761.1322     462.0067
   1417.98584     762.4455     462.6690   1417.98584     762.4455     462.6690
   1417.97058     762.6580     463.5586   1417.97058     762.6580     463.5586
   1417.95532     764.5022     464.8318   1417.95532     764.5022     464.8318
   1417.94006     765.3580     465.2199   1417.94006     765.3580     465.2199
   1417.92480     766.4445     466.4735   1417.92480     766.4445     466.4735
   1417.90955     768.5725     466.3730   1417.90955     768.5725     466.3730
   1417.89429     767.9958     468.0172   1417.89429     767.9958     468.0172
   1417.87903     768.4134     469.3689   1417.87903     768.4134     469.3689
   1417.86377     770.3824     469.1808   1417.86377     770.3824     469.1808
   1417.84851     771.1746     470.6286   1417.84851     771.1746     470.6286
   1417.83325     772.0341     471.3539   1417.83325     772.0341     471.3539
   1417.81799     772.3131     472.0478   1417.81799     772.3131     472.0478
   1417.80273     774.2958     473.1516   1417.80273     774.2958     473.1516
   1417.78748     775.7716     473.5685   1417.78748     775.7716     473.5685
   1417.77222     776.6563     474.6830   1417.77222     776.6563     474.6830
   1417.75696     777.6766     475.4889   1417.75696     777.6766     475.4889
   1417.74170     778.0543     476.4289   1417.74170     778.0543     476.4289
   1417.72644     778.8515     477.2790   1417.72644     778.8515     477.2790
   1417.71118     779.7899     479.0111   1417.71118     779.7899     479.0111
   1417.69592     782.3220     480.4390   1417.69592     782.3220     480.4390
   1417.68066     781.6059     480.5144   1417.68066     781.6059     480.5144
   1417.66541     782.5549     480.8547   1417.66541     782.5549     480.8547
   1417.65015     784.0070     483.3979   1417.65015     784.0070     483.3979
   1417.63489     785.0103     482.8285   1417.63489     785.0103     482.8285
   1417.61963     787.2469     483.8470   1417.61963     787.2469     483.8470
   1417.60437     787.2890     485.3102   1417.60437     787.2890     485.3102
   1417.58911     787.2295     485.6071   1417.58911     787.2295     485.6071
   1417.57385     788.7615     486.6158   1417.57385     788.7615     486.6158
   1417.55859     788.8782     487.4693   1417.55859     788.8782     487.4693
   1417.54333     790.3873     488.5073   1417.54333     790.3873     488.5073
   1417.52808     790.7995     489.3658   1417.52808     790.7995     489.3658
   1417.51282     793.5071     490.5191   1417.51282     793.5071     490.5191
   1417.49756     791.3619     491.3164   1417.49756     791.3619     491.3164
   1417.48230     793.3030     491.9476   1417.48230     793.3030     491.9476
   1417.46704     794.4369     492.7342   1417.46704     794.4369     492.7342
   1417.45178     795.9649     494.1652   1417.45178     795.9649     494.1652
   1417.43652     795.8770     494.2737   1417.43652     795.8770     494.2737
   1417.42126     797.3402     494.6699   1417.42126     797.3402     494.6699
   1417.40601     798.9044     496.1938   1417.40601     798.9044     496.1938
   1417.39075     798.9375     497.1763   1417.39075     798.9375     497.1763
   1417.37549     800.2839     498.2124   1417.37549     800.2839     498.2124
   1417.36023     801.1303     498.2920   1417.36023     801.1303     498.2920
   1417.34497     802.6569     499.8416   1417.34497     802.6569     499.8416
   1417.32971     802.8309     499.4694   1417.32971     802.8309     499.4694
   1417.31445     803.8383     500.3124   1417.31445     803.8383     500.3124
   1417.29919     803.9963     502.2755   1417.29919     803.9963     502.2755
   1417.28394     804.2496     502.2589   1417.28394     804.2496     502.2589
   1417.26868     806.9424     502.8882   1417.26868     806.9424     502.8882
   1417.25342     807.2436     504.2294   1417.25342     807.2436     504.2294
   1417.23816     807.8489     505.5298   1417.23816     807.8489     505.5298
   1417.22290     809.5389     505.7162   1417.22290     809.5389     505.7162
   1417.20764     808.6885     505.7322   1417.20764     808.6885     505.7322
   1417.19238     809.4515     507.1855   1417.19238     809.4515     507.1855
   1417.17712     813.0876     507.9031   1417.17712     813.0876     507.9031
   1417.16187     810.5540     508.2649   1417.16187     810.5540     508.2649
   1417.14661     810.6955     508.6638   1417.14661     810.6955     508.6638
   1417.13135     813.2559     509.4355   1417.13135     813.2559     509.4355
   1417.11609     812.0888     510.1982   1417.11609     812.0888     510.1982
   1417.10083     814.2732     510.8874   1417.10083     814.2732     510.8874
   1417.08557     813.9128     511.3684   1417.08557     813.9128     511.3684
   1417.07031     814.1811     511.2379   1417.07031     814.1811     511.2379
   1417.05505     816.3335     511.7821   1417.05505     816.3335     511.7821
   1417.03979     816.9858     513.0944   1417.03979     816.9858     513.0944
   1417.02454     816.9988     513.5848   1417.02454     816.9988     513.5848
   1417.00928     817.6014     513.5017   1417.00928     817.6014     513.5017
   1416.99402     818.2944     514.2540   1416.99402     818.2944     514.2540
   1416.97876     819.7755     516.0010   1416.97876     819.7755     516.0010
   1416.96350     818.5734     515.8070   1416.96350     818.5734     515.8070
   1416.94824     819.1407     515.7287   1416.94824     819.1407     515.7287
   1416.93298     820.2985     516.8627   1416.93298     820.2985     516.8627
   1416.91772     820.9887     517.1614   1416.91772     820.9887     517.1614
   1416.90247     820.0385     517.1683   1416.90247     820.0385     517.1683
   1416.88721     821.4799     517.6337   1416.88721     821.4799     517.6337
   1416.87195     822.2357     518.0622   1416.87195     822.2357     518.0622
   1416.85669     820.9484     518.8286   1416.85669     820.9484     518.8286
   1416.84143     822.3592     519.1857   1416.84143     822.3592     519.1857
   1416.82617     821.8641     519.4272   1416.82617     821.8641     519.4272
   1416.81091     823.3505     520.0656   1416.81091     823.3505     520.0656
   1416.79565     823.8956     519.9083   1416.79565     823.8956     519.9083
   1416.78040     823.3881     520.4326   1416.78040     823.3881     520.4326
   1416.76514     824.2294     520.2861   1416.76514     824.2294     520.2861
   1416.74988     823.7170     521.5361   1416.74988     823.7170     521.5361
   1416.73462     823.9575     520.1177   1416.73462     823.9575     520.1177
   1416.71936     824.5013     520.2145   1416.71936     824.5013     520.2145
   1416.70410     826.9517     521.0650   1416.70410     826.9517     521.0650
   1416.68884     826.4420     520.4138   1416.68884     826.4420     520.4138
   1416.67358     824.9047     521.7343   1416.67358     824.9047     521.7343
   1416.65833     825.2751     521.9219   1416.65833     825.2751     521.9219
   1416.64307     825.5970     522.0098   1416.64307     825.5970     522.0098
   1416.62781     826.9924     521.5358   1416.62781     826.9924     521.5358
   1416.61255     826.5245     521.0636   1416.61255     826.5245     521.0636
   1416.59729     827.3414     521.7447   1416.59729     827.3414     521.7447
   1416.58203     825.3367     521.0417   1416.58203     825.3367     521.0417
   1416.56677     826.7899     521.6332   1416.56677     826.7899     521.6332
   1416.55151     826.2363     520.5604   1416.55151     826.2363     520.5604
   1416.53625     826.0793     521.0924   1416.53625     826.0793     521.0924
   1416.52100     825.8575     521.2206   1416.52100     825.8575     521.2206
   1416.50574     827.0568     520.6199   1416.50574     827.0568     520.6199
   1416.49048     827.9163     520.9750   1416.49048     827.9163     520.9750
   1416.47522     825.9821     520.5336   1416.47522     825.9821     520.5336
   1416.45996     826.5978     520.5713   1416.45996     826.5978     520.5713
   1416.44470     826.4318     521.2783   1416.44470     826.4318     521.2783
   1416.42944     826.5358     520.2903   1416.42944     826.5358     520.2903
   1416.41418     827.1230     520.1112   1416.41418     827.1230     520.1112
   1416.39893     825.2169     519.2265   1416.39893     825.2169     519.2265
   1416.38367     826.3420     519.7340   1416.38367     826.3420     519.7340
   1416.36841     825.7125     520.2106   1416.36841     825.7125     520.2106
   1416.35315     825.0380     519.6445   1416.35315     825.0380     519.6445
   1416.33789     824.3670     518.7699   1416.33789     824.3670     518.7699
   1416.32263     824.4698     518.6145   1416.32263     824.4698     518.6145
   1416.30737     825.8353     518.2831   1416.30737     825.8353     518.2831
   1416.29211     825.0878     518.0781   1416.29211     825.0878     518.0781
   1416.27686     824.5435     517.8163   1416.27686     824.5435     517.8163
   1416.26160     824.0217     517.9000   1416.26160     824.0217     517.9000
   1416.24634     824.1971     517.7526   1416.24634     824.1971     517.7526
   1416.23108     821.8037     516.9981   1416.23108     821.8037     516.9981
   1416.21582     822.4260     515.9335   1416.21582     822.4260     515.9335
   1416.20056     821.7589     515.3826   1416.20056     821.7589     515.3826
   1416.18530     822.4519     515.7648   1416.18530     822.4519     515.7648
   1416.17004     822.3486     515.3430   1416.17004     822.3486     515.3430
   1416.15479     819.8356     514.8025   1416.15479     819.8356     514.8025
   1416.13953     819.6215     513.9660   1416.13953     819.6215     513.9660
   1416.12427     821.0146     513.5199   1416.12427     821.0146     513.5199
   1416.10901     819.2645     513.1207   1416.10901     819.2645     513.1207
   1416.09375     818.4255     512.9669   1416.09375     818.4255     512.9669
   1416.07849     818.5071     511.9454   1416.07849     818.5071     511.9454
   1416.06323     818.3962     511.6106   1416.06323     818.3962     511.6106
   1416.04797     819.2487     511.2898   1416.04797     819.2487     511.2898
   1416.03271     817.4788     510.9078   1416.03271     817.4788     510.9078
   1416.01746     816.8622     509.4155   1416.01746     816.8622     509.4155
   1416.00220     817.2726     510.2322   1416.00220     817.2726     510.2322
   1415.98694     815.3439     508.9687   1415.98694     815.3439     508.9687
   1415.97168     814.0689     508.6063   1415.97168     814.0689     508.6063
   1415.95642     814.5296     508.0337   1415.95642     814.5296     508.0337
   1415.94116     813.1969     507.5790   1415.94116     813.1969     507.5790
   1415.92590     813.0609     506.6872   1415.92590     813.0609     506.6872
   1415.91064     814.0969     507.4814   1415.91064     814.0969     507.4814
   1415.89539     811.0408     504.8865   1415.89539     811.0408     504.8865
   1415.88013     810.9531     505.2291   1415.88013     810.9531     505.2291
   1415.86487     810.8709     504.3862   1415.86487     810.8709     504.3862
   1415.84961     810.7667     505.1532   1415.84961     810.7667     505.1532
   1415.83435     808.8187     504.3606   1415.83435     808.8187     504.3606
   1415.81909     808.9185     502.5848   1415.81909     808.9185     502.5848
   1415.80383     807.1048     502.2497   1415.80383     807.1048     502.2497
   1415.78857     806.6203     502.5544   1415.78857     806.6203     502.5544
   1415.77332     805.4818     500.7290   1415.77332     805.4818     500.7290
   1415.75806     805.8990     499.6460   1415.75806     805.8990     499.6460
   1415.74280     803.7953     500.1780   1415.74280     803.7953     500.1780
   1415.72754     803.7047     499.7805   1415.72754     803.7047     499.7805
   1415.71228     802.8035     498.2103   1415.71228     802.8035     498.2103
   1415.69702     800.6140     498.4164   1415.69702     800.6140     498.4164
   1415.68176     800.4241     497.6382   1415.68176     800.4241     497.6382
   1415.66650     799.9059     496.8485   1415.66650     799.9059     496.8485
   1415.65125     799.5568     496.3625   1415.65125     799.5568     496.3625
   1415.63599     798.8360     495.6209   1415.63599     798.8360     495.6209
   1415.62073     797.1602     494.0549   1415.62073     797.1602     494.0549
   1415.60547     796.5848     494.0807   1415.60547     796.5848     494.0807
   1415.59021     795.6564     494.2273   1415.59021     795.6564     494.2273
   1415.57495     795.1316     492.8300   1415.57495     795.1316     492.8300
   1415.55969     793.0306     492.9049   1415.55969     793.0306     492.9049
   1415.54443     793.2146     491.6077   1415.54443     793.2146     491.6077
   1415.52917     792.7433     491.1388   1415.52917     792.7433     491.1388
   1415.51392     791.0511     490.4849   1415.51392     791.0511     490.4849
   1415.49866     789.1096     489.7320   1415.49866     789.1096     489.7320
   1415.48340     788.6256     488.7238   1415.48340     788.6256     488.7238
   1415.46814     785.6899     487.9502   1415.46814     785.6899     487.9502
   1415.45288     786.4767     487.8601   1415.45288     786.4767     487.8601
   1415.43762     786.1179     487.9695   1415.43762     786.1179     487.9695
   1415.42236     784.8845     486.4412   1415.42236     784.8845     486.4412
   1415.40710     783.3594     485.3006   1415.40710     783.3594     485.3006
   1415.39185     781.3384     485.2888   1415.39185     781.3384     485.2888
   1415.37659     780.0944     483.5861   1415.37659     780.0944     483.5861
   1415.36133     778.3898     483.6575   1415.36133     778.3898     483.6575
   1415.34607     778.4470     482.8164   1415.34607     778.4470     482.8164
   1415.33081     776.7722     482.9054   1415.33081     776.7722     482.9054
   1415.31555     775.4264     481.4572   1415.31555     775.4264     481.4572
   1415.30029     774.4132     480.3104   1415.30029     774.4132     480.3104
   1415.28503     773.3470     479.5041   1415.28503     773.3470     479.5041
   1415.26978     771.0582     479.3126   1415.26978     771.0582     479.3126
   1415.25452     770.8975     478.2328   1415.25452     770.8975     478.2328
   1415.23926     768.9802     477.5154   1415.23926     768.9802     477.5154
   1415.22400     768.0513     476.3731   1415.22400     768.0513     476.3731
   1415.20874     766.1649     475.9996   1415.20874     766.1649     475.9996
   1415.19348     764.2325     475.8402   1415.19348     764.2325     475.8402
   1415.17822     765.5121     475.3807   1415.17822     765.5121     475.3807
   1415.16296     761.6685     473.6306   1415.16296     761.6685     473.6306
   1415.14771     759.9008     473.2250   1415.14771     759.9008     473.2250
   1415.13245     758.6894     471.9476   1415.13245     758.6894     471.9476
   1415.11719     757.6398     471.2263   1415.11719     757.6398     471.2263
   1415.10193     756.4211     470.4347   1415.10193     756.4211     470.4347
   1415.08667     754.6407     469.7361   1415.08667     754.6407     469.7361
   1415.07141     753.0146     469.3177   1415.07141     753.0146     469.3177
   1415.05615     751.4613     468.2076   1415.05615     751.4613     468.2076
   1415.04089     750.9911     467.2181   1415.04089     750.9911     467.2181
   1415.02563     748.3297     467.1538   1415.02563     748.3297     467.1538
   1415.01038     748.1104     465.9158   1415.01038     748.1104     465.9158
   1414.99512     744.0012     464.6124   1414.99512     744.0012     464.6124
   1414.97986     744.5549     463.7304   1414.97986     744.5549     463.7304
   1414.96460     742.1193     463.2433   1414.96460     742.1193     463.2433
   1414.94934     740.1439     462.3878   1414.94934     740.1439     462.3878
   1414.93408     738.5711     461.1115   1414.93408     738.5711     461.1115
   1414.91882     737.5983     460.1281   1414.91882     737.5983     460.1281
   1414.90356     735.3960     459.6732   1414.90356     735.3960     459.6732
   1414.88831     733.6143     458.2628   1414.88831     733.6143     458.2628
   1414.87305     731.5725     457.5506   1414.87305     731.5725     457.5506
   1414.85779     730.2462     456.8930   1414.85779     730.2462     456.8930
   1414.84253     727.5735     455.0088   1414.84253     727.5735     455.0088
   1414.82727     725.5686     454.6272   1414.82727     725.5686     454.6272
   1414.81201     723.6561     453.5270   1414.81201     723.6561     453.5270
   1414.79675     722.6757     453.3145   1414.79675     722.6757     453.3145
   1414.78149     719.7587     451.0771   1414.78149     719.7587     451.0771
   1414.76624     717.3011     450.3342   1414.76624     717.3011     450.3342
   1414.75098     715.8679     448.8360   1414.75098     715.8679     448.8360
   1414.73572     713.8651     448.1637   1414.73572     713.8651     448.1637
   1414.72046     711.5312     447.5869   1414.72046     711.5312     447.5869
   1414.70520     709.9191     445.9580   1414.70520     709.9191     445.9580
   1414.68994     707.8964     444.7391   1414.68994     707.8964     444.7391
   1414.67468     706.6386     443.7474   1414.67468     706.6386     443.7474
   1414.65942     703.8912     442.9242   1414.65942     703.8912     442.9242
   1414.64417     701.3890     441.2347   1414.64417     701.3890     441.2347
   1414.62891     699.6880     440.6860   1414.62891     699.6880     440.6860
   1414.61365     696.8774     439.4192   1414.61365     696.8774     439.4192
   1414.59839     693.7893     438.3253   1414.59839     693.7893     438.3253
   1414.58313     692.1168     437.5544   1414.58313     692.1168     437.5544
   1414.56787     689.8223     436.0556   1414.56787     689.8223     436.0556
   1414.55261     687.7286     434.3823   1414.55261     687.7286     434.3823
   1414.53735     686.7623     434.0220   1414.53735     686.7623     434.0220
   1414.52209     683.4424     431.8741   1414.52209     683.4424     431.8741
   1414.50684     682.2294     431.3788   1414.50684     682.2294     431.3788
   1414.49158     677.9838     429.3419   1414.49158     677.9838     429.3419
   1414.47632     675.5846     429.0127   1414.47632     675.5846     429.0127
   1414.46106     674.3051     427.6744   1414.46106     674.3051     427.6744
   1414.44580     672.0934     426.4966   1414.44580     672.0934     426.4966
   1414.43054     669.4072     425.6172   1414.43054     669.4072     425.6172
   1414.41528     667.5664     423.8733   1414.41528     667.5664     423.8733
   1414.40002     665.0052     423.1611   1414.40002     665.0052     423.1611
   1414.38477     662.8936     421.4375   1414.38477     662.8936     421.4375
   1414.36951     659.9495     420.4074   1414.36951     659.9495     420.4074
   1414.35425     657.1711     419.4394   1414.35425     657.1711     419.4394
   1414.33899     653.5032     417.3176   1414.33899     653.5032     417.3176
   1414.32373     652.1677     416.1576   1414.32373     652.1677     416.1576
   1414.30847     649.2545     414.6906   1414.30847     649.2545     414.6906
   1414.29321     646.8256     413.9895   1414.29321     646.8256     413.9895
   1414.27795     643.1903     412.5932   1414.27795     643.1903     412.5932
   1414.26270     641.8438     411.5898   1414.26270     641.8438     411.5898
   1414.24744     639.1360     409.8781   1414.24744     639.1360     409.8781
   1414.23218     636.7941     407.9978   1414.23218     636.7941     407.9978
   1414.21692     634.2867     406.5496   1414.21692     634.2867     406.5496
   1414.20166     630.7537     405.7745   1414.20166     630.7537     405.7745
   1414.18640     627.8214     404.2345   1414.18640     627.8214     404.2345
   1414.17114     624.9733     402.6354   1414.17114     624.9733     402.6354
   1414.15588     622.3338     402.2172   1414.15588     622.3338     402.2172
   1414.14062     620.2806     399.9366   1414.14062     620.2806     399.9366
   1414.12537     616.9156     398.8953   1414.12537     616.9156     398.8953
   1414.11011     613.5261     397.5881   1414.11011     613.5261     397.5881
   1414.09485     610.8036     395.7591   1414.09485     610.8036     395.7591
   1414.07959     609.2985     394.6507   1414.07959     609.2985     394.6507
   1414.06433     606.3483     392.7040   1414.06433     606.3483     392.7040
   1414.04907     602.9379     391.5565   1414.04907     602.9379     391.5565
   1414.03381     599.6976     390.7172   1414.03381     599.6976     390.7172
   1414.01855     597.7946     388.4381   1414.01855     597.7946     388.4381
   1414.00330     615.6365     395.5500   1414.00330     615.6365     395.5500
   1413.98804     592.6491     386.0542   1413.98804     592.6491     386.0542
   1413.97278     588.3898     384.1847   1413.97278     588.3898     384.1847
   1413.95752     584.5784     383.0957   1413.95752     584.5784     383.0957
   1413.94226     581.4392     381.1268   1413.94226     581.4392     381.1268
   1413.92700     579.3275     379.3966   1413.92700     579.3275     379.3966
   1413.91174     576.4235     378.1879   1413.91174     576.4235     378.1879
   1413.89648     573.2137     376.5904   1413.89648     573.2137     376.5904
   1413.88123     570.2009     375.2713   1413.88123     570.2009     375.2713
   1413.86597     567.5059     373.4256   1413.86597     567.5059     373.4256
   1413.85071     563.9942     372.5315   1413.85071     563.9942     372.5315
   1413.83545     561.2349     370.4626   1413.83545     561.2349     370.4626
   1413.82019     558.4449     368.7208   1413.82019     558.4449     368.7208
   1413.80493     553.9467     368.3026   1413.80493     553.9467     368.3026
   1413.78967     551.8351     366.6906   1413.78967     551.8351     366.6906
   1413.77441     549.3497     364.3877   1413.77441     549.3497     364.3877
   1413.75916     547.2366     363.3328   1413.75916     547.2366     363.3328
   1413.74390     542.8528     361.8300   1413.74390     542.8528     361.8300
   1413.72864     539.7214     360.4134   1413.72864     539.7214     360.4134
   1413.71338     537.4358     358.7091   1413.71338     537.4358     358.7091
   1413.69812     534.3696     356.5728   1413.69812     534.3696     356.5728
   1413.68286     531.6165     355.5404   1413.68286     531.6165     355.5404
   1413.66760     528.3331     353.7368   1413.66760     528.3331     353.7368
   1413.65234     526.1939     352.5305   1413.65234     526.1939     352.5305
   1413.63708     522.2010     350.4764   1413.63708     522.2010     350.4764
   1413.62183     519.0522     348.2993   1413.62183     519.0522     348.2993
   1413.60657     516.5494     347.7888   1413.60657     516.5494     347.7888
   1413.59131     512.8814     346.2130   1413.59131     512.8814     346.2130
   1413.57605     511.1418     344.7255   1413.57605     511.1418     344.7255
   1413.56079     507.1893     343.2691   1413.56079     507.1893     343.2691
   1413.54553     505.3843     341.7430   1413.54553     505.3843     341.7430
   1413.53027     502.3615     340.1064   1413.53027     502.3615     340.1064
   1413.51501     498.2734     338.3954   1413.51501     498.2734     338.3954
   1413.49976     496.7636     337.1548   1413.49976     496.7636     337.1548
   1413.48450     493.1904     335.4663   1413.48450     493.1904     335.4663
   1413.46924     490.1374     334.1696   1413.46924     490.1374     334.1696
   1413.45398     487.7865     332.8946   1413.45398     487.7865     332.8946
   1413.43872     484.4767     331.4821   1413.43872     484.4767     331.4821
   1413.42346     480.9999     329.9011   1413.42346     480.9999     329.9011
   1413.40820     478.7086     328.7083   1413.40820     478.7086     328.7083
   1413.39294     475.8057     326.8690   1413.39294     475.8057     326.8690
   1413.37769     473.0335     325.5071   1413.37769     473.0335     325.5071
   1413.36243     470.6385     323.9625   1413.36243     470.6385     323.9625
   1413.34717     467.5451     322.8573   1413.34717     467.5451     322.8573
   1413.33191     464.8518     321.2744   1413.33191     464.8518     321.2744
   1413.31665     462.1404     319.9644   1413.31665     462.1404     319.9644
   1413.30139     458.6655     319.0300   1413.30139     458.6655     319.0300
   1413.28613     456.5770     316.9300   1413.28613     456.5770     316.9300
   1413.27087     453.6315     315.8862   1413.27087     453.6315     315.8862
   1413.25562     451.4607     314.8450   1413.25562     451.4607     314.8450
   1413.24036     448.2831     313.4327   1413.24036     448.2831     313.4327
   1413.22510     446.1516     311.5883   1413.22510     446.1516     311.5883
   1413.20984     443.4852     310.7392   1413.20984     443.4852     310.7392
   1413.19458     441.3667     308.6378   1413.19458     441.3667     308.6378
   1413.17932     437.9749     308.1007   1413.17932     437.9749     308.1007
   1413.16406     436.4309     307.0017   1413.16406     436.4309     307.0017
   1413.14880     433.9277     305.8956   1413.14880     433.9277     305.8956
   1413.13354     431.1905     304.3163   1413.13354     431.1905     304.3163
   1413.11829     428.6875     303.4159   1413.11829     428.6875     303.4159
   1413.10303     427.1170     301.8403   1413.10303     427.1170     301.8403
   1413.08777     424.0452     301.3102   1413.08777     424.0452     301.3102
   1413.07251     422.0456     299.6310   1413.07251     422.0456     299.6310
   1413.05725     419.8065     298.2917   1413.05725     419.8065     298.2917
   1413.04199     417.9784     297.4134   1413.04199     417.9784     297.4134
   1413.02673     415.9378     296.5115   1413.02673     415.9378     296.5115
   1413.01147     412.2249     295.7204   1413.01147     412.2249     295.7204
   1412.99622     410.9510     293.9383   1412.99622     410.9510     293.9383
   1412.98096     409.1636     293.7772   1412.98096     409.1636     293.7772
   1412.96570     407.2526     291.7352   1412.96570     407.2526     291.7352
   1412.95044     404.9097     291.0233   1412.95044     404.9097     291.0233
   1412.93518     402.2946     290.0276   1412.93518     402.2946     290.0276
   1412.91992     401.0963     289.0109   1412.91992     401.0963     289.0109
   1412.90466     400.0116     288.6382   1412.90466     400.0116     288.6382
   1412.88940     397.4806     288.0365   1412.88940     397.4806     288.0365
   1412.87415     395.5944     287.0907   1412.87415     395.5944     287.0907
   1412.85889     394.8135     286.0610   1412.85889     394.8135     286.0610
   1412.84363     392.4382     285.1680   1412.84363     392.4382     285.1680
   1412.82837     390.7540     284.3644   1412.82837     390.7540     284.3644
   1412.81311     389.1626     283.3584   1412.81311     389.1626     283.3584
   1412.79785     387.2309     283.2002   1412.79785     387.2309     283.2002
   1412.78259     386.5290     282.2877   1412.78259     386.5290     282.2877
   1412.76733     384.9363     281.7295   1412.76733     384.9363     281.7295
   1412.75208     382.5506     280.9554   1412.75208     382.5506     280.9554
   1412.73682     381.8927     280.0059   1412.73682     381.8927     280.0059
   1412.72156     380.2460     279.7639   1412.72156     380.2460     279.7639
   1412.70630     379.8542     279.7649   1412.70630     379.8542     279.7649
   1412.69104     377.9807     278.8315   1412.69104     377.9807     278.8315
   1412.67578     378.1875     278.6367   1412.67578     378.1875     278.6367
   1412.66052     376.0984     278.1946   1412.66052     376.0984     278.1946
   1412.64526     374.5982     277.3572   1412.64526     374.5982     277.3572
   1412.63000     373.6205     277.4932   1412.63000     373.6205     277.4932
   1412.61475     373.2005     276.7780   1412.61475     373.2005     276.7780
   1412.59949     372.1287     276.6102   1412.59949     372.1287     276.6102
   1412.58423     370.8679     276.3759   1412.58423     370.8679     276.3759
   1412.56897     369.9447     276.2813   1412.56897     369.9447     276.2813
   1412.55371     369.9277     275.9727   1412.55371     369.9277     275.9727
   1412.53845     369.5210     276.0317   1412.53845     369.5210     276.0317
   1412.52319     368.7664     275.9316   1412.52319     368.7664     275.9316
   1412.50793     368.1848     275.7268   1412.50793     368.1848     275.7268
   1412.49268     367.9208     275.7086   1412.49268     367.9208     275.7086
   1412.47742     366.7822     275.4771   1412.47742     366.7822     275.4771
   1412.46216     366.8471     275.7957   1412.46216     366.8471     275.7957
   1412.44690     366.0524     275.4276   1412.44690     366.0524     275.4276
   1412.43164     365.9310     275.7241   1412.43164     365.9310     275.7241
   1412.41638     365.6331     275.7107   1412.41638     365.6331     275.7107
   1412.40112     366.3425     276.0799   1412.40112     366.3425     276.0799
   1412.38586     365.2464     276.2218   1412.38586     365.2464     276.2218
   1412.37061     366.0993     276.7193   1412.37061     366.0993     276.7193
   1412.35535     365.0259     276.9106   1412.35535     365.0259     276.9106
   1412.34009     365.0070     277.0687   1412.34009     365.0070     277.0687
   1412.32483     365.6694     277.3717   1412.32483     365.6694     277.3717
   1412.30957     366.1001     277.7146   1412.30957     366.1001     277.7146
   1412.29431     366.3484     278.3006   1412.29431     366.3484     278.3006
   1412.27905     366.4749     278.9091   1412.27905     366.4749     278.9091
   1412.26379     366.3252     279.4574   1412.26379     366.3252     279.4574
   1412.24854     366.7691     280.0146   1412.24854     366.7691     280.0146
   1412.23328     367.4146     280.3180   1412.23328     367.4146     280.3180
   1412.21802     368.4967     281.5123   1412.21802     368.4967     281.5123
   1412.20276     368.1393     281.8047   1412.20276     368.1393     281.8047