#     FILENAME=!Skynet_57528_lach-cc-76_20511_20922.cyb.fits
#     BASENAME=Skynet_57528_lach-cc-76_20511_20922
#     SRC_NAME=lach-cc-76
#     OBSERVER=ccmadison16_9505
#     DATE_OBS=2016-05-20T15:53:42.870
#        OBSID=20511
#      SCANNUM=20922
#          MJD=57528.6633
#          UTC=57311
#     SCANTYPE=track
#     DATAMODE=HIRES
#     TUNEFREQ=1420.0000
# Actual_FREQ1=1420.0000
# Actual_FREQ2=1420.0000
#    LO1Tuning=6870.000
#     RFFILTER=1355_1435
#        OBSBW=-15.6250
#        NCHAN=1024 
#        FOCUS=37.0489
#           RA=20:23:45.29
#          DEC=37:25:35.26
#      RA(hrs)=20.395900
#     DEC(deg)=37.426500
#    AZIM(deg)=301.034
#    ELEV(deg)=21.275
#     IFattens=11.00, 10.00
#      WARNING=None
#    TCAL_XL1=7.9635
#    TCAL_YR1=9.1340
#    TCAL_XL2=7.9635
#    TCAL_YR2=9.1340
#     TRX_XL1=11.7060
#     TRX_YR1=11.7060
#     TRX_XL2=11.7060
#     TRX_YR2=11.7060
#        TAVE=1.0000
#Freq1(MHz)          XL1          YR1  Freq2(MHz)          XL2          YR2 

   1427.81250     340.9150     284.5839   1427.81250     340.9150     284.5839
   1427.79724     341.4212     285.2386   1427.79724     341.4212     285.2386
   1427.78198     341.9924     285.9936   1427.78198     341.9924     285.9936
   1427.76672     342.5682     286.7686   1427.76672     342.5682     286.7686
   1427.75146     343.0443     287.5060   1427.75146     343.0443     287.5060
   1427.73621     343.9063     288.2273   1427.73621     343.9063     288.2273
   1427.72095     344.6811     288.3973   1427.72095     344.6811     288.3973
   1427.70569     345.8375     289.5835   1427.70569     345.8375     289.5835
   1427.69043     346.3315     290.7594   1427.69043     346.3315     290.7594
   1427.67517     347.2505     291.8573   1427.67517     347.2505     291.8573
   1427.65991     348.1747     292.5012   1427.65991     348.1747     292.5012
   1427.64465     349.5733     293.2589   1427.64465     349.5733     293.2589
   1427.62939     350.7424     294.7210   1427.62939     350.7424     294.7210
   1427.61414     352.6689     295.9944   1427.61414     352.6689     295.9944
   1427.59888     353.0118     296.9616   1427.59888     353.0118     296.9616
   1427.58362     354.3343     298.3604   1427.58362     354.3343     298.3604
   1427.56836     356.0139     299.1149   1427.56836     356.0139     299.1149
   1427.55310     357.3414     301.0371   1427.55310     357.3414     301.0371
   1427.53784     357.9991     302.1531   1427.53784     357.9991     302.1531
   1427.52258     360.0415     303.4601   1427.52258     360.0415     303.4601
   1427.50732     361.2861     304.3894   1427.50732     361.2861     304.3894
   1427.49207     362.4579     306.5232   1427.49207     362.4579     306.5232
   1427.47681     364.3668     307.8763   1427.47681     364.3668     307.8763
   1427.46155     365.5903     309.2932   1427.46155     365.5903     309.2932
   1427.44629     367.6618     310.5523   1427.44629     367.6618     310.5523
   1427.43103     369.6724     312.2587   1427.43103     369.6724     312.2587
   1427.41577     371.2530     314.0554   1427.41577     371.2530     314.0554
   1427.40051     372.2241     315.6076   1427.40051     372.2241     315.6076
   1427.38525     373.9693     317.2705   1427.38525     373.9693     317.2705
   1427.37000     376.4026     318.9160   1427.37000     376.4026     318.9160
   1427.35474     378.5840     320.6535   1427.35474     378.5840     320.6535
   1427.33948     380.2395     322.0402   1427.33948     380.2395     322.0402
   1427.32422     382.4145     324.4862   1427.32422     382.4145     324.4862
   1427.30896     383.9921     326.2534   1427.30896     383.9921     326.2534
   1427.29370     386.6177     328.0936   1427.29370     386.6177     328.0936
   1427.27844     388.4153     329.9213   1427.27844     388.4153     329.9213
   1427.26318     390.4822     331.8517   1427.26318     390.4822     331.8517
   1427.24792     392.6240     333.8792   1427.24792     392.6240     333.8792
   1427.23267     394.7261     335.8659   1427.23267     394.7261     335.8659
   1427.21741     396.4781     337.4091   1427.21741     396.4781     337.4091
   1427.20215     399.0435     339.9169   1427.20215     399.0435     339.9169
   1427.18689     400.8362     341.8011   1427.18689     400.8362     341.8011
   1427.17163     403.1959     344.0910   1427.17163     403.1959     344.0910
   1427.15637     405.7395     345.8634   1427.15637     405.7395     345.8634
   1427.14111     408.4432     347.7430   1427.14111     408.4432     347.7430
   1427.12585     410.5785     350.3955   1427.12585     410.5785     350.3955
   1427.11060     412.9695     351.9680   1427.11060     412.9695     351.9680
   1427.09534     415.9694     354.1703   1427.09534     415.9694     354.1703
   1427.08008     417.2385     356.6363   1427.08008     417.2385     356.6363
   1427.06482     420.2205     359.0476   1427.06482     420.2205     359.0476
   1427.04956     422.5695     361.6524   1427.04956     422.5695     361.6524
   1427.03430     425.3964     363.3755   1427.03430     425.3964     363.3755
   1427.01904     427.7918     366.2013   1427.01904     427.7918     366.2013
   1427.00378     430.5775     367.6285   1427.00378     430.5775     367.6285
   1426.98853     432.7869     370.2817   1426.98853     432.7869     370.2817
   1426.97327     435.4904     372.7322   1426.97327     435.4904     372.7322
   1426.95801     438.6358     375.5671   1426.95801     438.6358     375.5671
   1426.94275     439.9753     376.6020   1426.94275     439.9753     376.6020
   1426.92749     443.4816     379.4237   1426.92749     443.4816     379.4237
   1426.91223     445.6324     381.5987   1426.91223     445.6324     381.5987
   1426.89697     448.5103     384.1662   1426.89697     448.5103     384.1662
   1426.88171     451.7085     386.0309   1426.88171     451.7085     386.0309
   1426.86646     454.0652     388.9559   1426.86646     454.0652     388.9559
   1426.85120     456.2417     391.5056   1426.85120     456.2417     391.5056
   1426.83594     459.5662     394.2639   1426.83594     459.5662     394.2639
   1426.82068     462.1412     395.9545   1426.82068     462.1412     395.9545
   1426.80542     465.4655     398.3937   1426.80542     465.4655     398.3937
   1426.79016     468.0230     400.6920   1426.79016     468.0230     400.6920
   1426.77490     470.2564     403.7243   1426.77490     470.2564     403.7243
   1426.75964     474.1448     405.7336   1426.75964     474.1448     405.7336
   1426.74438     476.6467     407.5508   1426.74438     476.6467     407.5508
   1426.72913     478.5634     410.0392   1426.72913     478.5634     410.0392
   1426.71387     481.7321     412.3769   1426.71387     481.7321     412.3769
   1426.69861     483.9696     414.2763   1426.69861     483.9696     414.2763
   1426.68335     486.9754     416.6459   1426.68335     486.9754     416.6459
   1426.66809     490.3468     419.4377   1426.66809     490.3468     419.4377
   1426.65283     492.1192     422.4705   1426.65283     492.1192     422.4705
   1426.63757     496.2718     423.9756   1426.63757     496.2718     423.9756
   1426.62231     500.2030     427.2510   1426.62231     500.2030     427.2510
   1426.60706     502.0337     429.0562   1426.60706     502.0337     429.0562
   1426.59180     503.6273     431.1312   1426.59180     503.6273     431.1312
   1426.57654     506.5783     433.2635   1426.57654     506.5783     433.2635
   1426.56128     509.7255     436.5763   1426.56128     509.7255     436.5763
   1426.54602     512.0427     437.6218   1426.54602     512.0427     437.6218
   1426.53076     515.5724     440.1873   1426.53076     515.5724     440.1873
   1426.51550     518.0428     442.3256   1426.51550     518.0428     442.3256
   1426.50024     520.4382     444.5327   1426.50024     520.4382     444.5327
   1426.48499     523.4913     446.3601   1426.48499     523.4913     446.3601
   1426.46973     526.2847     449.7348   1426.46973     526.2847     449.7348
   1426.45447     528.6156     451.5462   1426.45447     528.6156     451.5462
   1426.43921     531.5076     453.4731   1426.43921     531.5076     453.4731
   1426.42395     534.3896     455.3797   1426.42395     534.3896     455.3797
   1426.40869     536.6677     457.4573   1426.40869     536.6677     457.4573
   1426.39343     539.3422     460.2794   1426.39343     539.3422     460.2794
   1426.37817     541.6492     461.3026   1426.37817     541.6492     461.3026
   1426.36292     544.3246     464.3513   1426.36292     544.3246     464.3513
   1426.34766     548.0686     466.3790   1426.34766     548.0686     466.3790
   1426.33240     549.7515     468.4324   1426.33240     549.7515     468.4324
   1426.31714     553.0308     470.6518   1426.31714     553.0308     470.6518
   1426.30188     554.9670     473.0443   1426.30188     554.9670     473.0443
   1426.28662     557.9254     475.1490   1426.28662     557.9254     475.1490
   1426.27136     561.3093     476.9714   1426.27136     561.3093     476.9714
   1426.25610     563.5568     478.5645   1426.25610     563.5568     478.5645
   1426.24084     565.5181     480.5809   1426.24084     565.5181     480.5809
   1426.22559     568.6451     483.0624   1426.22559     568.6451     483.0624
   1426.21033     571.4969     484.3770   1426.21033     571.4969     484.3770
   1426.19507     572.8135     486.4659   1426.19507     572.8135     486.4659
   1426.17981     575.9215     488.0420   1426.17981     575.9215     488.0420
   1426.16455     578.6943     490.2894   1426.16455     578.6943     490.2894
   1426.14929     579.4379     492.0464   1426.14929     579.4379     492.0464
   1426.13403     582.5038     494.4807   1426.13403     582.5038     494.4807
   1426.11877     584.8700     496.0942   1426.11877     584.8700     496.0942
   1426.10352     587.2411     497.9524   1426.10352     587.2411     497.9524
   1426.08826     588.6959     499.9931   1426.08826     588.6959     499.9931
   1426.07300     592.0944     500.9858   1426.07300     592.0944     500.9858
   1426.05774     594.7864     503.5280   1426.05774     594.7864     503.5280
   1426.04248     596.2850     504.8831   1426.04248     596.2850     504.8831
   1426.02722     599.7200     506.1329   1426.02722     599.7200     506.1329
   1426.01196     601.1213     507.5918   1426.01196     601.1213     507.5918
   1425.99670     603.8159     509.5311   1425.99670     603.8159     509.5311
   1425.98145     604.8499     510.6402   1425.98145     604.8499     510.6402
   1425.96619     607.2343     513.1085   1425.96619     607.2343     513.1085
   1425.95093     610.2582     514.0445   1425.95093     610.2582     514.0445
   1425.93567     610.8998     515.5544   1425.93567     610.8998     515.5544
   1425.92041     613.0389     517.1013   1425.92041     613.0389     517.1013
   1425.90515     615.0219     519.1439   1425.90515     615.0219     519.1439
   1425.88989     618.6683     520.3474   1425.88989     618.6683     520.3474
   1425.87463     620.0045     521.7236   1425.87463     620.0045     521.7236
   1425.85938     620.9055     523.2558   1425.85938     620.9055     523.2558
   1425.84412     623.0735     525.3027   1425.84412     623.0735     525.3027
   1425.82886     624.9499     526.9451   1425.82886     624.9499     526.9451
   1425.81360     627.4108     526.8405   1425.81360     627.4108     526.8405
   1425.79834     628.6127     529.4594   1425.79834     628.6127     529.4594
   1425.78308     631.4236     530.6201   1425.78308     631.4236     530.6201
   1425.76782     631.5766     532.4681   1425.76782     631.5766     532.4681
   1425.75256     634.9821     533.4185   1425.75256     634.9821     533.4185
   1425.73730     637.6122     534.6148   1425.73730     637.6122     534.6148
   1425.72205     637.6115     536.1521   1425.72205     637.6115     536.1521
   1425.70679     638.9125     537.7687   1425.70679     638.9125     537.7687
   1425.69153     640.8841     538.9131   1425.69153     640.8841     538.9131
   1425.67627     642.4192     539.2468   1425.67627     642.4192     539.2468
   1425.66101     643.3541     541.2747   1425.66101     643.3541     541.2747
   1425.64575     645.5632     542.2096   1425.64575     645.5632     542.2096
   1425.63049     646.3373     543.5240   1425.63049     646.3373     543.5240
   1425.61523     649.1300     544.7841   1425.61523     649.1300     544.7841
   1425.59998     649.3848     545.3384   1425.59998     649.3848     545.3384
   1425.58472     651.6816     546.2816   1425.58472     651.6816     546.2816
   1425.56946     652.9350     548.6706   1425.56946     652.9350     548.6706
   1425.55420     654.6227     547.9778   1425.55420     654.6227     547.9778
   1425.53894     655.1561     550.4595   1425.53894     655.1561     550.4595
   1425.52368     657.4641     551.2559   1425.52368     657.4641     551.2559
   1425.50842     657.6071     553.7393   1425.50842     657.6071     553.7393
   1425.49316     659.2217     552.7973   1425.49316     659.2217     552.7973
   1425.47791     660.4237     554.5785   1425.47791     660.4237     554.5785
   1425.46265     662.0597     555.2123   1425.46265     662.0597     555.2123
   1425.44739     662.5483     557.2250   1425.44739     662.5483     557.2250
   1425.43213     664.3934     558.0250   1425.43213     664.3934     558.0250
   1425.41687     666.3246     559.8317   1425.41687     666.3246     559.8317
   1425.40161     666.9402     558.9325   1425.40161     666.9402     558.9325
   1425.38635     667.1447     561.4774   1425.38635     667.1447     561.4774
   1425.37109     668.8970     561.6855   1425.37109     668.8970     561.6855
   1425.35583     669.5526     562.5696   1425.35583     669.5526     562.5696
   1425.34058     670.7380     563.6950   1425.34058     670.7380     563.6950
   1425.32532     671.3301     564.2906   1425.32532     671.3301     564.2906
   1425.31006     673.2564     565.2470   1425.31006     673.2564     565.2470
   1425.29480     673.6597     565.9485   1425.29480     673.6597     565.9485
   1425.27954     673.9297     567.1356   1425.27954     673.9297     567.1356
   1425.26428     675.4384     567.6771   1425.26428     675.4384     567.6771
   1425.24902     676.4132     568.2537   1425.24902     676.4132     568.2537
   1425.23376     676.4738     569.5161   1425.23376     676.4738     569.5161
   1425.21851     677.3973     570.4000   1425.21851     677.3973     570.4000
   1425.20325     678.4731     571.2604   1425.20325     678.4731     571.2604
   1425.18799     679.3018     571.6593   1425.18799     679.3018     571.6593
   1425.17273     678.8636     573.0370   1425.17273     678.8636     573.0370
   1425.15747     682.2173     573.0953   1425.15747     682.2173     573.0953
   1425.14221     680.7571     573.9365   1425.14221     680.7571     573.9365
   1425.12695     682.4894     575.9010   1425.12695     682.4894     575.9010
   1425.11169     682.6008     576.4301   1425.11169     682.6008     576.4301
   1425.09644     683.8725     576.1357   1425.09644     683.8725     576.1357
   1425.08118     682.7239     577.2576   1425.08118     682.7239     577.2576
   1425.06592     684.0976     579.1347   1425.06592     684.0976     579.1347
   1425.05066     684.9984     579.6930   1425.05066     684.9984     579.6930
   1425.03540     685.5330     580.1071   1425.03540     685.5330     580.1071
   1425.02014     686.3965     580.3632   1425.02014     686.3965     580.3632
   1425.00488     687.2722     581.4363   1425.00488     687.2722     581.4363
   1424.98962     687.2670     582.0776   1424.98962     687.2670     582.0776
   1424.97437     687.2869     582.2818   1424.97437     687.2869     582.2818
   1424.95911     688.2963     583.9738   1424.95911     688.2963     583.9738
   1424.94385     688.0753     584.5254   1424.94385     688.0753     584.5254
   1424.92859     689.6445     585.5106   1424.92859     689.6445     585.5106
   1424.91333     689.3803     585.3196   1424.91333     689.3803     585.3196
   1424.89807     690.0754     586.4393   1424.89807     690.0754     586.4393
   1424.88281     689.6851     587.5134   1424.88281     689.6851     587.5134
   1424.86755     692.6071     587.9833   1424.86755     692.6071     587.9833
   1424.85229     692.0782     588.6810   1424.85229     692.0782     588.6810
   1424.83704     690.2422     588.3314   1424.83704     690.2422     588.3314
   1424.82178     691.3955     588.6216   1424.82178     691.3955     588.6216
   1424.80652     692.0995     589.5546   1424.80652     692.0995     589.5546
   1424.79126     691.2731     590.2220   1424.79126     691.2731     590.2220
   1424.77600     691.7590     590.4772   1424.77600     691.7590     590.4772
   1424.76074     692.6481     591.8844   1424.76074     692.6481     591.8844
   1424.74548     691.5194     593.2789   1424.74548     691.5194     593.2789
   1424.73022     692.1522     593.7944   1424.73022     692.1522     593.7944
   1424.71497     693.8522     592.9949   1424.71497     693.8522     592.9949
   1424.69971     693.0219     595.2552   1424.69971     693.0219     595.2552
   1424.68445     693.7222     595.9881   1424.68445     693.7222     595.9881
   1424.66919     693.5773     596.7167   1424.66919     693.5773     596.7167
   1424.65393     692.6805     596.7982   1424.65393     692.6805     596.7982
   1424.63867     693.5455     596.7230   1424.63867     693.5455     596.7230
   1424.62341     693.3464     597.8961   1424.62341     693.3464     597.8961
   1424.60815     694.3288     597.5288   1424.60815     694.3288     597.5288
   1424.59290     693.5123     599.0413   1424.59290     693.5123     599.0413
   1424.57764     693.9709     599.4378   1424.57764     693.9709     599.4378
   1424.56238     693.6502     600.2800   1424.56238     693.6502     600.2800
   1424.54712     693.1105     600.1132   1424.54712     693.1105     600.1132
   1424.53186     694.9706     602.1013   1424.53186     694.9706     602.1013
   1424.51660     694.5915     601.9626   1424.51660     694.5915     601.9626
   1424.50134     695.1533     602.8694   1424.50134     695.1533     602.8694
   1424.48608     693.9835     604.4667   1424.48608     693.9835     604.4667
   1424.47083     694.1661     603.1937   1424.47083     694.1661     603.1937
   1424.45557     694.1225     604.5124   1424.45557     694.1225     604.5124
   1424.44031     692.8484     605.2552   1424.44031     692.8484     605.2552
   1424.42505     693.6512     606.2753   1424.42505     693.6512     606.2753
   1424.40979     694.1406     606.5494   1424.40979     694.1406     606.5494
   1424.39453     693.9265     606.1633   1424.39453     693.9265     606.1633
   1424.37927     693.3215     607.4536   1424.37927     693.3215     607.4536
   1424.36401     694.6866     608.4506   1424.36401     694.6866     608.4506
   1424.34875     693.8756     609.1224   1424.34875     693.8756     609.1224
   1424.33350     694.4343     609.4050   1424.33350     694.4343     609.4050
   1424.31824     694.1500     610.0723   1424.31824     694.1500     610.0723
   1424.30298     694.0549     611.9114   1424.30298     694.0549     611.9114
   1424.28772     692.5541     611.7368   1424.28772     692.5541     611.7368
   1424.27246     694.0464     612.8856   1424.27246     694.0464     612.8856
   1424.25720     693.3515     613.3406   1424.25720     693.3515     613.3406
   1424.24194     693.0117     613.8934   1424.24194     693.0117     613.8934
   1424.22668     693.4130     614.1310   1424.22668     693.4130     614.1310
   1424.21143     693.2726     615.7031   1424.21143     693.2726     615.7031
   1424.19617     692.6100     616.0956   1424.19617     692.6100     616.0956
   1424.18091     692.9265     615.8055   1424.18091     692.9265     615.8055
   1424.16565     692.9682     614.8657   1424.16565     692.9682     614.8657
   1424.15039     693.8843     617.7181   1424.15039     693.8843     617.7181
   1424.13513     692.2080     619.0681   1424.13513     692.2080     619.0681
   1424.11987     693.2571     620.0949   1424.11987     693.2571     620.0949
   1424.10461     693.1413     620.0988   1424.10461     693.1413     620.0988
   1424.08936     691.4846     620.6990   1424.08936     691.4846     620.6990
   1424.07410     692.1447     620.9291   1424.07410     692.1447     620.9291
   1424.05884     692.0023     621.3676   1424.05884     692.0023     621.3676
   1424.04358     691.7897     622.1160   1424.04358     691.7897     622.1160
   1424.02832     691.4811     622.6422   1424.02832     691.4811     622.6422
   1424.01306     690.9249     624.2393   1424.01306     690.9249     624.2393
   1423.99780     692.0994     624.3300   1423.99780     692.0994     624.3300
   1423.98254     690.5469     624.5170   1423.98254     690.5469     624.5170
   1423.96729     692.2092     623.8683   1423.96729     692.2092     623.8683
   1423.95203     691.7062     626.7230   1423.95203     691.7062     626.7230
   1423.93677     691.8563     626.7372   1423.93677     691.8563     626.7372
   1423.92151     691.2670     627.0137   1423.92151     691.2670     627.0137
   1423.90625     689.9553     627.1119   1423.90625     689.9553     627.1119
   1423.89099     691.3121     628.3586   1423.89099     691.3121     628.3586
   1423.87573     690.6238     628.3611   1423.87573     690.6238     628.3611
   1423.86047     690.3640     630.0305   1423.86047     690.3640     630.0305
   1423.84521     691.4562     630.2474   1423.84521     691.4562     630.2474
   1423.82996     690.6166     631.2421   1423.82996     690.6166     631.2421
   1423.81470     690.9381     630.3522   1423.81470     690.9381     630.3522
   1423.79944     690.0309     630.7534   1423.79944     690.0309     630.7534
   1423.78418     689.5013     633.0176   1423.78418     689.5013     633.0176
   1423.76892     689.5144     632.3979   1423.76892     689.5144     632.3979
   1423.75366     690.0692     633.8637   1423.75366     690.0692     633.8637
   1423.73840     688.8696     633.9120   1423.73840     688.8696     633.9120
   1423.72314     688.6870     633.5447   1423.72314     688.6870     633.5447
   1423.70789     688.3972     634.8973   1423.70789     688.3972     634.8973
   1423.69263     688.6072     634.8955   1423.69263     688.6072     634.8955
   1423.67737     688.1288     636.2927   1423.67737     688.1288     636.2927
   1423.66211     688.6999     636.5337   1423.66211     688.6999     636.5337
   1423.64685     689.2149     636.2856   1423.64685     689.2149     636.2856
   1423.63159     688.5745     637.2308   1423.63159     688.5745     637.2308
   1423.61633     688.3105     638.6133   1423.61633     688.3105     638.6133
   1423.60107     688.3715     637.7793   1423.60107     688.3715     637.7793
   1423.58582     687.7919     638.7422   1423.58582     687.7919     638.7422
   1423.57056     688.5174     639.6724   1423.57056     688.5174     639.6724
   1423.55530     686.5888     639.3019   1423.55530     686.5888     639.3019
   1423.54004     688.0314     640.7903   1423.54004     688.0314     640.7903
   1423.52478     687.6116     640.6757   1423.52478     687.6116     640.6757
   1423.50952     687.1908     641.4344   1423.50952     687.1908     641.4344
   1423.49426     686.9781     641.6276   1423.49426     686.9781     641.6276
   1423.47900     686.2875     642.2196   1423.47900     686.2875     642.2196
   1423.46375     686.6555     641.3710   1423.46375     686.6555     641.3710
   1423.44849     685.6735     642.8318   1423.44849     685.6735     642.8318
   1423.43323     686.2521     643.5663   1423.43323     686.2521     643.5663
   1423.41797     686.2821     643.8232   1423.41797     686.2821     643.8232
   1423.40271     686.1485     643.9340   1423.40271     686.1485     643.9340
   1423.38745     685.7738     645.3043   1423.38745     685.7738     645.3043
   1423.37219     686.3895     645.3189   1423.37219     686.3895     645.3189
   1423.35693     685.4814     644.4182   1423.35693     685.4814     644.4182
   1423.34167     685.1206     644.9603   1423.34167     685.1206     644.9603
   1423.32642     684.1770     646.2191   1423.32642     684.1770     646.2191
   1423.31116     684.8741     645.9052   1423.31116     684.8741     645.9052
   1423.29590     685.2776     646.6682   1423.29590     685.2776     646.6682
   1423.28064     684.5718     646.6748   1423.28064     684.5718     646.6748
   1423.26538     684.3251     645.6647   1423.26538     684.3251     645.6647
   1423.25012     683.7131     647.1099   1423.25012     683.7131     647.1099
   1423.23486     683.5019     647.1550   1423.23486     683.5019     647.1550
   1423.21960     683.5021     648.0823   1423.21960     683.5021     648.0823
   1423.20435     683.0601     649.0497   1423.20435     683.0601     649.0497
   1423.18909     682.2755     648.3940   1423.18909     682.2755     648.3940
   1423.17383     683.2565     648.4599   1423.17383     683.2565     648.4599
   1423.15857     683.2416     648.8762   1423.15857     683.2416     648.8762
   1423.14331     682.7753     648.0599   1423.14331     682.7753     648.0599
   1423.12805     682.2923     649.0601   1423.12805     682.2923     649.0601
   1423.11279     683.1805     649.0812   1423.11279     683.1805     649.0812
   1423.09753     681.5067     648.1105   1423.09753     681.5067     648.1105
   1423.08228     682.2205     648.7322   1423.08228     682.2205     648.7322
   1423.06702     681.5100     647.5536   1423.06702     681.5100     647.5536
   1423.05176     681.7074     648.4899   1423.05176     681.7074     648.4899
   1423.03650     681.6225     647.9156   1423.03650     681.6225     647.9156
   1423.02124     681.5573     649.2787   1423.02124     681.5573     649.2787
   1423.00598     681.2582     648.8506   1423.00598     681.2582     648.8506
   1422.99072     680.7708     649.0098   1422.99072     680.7708     649.0098
   1422.97546     680.4436     647.9816   1422.97546     680.4436     647.9816
   1422.96021     679.7548     648.7560   1422.96021     679.7548     648.7560
   1422.94495     680.3466     648.3275   1422.94495     680.3466     648.3275
   1422.92969     680.6765     647.7159   1422.92969     680.6765     647.7159
   1422.91443     679.7968     647.5123   1422.91443     679.7968     647.5123
   1422.89917     679.5193     647.1663   1422.89917     679.5193     647.1663
   1422.88391     678.8046     647.4404   1422.88391     678.8046     647.4404
   1422.86865     678.2910     648.7929   1422.86865     678.2910     648.7929
   1422.85339     678.9716     646.9094   1422.85339     678.9716     646.9094
   1422.83813     678.5108     646.8157   1422.83813     678.5108     646.8157
   1422.82288     678.6816     645.7589   1422.82288     678.6816     645.7589
   1422.80762     677.6963     646.0716   1422.80762     677.6963     646.0716
   1422.79236     678.4599     645.7449   1422.79236     678.4599     645.7449
   1422.77710     677.3394     646.0535   1422.77710     677.3394     646.0535
   1422.76184     677.5126     644.1722   1422.76184     677.5126     644.1722
   1422.74658     677.7429     644.0969   1422.74658     677.7429     644.0969
   1422.73132     677.0288     644.0153   1422.73132     677.0288     644.0153
   1422.71606     676.4328     643.6252   1422.71606     676.4328     643.6252
   1422.70081     677.4756     642.4525   1422.70081     677.4756     642.4525
   1422.68555     677.0175     642.0573   1422.68555     677.0175     642.0573
   1422.67029     676.1426     642.0651   1422.67029     676.1426     642.0651
   1422.65503     677.0345     642.0063   1422.65503     677.0345     642.0063
   1422.63977     676.5988     639.4418   1422.63977     676.5988     639.4418
   1422.62451     676.1138     639.4930   1422.62451     676.1138     639.4930
   1422.60925     675.2642     640.3108   1422.60925     675.2642     640.3108
   1422.59399     675.0193     638.1311   1422.59399     675.0193     638.1311
   1422.57874     674.9630     638.1315   1422.57874     674.9630     638.1315
   1422.56348     673.5580     636.7449   1422.56348     673.5580     636.7449
   1422.54822     674.3217     637.2312   1422.54822     674.3217     637.2312
   1422.53296     674.2395     635.8376   1422.53296     674.2395     635.8376
   1422.51770     675.2570     635.0134   1422.51770     675.2570     635.0134
   1422.50244     674.4791     634.0642   1422.50244     674.4791     634.0642
   1422.48718     673.7468     633.4883   1422.48718     673.7468     633.4883
   1422.47192     674.3887     633.4828   1422.47192     674.3887     633.4828
   1422.45667     673.0587     631.5938   1422.45667     673.0587     631.5938
   1422.44141     673.3940     631.0208   1422.44141     673.3940     631.0208
   1422.42615     672.9756     629.3658   1422.42615     672.9756     629.3658
   1422.41089     672.7310     628.1123   1422.41089     672.7310     628.1123
   1422.39563     672.2528     627.7167   1422.39563     672.2528     627.7167
   1422.38037     673.5154     626.7448   1422.38037     673.5154     626.7448
   1422.36511     671.4131     625.5438   1422.36511     671.4131     625.5438
   1422.34985     670.4685     624.8947   1422.34985     670.4685     624.8947
   1422.33459     670.9526     623.0317   1422.33459     670.9526     623.0317
   1422.31934     670.0986     621.9318   1422.31934     670.0986     621.9318
   1422.30408     670.2879     621.8365   1422.30408     670.2879     621.8365
   1422.28882     670.5475     621.0214   1422.28882     670.5475     621.0214
   1422.27356     670.3006     619.5716   1422.27356     670.3006     619.5716
   1422.25830     669.7054     619.1768   1422.25830     669.7054     619.1768
   1422.24304     669.8790     618.5323   1422.24304     669.8790     618.5323
   1422.22778     669.3705     616.5013   1422.22778     669.3705     616.5013
   1422.21252     669.2131     615.2596   1422.21252     669.2131     615.2596
   1422.19727     668.3231     613.6340   1422.19727     668.3231     613.6340
   1422.18201     668.6416     612.8760   1422.18201     668.6416     612.8760
   1422.16675     668.3427     610.3745   1422.16675     668.3427     610.3745
   1422.15149     669.1114     610.7375   1422.15149     669.1114     610.7375
   1422.13623     667.8660     608.6276   1422.13623     667.8660     608.6276
   1422.12097     668.2172     607.1572   1422.12097     668.2172     607.1572
   1422.10571     667.2817     606.5138   1422.10571     667.2817     606.5138
   1422.09045     667.3128     603.9868   1422.09045     667.3128     603.9868
   1422.07520     667.5923     603.3680   1422.07520     667.5923     603.3680
   1422.05994     666.8259     602.2941   1422.05994     666.8259     602.2941
   1422.04468     665.9836     600.9535   1422.04468     665.9836     600.9535
   1422.02942     666.7156     600.1707   1422.02942     666.7156     600.1707
   1422.01416     666.8738     598.6155   1422.01416     666.8738     598.6155
   1421.99890     665.9648     597.3008   1421.99890     665.9648     597.3008
   1421.98364     665.2923     594.8383   1421.98364     665.2923     594.8383
   1421.96838     665.9568     594.4132   1421.96838     665.9568     594.4132
   1421.95312     663.9830     593.7252   1421.95312     663.9830     593.7252
   1421.93787     665.6869     591.3219   1421.93787     665.6869     591.3219
   1421.92261     663.8269     590.1973   1421.92261     663.8269     590.1973
   1421.90735     663.6151     588.6304   1421.90735     663.6151     588.6304
   1421.89209     662.6163     586.5816   1421.89209     662.6163     586.5816
   1421.87683     663.7104     585.8274   1421.87683     663.7104     585.8274
   1421.86157     663.5718     584.4446   1421.86157     663.5718     584.4446
   1421.84631     662.6597     582.1454   1421.84631     662.6597     582.1454
   1421.83105     663.1724     581.6874   1421.83105     663.1724     581.6874
   1421.81580     662.6069     579.6537   1421.81580     662.6069     579.6537
   1421.80054     662.1688     578.3300   1421.80054     662.1688     578.3300
   1421.78528     661.8127     577.2626   1421.78528     661.8127     577.2626
   1421.77002     662.3574     575.6599   1421.77002     662.3574     575.6599
   1421.75476     661.6870     573.7728   1421.75476     661.6870     573.7728
   1421.73950     661.7468     572.4131   1421.73950     661.7468     572.4131
   1421.72424     661.3792     570.1355   1421.72424     661.3792     570.1355
   1421.70898     661.3075     570.0398   1421.70898     661.3075     570.0398
   1421.69373     661.0684     568.4818   1421.69373     661.0684     568.4818
   1421.67847     660.2786     565.2521   1421.67847     660.2786     565.2521
   1421.66321     659.9545     564.8486   1421.66321     659.9545     564.8486
   1421.64795     660.7355     562.2075   1421.64795     660.7355     562.2075
   1421.63269     660.1637     561.8536   1421.63269     660.1637     561.8536
   1421.61743     659.9989     560.7526   1421.61743     659.9989     560.7526
   1421.60217     659.0845     558.4827   1421.60217     659.0845     558.4827
   1421.58691     659.0432     557.2064   1421.58691     659.0432     557.2064
   1421.57166     659.2451     555.2885   1421.57166     659.2451     555.2885
   1421.55640     658.7310     553.6348   1421.55640     658.7310     553.6348
   1421.54114     659.4545     552.9932   1421.54114     659.4545     552.9932
   1421.52588     657.3652     550.5121   1421.52588     657.3652     550.5121
   1421.51062     657.3010     549.5740   1421.51062     657.3010     549.5740
   1421.49536     656.7305     547.3433   1421.49536     656.7305     547.3433
   1421.48010     657.1807     545.9232   1421.48010     657.1807     545.9232
   1421.46484     657.3942     544.8424   1421.46484     657.3942     544.8424
   1421.44958     656.6250     543.0151   1421.44958     656.6250     543.0151
   1421.43433     656.4196     541.2695   1421.43433     656.4196     541.2695
   1421.41907     655.9428     539.5055   1421.41907     655.9428     539.5055
   1421.40381     655.9367     538.7896   1421.40381     655.9367     538.7896
   1421.38855     656.5248     536.5826   1421.38855     656.5248     536.5826
   1421.37329     655.3989     534.7612   1421.37329     655.3989     534.7612
   1421.35803     655.5459     534.3697   1421.35803     655.5459     534.3697
   1421.34277     655.2463     532.3349   1421.34277     655.2463     532.3349
   1421.32751     655.9577     531.3005   1421.32751     655.9577     531.3005
   1421.31226     656.3387     529.8334   1421.31226     656.3387     529.8334
   1421.29700     655.1857     528.6639   1421.29700     655.1857     528.6639
   1421.28174     656.1315     526.8746   1421.28174     656.1315     526.8746
   1421.26648     655.6334     526.2412   1421.26648     655.6334     526.2412
   1421.25122     657.3185     525.0419   1421.25122     657.3185     525.0419
   1421.23596     658.8055     525.6910   1421.23596     658.8055     525.6910
   1421.22070     662.7906     526.9804   1421.22070     662.7906     526.9804
   1421.20544     669.0289     531.1488   1421.20544     669.0289     531.1488
   1421.19019     677.0327     534.6526   1421.19019     677.0327     534.6526
   1421.17493     680.4449     536.0745   1421.17493     680.4449     536.0745
   1421.15967     678.5197     532.8720   1421.15967     678.5197     532.8720
   1421.14441     672.4288     526.0840   1421.14441     672.4288     526.0840
   1421.12915     669.6276     523.3129   1421.12915     669.6276     523.3129
   1421.11389     668.4160     521.8161   1421.11389     668.4160     521.8161
   1421.09863     669.2579     521.2372   1421.09863     669.2579     521.2372
   1421.08337     670.9703     522.0169   1421.08337     670.9703     522.0169
   1421.06812     675.3994     522.1177   1421.06812     675.3994     522.1177
   1421.05286     679.3984     525.8835   1421.05286     679.3984     525.8835
   1421.03760     695.7645     535.4797   1421.03760     695.7645     535.4797
   1421.02234     728.3106     558.9915   1421.02234     728.3106     558.9915
   1421.00708     793.4837     603.5447   1421.00708     793.4837     603.5447
   1420.99182     860.0888     651.0366   1420.99182     860.0888     651.0366
   1420.97656     923.4813     694.7450   1420.97656     923.4813     694.7450
   1420.96130     978.0886     731.5672   1420.96130     978.0886     731.5672
   1420.94604    1056.8024     788.9015   1420.94604    1056.8024     788.9015
   1420.93079    1131.0725     841.3121   1420.93079    1131.0725     841.3121
   1420.91553    1112.7937     825.1500   1420.91553    1112.7937     825.1500
   1420.90027    1058.5209     783.3347   1420.90027    1058.5209     783.3347
   1420.88501    1077.5924     794.8453   1420.88501    1077.5924     794.8453
   1420.86975    1125.5569     825.7537   1420.86975    1125.5569     825.7537
   1420.85449    1134.0868     830.0450   1420.85449    1134.0868     830.0450
   1420.83923    1081.0604     789.6080   1420.83923    1081.0604     789.6080
   1420.82397     973.9294     713.0857   1420.82397     973.9294     713.0857
   1420.80872     882.4610     648.7213   1420.80872     882.4610     648.7213
   1420.79346     874.0229     641.6146   1420.79346     874.0229     641.6146
   1420.77820     936.6239     681.0980   1420.77820     936.6239     681.0980
   1420.76294     989.7233     716.1533   1420.76294     989.7233     716.1533
   1420.74768    1001.7845     723.1698   1420.74768    1001.7845     723.1698
   1420.73242    1072.1705     771.3781   1420.73242    1072.1705     771.3781
   1420.71716    1295.2583     923.7586   1420.71716    1295.2583     923.7586
   1420.70190    1482.2216    1050.7477   1420.70190    1482.2216    1050.7477
   1420.68665    1460.2686    1035.3718   1420.68665    1460.2686    1035.3718
   1420.67139    1434.0160    1012.3001   1420.67139    1434.0160    1012.3001
   1420.65613    1381.3424     974.2905   1420.65613    1381.3424     974.2905
   1420.64087    1289.6575     908.3120   1420.64087    1289.6575     908.3120
   1420.62561    1312.2833     921.0287   1420.62561    1312.2833     921.0287
   1420.61035    1564.4667    1091.3821   1420.61035    1564.4667    1091.3821
   1420.59509    1948.5242    1353.9944   1420.59509    1948.5242    1353.9944
   1420.57983    2171.1057    1500.7245   1420.57983    2171.1057    1500.7245
   1420.56458    2256.4478    1555.6467   1420.56458    2256.4478    1555.6467
   1420.54932    2175.2385    1499.6259   1420.54932    2175.2385    1499.6259
   1420.53406    2169.8113    1488.1130   1420.53406    2169.8113    1488.1130
   1420.51880    1890.9795    1297.3473   1420.51880    1890.9795    1297.3473
   1420.50354    1369.1895     944.8884   1420.50354    1369.1895     944.8884
   1420.48828    1012.4431     704.0372   1420.48828    1012.4431     704.0372
   1420.47302     843.1484     587.8216   1420.47302     843.1484     587.8216
   1420.45776     760.3402     531.6638   1420.45776     760.3402     531.6638
   1420.44250     718.4431     500.7196   1420.44250     718.4431     500.7196
   1420.42725     693.3387     483.6649   1420.42725     693.3387     483.6649
   1420.41199     680.2232     473.0412   1420.41199     680.2232     473.0412
   1420.39673     672.7068     467.5663   1420.39673     672.7068     467.5663
   1420.38147     668.0496     463.5763   1420.38147     668.0496     463.5763
   1420.36621     665.7796     459.5599   1420.36621     665.7796     459.5599
   1420.35095     661.6272     457.0828   1420.35095     661.6272     457.0828
   1420.33569     658.1853     453.7419   1420.33569     658.1853     453.7419
   1420.32043     657.3380     451.0942   1420.32043     657.3380     451.0942
   1420.30518     656.4426     450.3304   1420.30518     656.4426     450.3304
   1420.28992     657.3976     449.6558   1420.28992     657.3976     449.6558
   1420.27466     655.3923     448.3872   1420.27466     655.3923     448.3872
   1420.25940     655.1378     446.8780   1420.25940     655.1378     446.8780
   1420.24414     653.7377     445.9366   1420.24414     653.7377     445.9366
   1420.22888     652.0739     444.1133   1420.22888     652.0739     444.1133
   1420.21362     651.6893     441.8795   1420.21362     651.6893     441.8795
   1420.19836     649.1048     441.2220   1420.19836     649.1048     441.2220
   1420.18311     649.9056     439.5542   1420.18311     649.9056     439.5542
   1420.16785     648.3293     437.8016   1420.16785     648.3293     437.8016
   1420.15259     648.7004     437.1039   1420.15259     648.7004     437.1039
   1420.13733     648.4003     434.7967   1420.13733     648.4003     434.7967
   1420.12207     646.5120     434.0775   1420.12207     646.5120     434.0775
   1420.10681     647.1249     433.1042   1420.10681     647.1249     433.1042
   1420.09155     647.3473     432.6634   1420.09155     647.3473     432.6634
   1420.07629     646.7303     431.5211   1420.07629     646.7303     431.5211
   1420.06104     648.1989     430.5371   1420.06104     648.1989     430.5371
   1420.04578     646.2663     430.4202   1420.04578     646.2663     430.4202
   1420.03052     646.0351     429.4876   1420.03052     646.0351     429.4876
   1420.01526     646.8193     429.0184   1420.01526     646.8193     429.0184
   1420.00000     647.7832     429.1881   1420.00000     647.7832     429.1881
   1419.98474     648.7473     429.3579   1419.98474     648.7473     429.3579
   1419.96948     648.5684     427.3360   1419.96948     648.5684     427.3360
   1419.95422     646.7390     425.3733   1419.95422     646.7390     425.3733
   1419.93896     646.6813     424.9117   1419.93896     646.6813     424.9117
   1419.92371     646.5784     424.0809   1419.92371     646.5784     424.0809
   1419.90845     646.7325     424.3258   1419.90845     646.7325     424.3258
   1419.89319     647.2964     423.0550   1419.89319     647.2964     423.0550
   1419.87793     647.3162     423.2853   1419.87793     647.3162     423.2853
   1419.86267     647.7021     421.6742   1419.86267     647.7021     421.6742
   1419.84741     648.4165     421.7935   1419.84741     648.4165     421.7935
   1419.83215     648.6826     420.5253   1419.83215     648.6826     420.5253
   1419.81689     649.0389     420.9241   1419.81689     649.0389     420.9241
   1419.80164     649.1327     419.8431   1419.80164     649.1327     419.8431
   1419.78638     648.6334     419.5008   1419.78638     648.6334     419.5008
   1419.77112     650.0904     419.4448   1419.77112     650.0904     419.4448
   1419.75586     649.3597     419.3807   1419.75586     649.3597     419.3807
   1419.74060     650.3371     418.3821   1419.74060     650.3371     418.3821
   1419.72534     650.2573     417.8842   1419.72534     650.2573     417.8842
   1419.71008     651.2111     418.1271   1419.71008     651.2111     418.1271
   1419.69482     651.0249     417.0444   1419.69482     651.0249     417.0444
   1419.67957     650.8879     416.9630   1419.67957     650.8879     416.9630
   1419.66431     651.5457     415.9698   1419.66431     651.5457     415.9698
   1419.64905     651.6420     415.5458   1419.64905     651.6420     415.5458
   1419.63379     653.5731     415.5184   1419.63379     653.5731     415.5184
   1419.61853     653.5196     415.0773   1419.61853     653.5196     415.0773
   1419.60327     652.7471     415.4271   1419.60327     652.7471     415.4271
   1419.58801     653.9756     414.5858   1419.58801     653.9756     414.5858
   1419.57275     654.2886     413.2113   1419.57275     654.2886     413.2113
   1419.55750     654.7532     413.7185   1419.55750     654.7532     413.7185
   1419.54224     655.0697     413.2397   1419.54224     655.0697     413.2397
   1419.52698     655.2860     413.3552   1419.52698     655.2860     413.3552
   1419.51172     655.0037     413.4416   1419.51172     655.0037     413.4416
   1419.49646     655.6815     412.6221   1419.49646     655.6815     412.6221
   1419.48120     656.5703     411.6773   1419.48120     656.5703     411.6773
   1419.46594     656.5555     412.0929   1419.46594     656.5555     412.0929
   1419.45068     656.5089     411.5117   1419.45068     656.5089     411.5117
   1419.43542     657.6769     411.4999   1419.43542     657.6769     411.4999
   1419.42017     657.1671     411.6375   1419.42017     657.1671     411.6375
   1419.40491     657.1575     411.3164   1419.40491     657.1575     411.3164
   1419.38965     659.0636     411.0314   1419.38965     659.0636     411.0314
   1419.37439     659.4030     410.8986   1419.37439     659.4030     410.8986
   1419.35913     660.0681     410.7520   1419.35913     660.0681     410.7520
   1419.34387     660.0151     410.5120   1419.34387     660.0151     410.5120
   1419.32861     660.8694     410.6850   1419.32861     660.8694     410.6850
   1419.31335     661.0016     410.4144   1419.31335     661.0016     410.4144
   1419.29810     660.9052     409.9620   1419.29810     660.9052     409.9620
   1419.28284     662.6154     410.5099   1419.28284     662.6154     410.5099
   1419.26758     662.2042     410.3008   1419.26758     662.2042     410.3008
   1419.25232     662.2791     409.9684   1419.25232     662.2791     409.9684
   1419.23706     663.5154     409.5098   1419.23706     663.5154     409.5098
   1419.22180     663.3116     409.3811   1419.22180     663.3116     409.3811
   1419.20654     664.7910     409.5320   1419.20654     664.7910     409.5320
   1419.19128     664.4677     409.8326   1419.19128     664.4677     409.8326
   1419.17603     664.5373     409.1761   1419.17603     664.5373     409.1761
   1419.16077     664.4883     409.4752   1419.16077     664.4883     409.4752
   1419.14551     666.4805     409.7509   1419.14551     666.4805     409.7509
   1419.13025     666.3943     409.6479   1419.13025     666.3943     409.6479
   1419.11499     667.6225     409.7283   1419.11499     667.6225     409.7283
   1419.09973     667.7761     409.6057   1419.09973     667.7761     409.6057
   1419.08447     668.2300     409.2511   1419.08447     668.2300     409.2511
   1419.06921     668.6843     409.3949   1419.06921     668.6843     409.3949
   1419.05396     668.8302     409.8358   1419.05396     668.8302     409.8358
   1419.03870     669.9711     409.1371   1419.03870     669.9711     409.1371
   1419.02344     670.2815     409.7634   1419.02344     670.2815     409.7634
   1419.00818     671.1457     409.3512   1419.00818     671.1457     409.3512
   1418.99292     670.6507     409.5665   1418.99292     670.6507     409.5665
   1418.97766     672.3684     410.1992   1418.97766     672.3684     410.1992
   1418.96240     672.7056     409.5442   1418.96240     672.7056     409.5442
   1418.94714     672.5255     410.0076   1418.94714     672.5255     410.0076
   1418.93188     674.1032     410.7126   1418.93188     674.1032     410.7126
   1418.91663     674.9402     410.4162   1418.91663     674.9402     410.4162
   1418.90137     675.8116     411.4565   1418.90137     675.8116     411.4565
   1418.88611     675.1893     410.5962   1418.88611     675.1893     410.5962
   1418.87085     676.8151     411.0605   1418.87085     676.8151     411.0605
   1418.85559     677.9208     411.0075   1418.85559     677.9208     411.0075
   1418.84033     677.4007     410.8629   1418.84033     677.4007     410.8629
   1418.82507     678.0289     411.2368   1418.82507     678.0289     411.2368
   1418.80981     678.6771     411.4026   1418.80981     678.6771     411.4026
   1418.79456     679.5350     411.9951   1418.79456     679.5350     411.9951
   1418.77930     679.7621     412.2380   1418.77930     679.7621     412.2380
   1418.76404     681.4254     412.8392   1418.76404     681.4254     412.8392
   1418.74878     681.6419     412.7108   1418.74878     681.6419     412.7108
   1418.73352     681.0740     412.1416   1418.73352     681.0740     412.1416
   1418.71826     682.2929     412.4498   1418.71826     682.2929     412.4498
   1418.70300     684.0198     412.7917   1418.70300     684.0198     412.7917
   1418.68774     683.6687     413.6426   1418.68774     683.6687     413.6426
   1418.67249     685.3523     414.5500   1418.67249     685.3523     414.5500
   1418.65723     684.7718     414.1092   1418.65723     684.7718     414.1092
   1418.64197     685.9918     414.3418   1418.64197     685.9918     414.3418
   1418.62671     686.4990     414.5413   1418.62671     686.4990     414.5413
   1418.61145     688.4802     415.4792   1418.61145     688.4802     415.4792
   1418.59619     689.1613     415.6853   1418.59619     689.1613     415.6853
   1418.58093     688.7230     415.1670   1418.58093     688.7230     415.1670
   1418.56567     690.9548     415.9922   1418.56567     690.9548     415.9922
   1418.55042     691.5236     416.6187   1418.55042     691.5236     416.6187
   1418.53516     692.2083     416.8327   1418.53516     692.2083     416.8327
   1418.51990     691.7890     417.2613   1418.51990     691.7890     417.2613
   1418.50464     692.8737     417.3064   1418.50464     692.8737     417.3064
   1418.48938     694.3113     417.6479   1418.48938     694.3113     417.6479
   1418.47412     694.6365     418.8142   1418.47412     694.6365     418.8142
   1418.45886     695.0868     417.9957   1418.45886     695.0868     417.9957
   1418.44360     696.2481     418.9409   1418.44360     696.2481     418.9409
   1418.42834     696.9016     419.9792   1418.42834     696.9016     419.9792
   1418.41309     697.9150     419.6492   1418.41309     697.9150     419.6492
   1418.39783     698.9053     419.7921   1418.39783     698.9053     419.7921
   1418.38257     699.1368     420.3358   1418.38257     699.1368     420.3358
   1418.36731     701.0480     420.7569   1418.36731     701.0480     420.7569
   1418.35205     701.3851     421.0805   1418.35205     701.3851     421.0805
   1418.33679     702.2933     422.3922   1418.33679     702.2933     422.3922
   1418.32153     702.2333     422.2798   1418.32153     702.2333     422.2798
   1418.30627     703.3203     423.2210   1418.30627     703.3203     423.2210
   1418.29102     703.9388     423.0277   1418.29102     703.9388     423.0277
   1418.27576     704.6497     424.2693   1418.27576     704.6497     424.2693
   1418.26050     706.4663     424.1175   1418.26050     706.4663     424.1175
   1418.24524     707.3358     424.6257   1418.24524     707.3358     424.6257
   1418.22998     707.1168     425.3349   1418.22998     707.1168     425.3349
   1418.21472     707.3690     425.5384   1418.21472     707.3690     425.5384
   1418.19946     709.9006     425.9004   1418.19946     709.9006     425.9004
   1418.18420     709.8954     427.0616   1418.18420     709.8954     427.0616
   1418.16895     712.0042     427.1121   1418.16895     712.0042     427.1121
   1418.15369     713.5098     428.0991   1418.15369     713.5098     428.0991
   1418.13843     714.3728     428.6400   1418.13843     714.3728     428.6400
   1418.12317     712.5534     428.8286   1418.12317     712.5534     428.8286
   1418.10791     714.7640     429.5425   1418.10791     714.7640     429.5425
   1418.09265     715.4150     430.0248   1418.09265     715.4150     430.0248
   1418.07739     715.6910     430.3707   1418.07739     715.6910     430.3707
   1418.06213     717.6487     431.0605   1418.06213     717.6487     431.0605
   1418.04688     719.4556     431.6864   1418.04688     719.4556     431.6864
   1418.03162     720.2532     432.0612   1418.03162     720.2532     432.0612
   1418.01636     720.3063     432.6133   1418.01636     720.3063     432.6133
   1418.00110     720.6290     433.2932   1418.00110     720.6290     433.2932
   1417.98584     722.4888     434.0640   1417.98584     722.4888     434.0640
   1417.97058     724.4765     434.9687   1417.97058     724.4765     434.9687
   1417.95532     724.4167     435.1255   1417.95532     724.4167     435.1255
   1417.94006     726.5128     435.6109   1417.94006     726.5128     435.6109
   1417.92480     727.6671     436.1633   1417.92480     727.6671     436.1633
   1417.90955     726.5121     437.2268   1417.90955     726.5121     437.2268
   1417.89429     729.2191     437.8319   1417.89429     729.2191     437.8319
   1417.87903     730.4503     438.5208   1417.87903     730.4503     438.5208
   1417.86377     729.1016     438.9668   1417.86377     729.1016     438.9668
   1417.84851     730.8884     439.4407   1417.84851     730.8884     439.4407
   1417.83325     731.8694     440.4952   1417.83325     731.8694     440.4952
   1417.81799     732.9698     440.4951   1417.81799     732.9698     440.4951
   1417.80273     734.0637     441.4349   1417.80273     734.0637     441.4349
   1417.78748     735.8986     442.4127   1417.78748     735.8986     442.4127
   1417.77222     735.4823     442.3155   1417.77222     735.4823     442.3155
   1417.75696     737.6758     443.3936   1417.75696     737.6758     443.3936
   1417.74170     737.3177     444.0289   1417.74170     737.3177     444.0289
   1417.72644     738.0693     444.7804   1417.72644     738.0693     444.7804
   1417.71118     739.6132     445.5869   1417.71118     739.6132     445.5869
   1417.69592     740.6003     446.0308   1417.69592     740.6003     446.0308
   1417.68066     741.2159     446.6292   1417.68066     741.2159     446.6292
   1417.66541     742.4636     447.0175   1417.66541     742.4636     447.0175
   1417.65015     745.3538     448.4607   1417.65015     745.3538     448.4607
   1417.63489     743.7225     448.4308   1417.63489     743.7225     448.4308
   1417.61963     745.4439     448.8211   1417.61963     745.4439     448.8211
   1417.60437     745.9642     450.2810   1417.60437     745.9642     450.2810
   1417.58911     747.1268     451.0735   1417.58911     747.1268     451.0735
   1417.57385     748.3444     451.2038   1417.57385     748.3444     451.2038
   1417.55859     749.1090     452.4170   1417.55859     749.1090     452.4170
   1417.54333     750.0302     452.6953   1417.54333     750.0302     452.6953
   1417.52808     751.2748     453.8845   1417.52808     751.2748     453.8845
   1417.51282     751.8370     454.7054   1417.51282     751.8370     454.7054
   1417.49756     753.7190     455.1590   1417.49756     753.7190     455.1590
   1417.48230     753.5013     455.7652   1417.48230     753.5013     455.7652
   1417.46704     755.5818     457.2931   1417.46704     755.5818     457.2931
   1417.45178     754.5713     456.8847   1417.45178     754.5713     456.8847
   1417.43652     757.9446     458.7462   1417.43652     757.9446     458.7462
   1417.42126     757.4406     458.8876   1417.42126     757.4406     458.8876
   1417.40601     759.3563     459.9915   1417.40601     759.3563     459.9915
   1417.39075     760.4920     460.6039   1417.39075     760.4920     460.6039
   1417.37549     760.1836     460.9450   1417.37549     760.1836     460.9450
   1417.36023     762.0352     461.3253   1417.36023     762.0352     461.3253
   1417.34497     763.1290     462.4373   1417.34497     763.1290     462.4373
   1417.32971     764.6996     463.1025   1417.32971     764.6996     463.1025
   1417.31445     764.6353     464.0121   1417.31445     764.6353     464.0121
   1417.29919     765.2316     464.4527   1417.29919     765.2316     464.4527
   1417.28394     765.4558     465.6492   1417.28394     765.4558     465.6492
   1417.26868     766.8252     465.8102   1417.26868     766.8252     465.8102
   1417.25342     766.7346     467.0826   1417.25342     766.7346     467.0826
   1417.23816     768.5096     467.5166   1417.23816     768.5096     467.5166
   1417.22290     770.3492     468.6843   1417.22290     770.3492     468.6843
   1417.20764     770.5121     469.1356   1417.20764     770.5121     469.1356
   1417.19238     771.3351     469.8998   1417.19238     771.3351     469.8998
   1417.17712     771.6227     469.9727   1417.17712     771.6227     469.9727
   1417.16187     773.2418     471.3153   1417.16187     773.2418     471.3153
   1417.14661     773.1790     471.5594   1417.14661     773.1790     471.5594
   1417.13135     773.1745     472.3519   1417.13135     773.1745     472.3519
   1417.11609     775.7314     473.2459   1417.11609     775.7314     473.2459
   1417.10083     775.9248     473.4323   1417.10083     775.9248     473.4323
   1417.08557     776.9225     474.7704   1417.08557     776.9225     474.7704
   1417.07031     776.6546     475.0477   1417.07031     776.6546     475.0477
   1417.05505     778.6482     475.6261   1417.05505     778.6482     475.6261
   1417.03979     779.0288     476.1857   1417.03979     779.0288     476.1857
   1417.02454     779.6566     476.8341   1417.02454     779.6566     476.8341
   1417.00928     780.5331     477.5291   1417.00928     780.5331     477.5291
   1416.99402     780.6583     477.2209   1416.99402     780.6583     477.2209
   1416.97876     782.1135     478.4862   1416.97876     782.1135     478.4862
   1416.96350     782.8339     479.2657   1416.96350     782.8339     479.2657
   1416.94824     781.6345     480.5467   1416.94824     781.6345     480.5467
   1416.93298     783.7523     480.3457   1416.93298     783.7523     480.3457
   1416.91772     784.3037     480.7787   1416.91772     784.3037     480.7787
   1416.90247     784.6684     480.9239   1416.90247     784.6684     480.9239
   1416.88721     786.2250     481.2908   1416.88721     786.2250     481.2908
   1416.87195     785.1618     482.8667   1416.87195     785.1618     482.8667
   1416.85669     786.0469     483.0508   1416.85669     786.0469     483.0508
   1416.84143     787.0816     483.1290   1416.84143     787.0816     483.1290
   1416.82617     786.3267     483.3660   1416.82617     786.3267     483.3660
   1416.81091     787.5974     484.6664   1416.81091     787.5974     484.6664
   1416.79565     789.0930     485.1365   1416.79565     789.0930     485.1365
   1416.78040     788.2476     485.3519   1416.78040     788.2476     485.3519
   1416.76514     789.2776     485.8358   1416.76514     789.2776     485.8358
   1416.74988     790.6657     487.0356   1416.74988     790.6657     487.0356
   1416.73462     789.2390     485.9715   1416.73462     789.2390     485.9715
   1416.71936     789.7327     486.9660   1416.71936     789.7327     486.9660
   1416.70410     790.3778     487.6275   1416.70410     790.3778     487.6275
   1416.68884     790.2554     488.2754   1416.68884     790.2554     488.2754
   1416.67358     791.6749     488.3050   1416.67358     791.6749     488.3050
   1416.65833     791.1046     488.3043   1416.65833     791.1046     488.3043
   1416.64307     791.5795     489.5713   1416.64307     791.5795     489.5713
   1416.62781     792.0865     489.5966   1416.62781     792.0865     489.5966
   1416.61255     792.3459     490.3568   1416.61255     792.3459     490.3568
   1416.59729     791.3508     489.8946   1416.59729     791.3508     489.8946
   1416.58203     791.5278     489.8371   1416.58203     791.5278     489.8371
   1416.56677     792.6627     489.8029   1416.56677     792.6627     489.8029
   1416.55151     792.4369     491.1062   1416.55151     792.4369     491.1062
   1416.53625     793.3399     491.7827   1416.53625     793.3399     491.7827
   1416.52100     791.4713     491.5759   1416.52100     791.4713     491.5759
   1416.50574     793.7346     492.2622   1416.50574     793.7346     492.2622
   1416.49048     793.8157     492.1292   1416.49048     793.8157     492.1292
   1416.47522     793.2194     491.9884   1416.47522     793.2194     491.9884
   1416.45996     794.4546     492.5876   1416.45996     794.4546     492.5876
   1416.44470     791.8265     493.5196   1416.44470     791.8265     493.5196
   1416.42944     793.7311     492.7145   1416.42944     793.7311     492.7145
   1416.41418     793.1019     492.9680   1416.41418     793.1019     492.9680
   1416.39893     793.0295     492.3557   1416.39893     793.0295     492.3557
   1416.38367     792.4669     493.8694   1416.38367     792.4669     493.8694
   1416.36841     792.5474     492.9793   1416.36841     792.5474     492.9793
   1416.35315     793.2050     493.8667   1416.35315     793.2050     493.8667
   1416.33789     792.2883     493.5894   1416.33789     792.2883     493.5894
   1416.32263     791.5134     494.3511   1416.32263     791.5134     494.3511
   1416.30737     793.5980     493.7212   1416.30737     793.5980     493.7212
   1416.29211     791.0848     493.1530   1416.29211     791.0848     493.1530
   1416.27686     792.0013     494.1337   1416.27686     792.0013     494.1337
   1416.26160     791.2854     493.4199   1416.26160     791.2854     493.4199
   1416.24634     790.9936     493.5916   1416.24634     790.9936     493.5916
   1416.23108     789.9498     494.1643   1416.23108     789.9498     494.1643
   1416.21582     790.6663     493.7274   1416.21582     790.6663     493.7274
   1416.20056     789.3022     494.1711   1416.20056     789.3022     494.1711
   1416.18530     789.7831     494.2694   1416.18530     789.7831     494.2694
   1416.17004     789.4814     493.8164   1416.17004     789.4814     493.8164
   1416.15479     789.3030     493.9651   1416.15479     789.3030     493.9651
   1416.13953     789.1387     493.8091   1416.13953     789.1387     493.8091
   1416.12427     786.2395     493.5787   1416.12427     786.2395     493.5787
   1416.10901     788.5938     494.5081   1416.10901     788.5938     494.5081
   1416.09375     788.7825     493.8683   1416.09375     788.7825     493.8683
   1416.07849     785.9463     493.3658   1416.07849     785.9463     493.3658
   1416.06323     786.6359     493.3411   1416.06323     786.6359     493.3411
   1416.04797     785.7259     493.5188   1416.04797     785.7259     493.5188
   1416.03271     784.6447     493.6220   1416.03271     784.6447     493.6220
   1416.01746     784.7412     492.3865   1416.01746     784.7412     492.3865
   1416.00220     783.1248     493.1895   1416.00220     783.1248     493.1895
   1415.98694     783.4203     493.2777   1415.98694     783.4203     493.2777
   1415.97168     782.5210     491.9424   1415.97168     782.5210     491.9424
   1415.95642     782.5463     492.5338   1415.95642     782.5463     492.5338
   1415.94116     782.2179     492.3970   1415.94116     782.2179     492.3970
   1415.92590     781.6856     491.2737   1415.92590     781.6856     491.2737
   1415.91064     780.5291     491.4336   1415.91064     780.5291     491.4336
   1415.89539     780.3445     491.5840   1415.89539     780.3445     491.5840
   1415.88013     778.1085     491.3828   1415.88013     778.1085     491.3828
   1415.86487     778.8931     490.8677   1415.86487     778.8931     490.8677
   1415.84961     777.8911     491.3241   1415.84961     777.8911     491.3241
   1415.83435     776.3062     491.0492   1415.83435     776.3062     491.0492
   1415.81909     777.8057     490.1069   1415.81909     777.8057     490.1069
   1415.80383     775.2690     490.3284   1415.80383     775.2690     490.3284
   1415.78857     774.1545     490.2254   1415.78857     774.1545     490.2254
   1415.77332     773.8800     489.2844   1415.77332     773.8800     489.2844
   1415.75806     773.7907     490.0415   1415.75806     773.7907     490.0415
   1415.74280     773.9729     488.7631   1415.74280     773.9729     488.7631
   1415.72754     771.5865     488.7757   1415.72754     771.5865     488.7757
   1415.71228     772.7693     489.0374   1415.71228     772.7693     489.0374
   1415.69702     770.3553     488.9135   1415.69702     770.3553     488.9135
   1415.68176     770.3512     488.9894   1415.68176     770.3512     488.9894
   1415.66650     769.0312     488.1728   1415.66650     769.0312     488.1728
   1415.65125     768.5463     488.0489   1415.65125     768.5463     488.0489
   1415.63599     768.0118     486.6970   1415.63599     768.0118     486.6970
   1415.62073     766.8509     486.9357   1415.62073     766.8509     486.9357
   1415.60547     766.5841     487.3198   1415.60547     766.5841     487.3198
   1415.59021     765.1721     486.3939   1415.59021     765.1721     486.3939
   1415.57495     763.7352     485.9694   1415.57495     763.7352     485.9694
   1415.55969     762.7077     485.6464   1415.55969     762.7077     485.6464
   1415.54443     761.9182     485.0523   1415.54443     761.9182     485.0523
   1415.52917     760.6825     484.8996   1415.52917     760.6825     484.8996
   1415.51392     760.3022     484.7730   1415.51392     760.3022     484.7730
   1415.49866     758.2247     484.1981   1415.49866     758.2247     484.1981
   1415.48340     758.6400     484.1950   1415.48340     758.6400     484.1950
   1415.46814     755.7607     483.0034   1415.46814     755.7607     483.0034
   1415.45288     756.5352     483.7541   1415.45288     756.5352     483.7541
   1415.43762     754.7730     482.3131   1415.43762     754.7730     482.3131
   1415.42236     753.8392     482.2525   1415.42236     753.8392     482.2525
   1415.40710     752.2714     482.1218   1415.40710     752.2714     482.1218
   1415.39185     750.5192     482.1359   1415.39185     750.5192     482.1359
   1415.37659     750.4454     480.9046   1415.37659     750.4454     480.9046
   1415.36133     749.2772     480.3672   1415.36133     749.2772     480.3672
   1415.34607     748.6499     480.6468   1415.34607     748.6499     480.6468
   1415.33081     747.5544     480.0468   1415.33081     747.5544     480.0468
   1415.31555     745.0999     479.0462   1415.31555     745.0999     479.0462
   1415.30029     744.7136     478.3092   1415.30029     744.7136     478.3092
   1415.28503     743.4546     479.0004   1415.28503     743.4546     479.0004
   1415.26978     742.2885     478.0524   1415.26978     742.2885     478.0524
   1415.25452     739.9069     478.6603   1415.25452     739.9069     478.6603
   1415.23926     740.3923     477.0127   1415.23926     740.3923     477.0127
   1415.22400     739.2620     476.2851   1415.22400     739.2620     476.2851
   1415.20874     736.7803     476.4004   1415.20874     736.7803     476.4004
   1415.19348     734.3745     475.1291   1415.19348     734.3745     475.1291
   1415.17822     734.4947     475.2766   1415.17822     734.4947     475.2766
   1415.16296     731.6293     474.5781   1415.16296     731.6293     474.5781
   1415.14771     730.7623     474.1025   1415.14771     730.7623     474.1025
   1415.13245     730.1566     472.7702   1415.13245     730.1566     472.7702
   1415.11719     727.3676     472.5656   1415.11719     727.3676     472.5656
   1415.10193     726.5475     472.4135   1415.10193     726.5475     472.4135
   1415.08667     726.2299     471.7993   1415.08667     726.2299     471.7993
   1415.07141     724.6959     470.6750   1415.07141     724.6959     470.6750
   1415.05615     721.5263     470.8924   1415.05615     721.5263     470.8924
   1415.04089     720.7511     470.5031   1415.04089     720.7511     470.5031
   1415.02563     718.7025     469.5472   1415.02563     718.7025     469.5472
   1415.01038     716.5560     469.2635   1415.01038     716.5560     469.2635
   1414.99512     716.5232     468.0568   1414.99512     716.5232     468.0568
   1414.97986     714.3372     467.1294   1414.97986     714.3372     467.1294
   1414.96460     711.5515     466.5519   1414.96460     711.5515     466.5519
   1414.94934     712.2259     466.0624   1414.94934     712.2259     466.0624
   1414.93408     709.1497     465.5714   1414.93408     709.1497     465.5714
   1414.91882     707.4150     464.5893   1414.91882     707.4150     464.5893
   1414.90356     706.3535     463.8038   1414.90356     706.3535     463.8038
   1414.88831     703.3977     463.2076   1414.88831     703.3977     463.2076
   1414.87305     702.3085     462.4387   1414.87305     702.3085     462.4387
   1414.85779     700.4700     462.2688   1414.85779     700.4700     462.2688
   1414.84253     699.0076     460.8587   1414.84253     699.0076     460.8587
   1414.82727     696.0349     460.4306   1414.82727     696.0349     460.4306
   1414.81201     694.5134     459.3712   1414.81201     694.5134     459.3712
   1414.79675     693.1548     459.1965   1414.79675     693.1548     459.1965
   1414.78149     691.3378     458.2139   1414.78149     691.3378     458.2139
   1414.76624     689.2029     457.1392   1414.76624     689.2029     457.1392
   1414.75098     686.9167     456.7221   1414.75098     686.9167     456.7221
   1414.73572     685.1140     455.3807   1414.73572     685.1140     455.3807
   1414.72046     683.0096     455.1040   1414.72046     683.0096     455.1040
   1414.70520     680.3312     453.6181   1414.70520     680.3312     453.6181
   1414.68994     678.9482     453.6186   1414.68994     678.9482     453.6186
   1414.67468     677.9359     452.1342   1414.67468     677.9359     452.1342
   1414.65942     675.0244     451.4996   1414.65942     675.0244     451.4996
   1414.64417     672.6613     450.2129   1414.64417     672.6613     450.2129
   1414.62891     670.7031     449.8313   1414.62891     670.7031     449.8313
   1414.61365     668.9210     448.3170   1414.61365     668.9210     448.3170
   1414.59839     666.8251     447.6171   1414.59839     666.8251     447.6171
   1414.58313     663.7816     445.6339   1414.58313     663.7816     445.6339
   1414.56787     662.2034     445.6117   1414.56787     662.2034     445.6117
   1414.55261     658.9681     444.3254   1414.55261     658.9681     444.3254
   1414.53735     656.8596     444.1631   1414.53735     656.8596     444.1631
   1414.52209     654.6524     442.7596   1414.52209     654.6524     442.7596
   1414.50684     652.9786     442.1017   1414.50684     652.9786     442.1017
   1414.49158     650.8461     440.8346   1414.49158     650.8461     440.8346
   1414.47632     647.6006     439.6916   1414.47632     647.6006     439.6916
   1414.46106     645.4889     438.9185   1414.46106     645.4889     438.9185
   1414.44580     644.8575     437.4047   1414.44580     644.8575     437.4047
   1414.43054     640.2137     436.6411   1414.43054     640.2137     436.6411
   1414.41528     638.0310     435.5676   1414.41528     638.0310     435.5676
   1414.40002     635.1090     434.1605   1414.40002     635.1090     434.1605
   1414.38477     633.3515     433.2004   1414.38477     633.3515     433.2004
   1414.36951     632.0551     432.7545   1414.36951     632.0551     432.7545
   1414.35425     628.2477     431.2820   1414.35425     628.2477     431.2820
   1414.33899     627.0789     429.6292   1414.33899     627.0789     429.6292
   1414.32373     623.1545     428.1390   1414.32373     623.1545     428.1390
   1414.30847     621.5729     427.7829   1414.30847     621.5729     427.7829
   1414.29321     617.9081     426.4547   1414.29321     617.9081     426.4547
   1414.27795     615.3979     425.5583   1414.27795     615.3979     425.5583
   1414.26270     612.5300     424.3376   1414.26270     612.5300     424.3376
   1414.24744     610.6939     423.3477   1414.24744     610.6939     423.3477
   1414.23218     607.4579     422.2222   1414.23218     607.4579     422.2222
   1414.21692     605.4808     420.1289   1414.21692     605.4808     420.1289
   1414.20166     602.7535     418.9970   1414.20166     602.7535     418.9970
   1414.18640     600.6142     418.1335   1414.18640     600.6142     418.1335
   1414.17114     596.2791     417.0295   1414.17114     596.2791     417.0295
   1414.15588     593.4105     415.9507   1414.15588     593.4105     415.9507
   1414.14062     590.9277     414.5505   1414.14062     590.9277     414.5505
   1414.12537     589.2990     413.1205   1414.12537     589.2990     413.1205
   1414.11011     585.6773     411.7575   1414.11011     585.6773     411.7575
   1414.09485     582.3621     410.7819   1414.09485     582.3621     410.7819
   1414.07959     579.2200     408.6589   1414.07959     579.2200     408.6589
   1414.06433     577.0400     407.4205   1414.06433     577.0400     407.4205
   1414.04907     574.7651     406.6642   1414.04907     574.7651     406.6642
   1414.03381     571.9210     404.7730   1414.03381     571.9210     404.7730
   1414.01855     568.7068     404.0610   1414.01855     568.7068     404.0610
   1414.00330     586.0592     409.8865   1414.00330     586.0592     409.8865
   1413.98804     563.6303     401.3636   1413.98804     563.6303     401.3636
   1413.97278     560.1329     399.6724   1413.97278     560.1329     399.6724
   1413.95752     556.9296     398.3888   1413.95752     556.9296     398.3888
   1413.94226     554.2509     396.8866   1413.94226     554.2509     396.8866
   1413.92700     551.2773     395.8199   1413.92700     551.2773     395.8199
   1413.91174     548.1338     394.2424   1413.91174     548.1338     394.2424
   1413.89648     545.4018     392.5219   1413.89648     545.4018     392.5219
   1413.88123     542.8659     391.0009   1413.88123     542.8659     391.0009
   1413.86597     539.1895     389.1038   1413.86597     539.1895     389.1038
   1413.85071     536.8403     387.8456   1413.85071     536.8403     387.8456
   1413.83545     533.6389     386.6780   1413.83545     533.6389     386.6780
   1413.82019     530.3341     384.8655   1413.82019     530.3341     384.8655
   1413.80493     527.8267     383.1455   1413.80493     527.8267     383.1455
   1413.78967     524.2324     382.4260   1413.78967     524.2324     382.4260
   1413.77441     521.1818     380.7173   1413.77441     521.1818     380.7173
   1413.75916     518.0170     379.2888   1413.75916     518.0170     379.2888
   1413.74390     516.0231     377.5190   1413.74390     516.0231     377.5190
   1413.72864     512.1453     376.4655   1413.72864     512.1453     376.4655
   1413.71338     509.1925     374.9767   1413.71338     509.1925     374.9767
   1413.69812     507.1619     373.1491   1413.69812     507.1619     373.1491
   1413.68286     503.2167     371.2878   1413.68286     503.2167     371.2878
   1413.66760     500.6544     369.3731   1413.66760     500.6544     369.3731
   1413.65234     497.8298     368.2708   1413.65234     497.8298     368.2708
   1413.63708     495.0572     366.7527   1413.63708     495.0572     366.7527
   1413.62183     492.3853     365.4255   1413.62183     492.3853     365.4255
   1413.60657     488.7549     363.7448   1413.60657     488.7549     363.7448
   1413.59131     485.9641     362.0638   1413.59131     485.9641     362.0638
   1413.57605     482.5786     360.6902   1413.57605     482.5786     360.6902
   1413.56079     480.6704     359.0190   1413.56079     480.6704     359.0190
   1413.54553     476.8593     357.5558   1413.54553     476.8593     357.5558
   1413.53027     474.4048     356.1730   1413.53027     474.4048     356.1730
   1413.51501     472.0957     354.3809   1413.51501     472.0957     354.3809
   1413.49976     468.3204     353.1924   1413.49976     468.3204     353.1924
   1413.48450     466.2521     352.0877   1413.48450     466.2521     352.0877
   1413.46924     462.8498     351.1081   1413.46924     462.8498     351.1081
   1413.45398     459.3714     348.2713   1413.45398     459.3714     348.2713
   1413.43872     457.5311     346.8057   1413.43872     457.5311     346.8057
   1413.42346     454.2236     345.4539   1413.42346     454.2236     345.4539
   1413.40820     451.1734     343.8149   1413.40820     451.1734     343.8149
   1413.39294     448.0791     342.1407   1413.39294     448.0791     342.1407
   1413.37769     446.1204     340.5067   1413.37769     446.1204     340.5067
   1413.36243     442.9610     339.0590   1413.36243     442.9610     339.0590
   1413.34717     440.3572     337.7071   1413.34717     440.3572     337.7071
   1413.33191     437.9660     335.9986   1413.33191     437.9660     335.9986
   1413.31665     435.3821     335.0580   1413.31665     435.3821     335.0580
   1413.30139     432.4278     333.4861   1413.30139     432.4278     333.4861
   1413.28613     429.5832     331.9233   1413.28613     429.5832     331.9233
   1413.27087     426.4854     330.5155   1413.27087     426.4854     330.5155
   1413.25562     424.7372     329.1666   1413.25562     424.7372     329.1666
   1413.24036     421.4836     327.2879   1413.24036     421.4836     327.2879
   1413.22510     419.4911     325.7653   1413.22510     419.4911     325.7653
   1413.20984     416.4875     324.9056   1413.20984     416.4875     324.9056
   1413.19458     414.5577     323.3581   1413.19458     414.5577     323.3581
   1413.17932     412.2592     321.9892   1413.17932     412.2592     321.9892
   1413.16406     409.5593     320.6323   1413.16406     409.5593     320.6323
   1413.14880     406.8328     319.3780   1413.14880     406.8328     319.3780
   1413.13354     404.4486     317.6943   1413.13354     404.4486     317.6943
   1413.11829     401.7276     316.5025   1413.11829     401.7276     316.5025
   1413.10303     399.9589     315.0182   1413.10303     399.9589     315.0182
   1413.08777     397.8313     314.2189   1413.08777     397.8313     314.2189
   1413.07251     395.3829     312.8306   1413.07251     395.3829     312.8306
   1413.05725     393.7814     311.4162   1413.05725     393.7814     311.4162
   1413.04199     391.3306     309.9243   1413.04199     391.3306     309.9243
   1413.02673     388.8171     309.0516   1413.02673     388.8171     309.0516
   1413.01147     387.2473     306.9957   1413.01147     387.2473     306.9957
   1412.99622     385.2101     306.2216   1412.99622     385.2101     306.2216
   1412.98096     382.8884     305.3834   1412.98096     382.8884     305.3834
   1412.96570     380.9375     304.2714   1412.96570     380.9375     304.2714
   1412.95044     378.7839     303.0956   1412.95044     378.7839     303.0956
   1412.93518     376.9849     301.0092   1412.93518     376.9849     301.0092
   1412.91992     374.7952     300.3600   1412.91992     374.7952     300.3600
   1412.90466     373.6771     299.6951   1412.90466     373.6771     299.6951
   1412.88940     371.1501     297.9911   1412.88940     371.1501     297.9911
   1412.87415     369.6166     296.8442   1412.87415     369.6166     296.8442
   1412.85889     367.8602     296.2567   1412.85889     367.8602     296.2567
   1412.84363     366.4778     295.3179   1412.84363     366.4778     295.3179
   1412.82837     364.8172     294.3820   1412.82837     364.8172     294.3820
   1412.81311     363.8284     293.4856   1412.81311     363.8284     293.4856
   1412.79785     362.1318     292.5244   1412.79785     362.1318     292.5244
   1412.78259     360.1006     291.7887   1412.78259     360.1006     291.7887
   1412.76733     358.6310     290.5054   1412.76733     358.6310     290.5054
   1412.75208     357.6093     290.1205   1412.75208     357.6093     290.1205
   1412.73682     356.5573     288.8951   1412.73682     356.5573     288.8951
   1412.72156     354.1666     288.2730   1412.72156     354.1666     288.2730
   1412.70630     353.0313     287.5009   1412.70630     353.0313     287.5009
   1412.69104     351.8717     286.8658   1412.69104     351.8717     286.8658
   1412.67578     351.3952     286.3192   1412.67578     351.3952     286.3192
   1412.66052     349.7146     285.8622   1412.66052     349.7146     285.8622
   1412.64526     348.4778     285.2335   1412.64526     348.4778     285.2335
   1412.63000     348.0551     284.1066   1412.63000     348.0551     284.1066
   1412.61475     346.4720     283.6995   1412.61475     346.4720     283.6995
   1412.59949     345.8749     283.8742   1412.59949     345.8749     283.8742
   1412.58423     345.5205     283.1998   1412.58423     345.5205     283.1998
   1412.56897     344.1424     282.6736   1412.56897     344.1424     282.6736
   1412.55371     344.0074     282.5266   1412.55371     344.0074     282.5266
   1412.53845     342.4435     281.6533   1412.53845     342.4435     281.6533
   1412.52319     342.0279     281.4804   1412.52319     342.0279     281.4804
   1412.50793     341.8569     280.8093   1412.50793     341.8569     280.8093
   1412.49268     341.4398     280.9803   1412.49268     341.4398     280.9803
   1412.47742     340.4398     280.8955   1412.47742     340.4398     280.8955
   1412.46216     340.1006     280.8843   1412.46216     340.1006     280.8843
   1412.44690     339.3873     280.1728   1412.44690     339.3873     280.1728
   1412.43164     339.2631     280.0159   1412.43164     339.2631     280.0159
   1412.41638     338.4875     280.3418   1412.41638     338.4875     280.3418
   1412.40112     338.4937     280.2592   1412.40112     338.4937     280.2592
   1412.38586     338.8575     280.8244   1412.38586     338.8575     280.8244
   1412.37061     338.1613     280.2556   1412.37061     338.1613     280.2556
   1412.35535     338.1800     280.6837   1412.35535     338.1800     280.6837
   1412.34009     338.1090     280.4029   1412.34009     338.1090     280.4029
   1412.32483     338.5162     280.7863   1412.32483     338.5162     280.7863
   1412.30957     338.2466     281.0990   1412.30957     338.2466     281.0990
   1412.29431     339.1180     281.2427   1412.29431     339.1180     281.2427
   1412.27905     338.7944     281.5638   1412.27905     338.7944     281.5638
   1412.26379     338.6188     282.2048   1412.26379     338.6188     282.2048
   1412.24854     339.2866     282.2499   1412.24854     339.2866     282.2499
   1412.23328     339.8729     282.6252   1412.23328     339.8729     282.6252
   1412.21802     339.8050     283.4409   1412.21802     339.8050     283.4409
   1412.20276     340.5434     284.0477   1412.20276     340.5434     284.0477