#     FILENAME=!Skynet_57528_lach-cc-243_20659_21025.cyb.fits
#     BASENAME=Skynet_57528_lach-cc-243_20659_21025
#     SRC_NAME=lach-cc-243
#     OBSERVER=ccmadison16_9505
#     DATE_OBS=2016-05-20T19:26:00.430
#        OBSID=20659
#      SCANNUM=21025
#          MJD=57528.8108
#          UTC=70050
#     SCANTYPE=track
#     DATAMODE=HIRES
#     TUNEFREQ=1420.0000
# Actual_FREQ1=1420.0000
# Actual_FREQ2=1420.0000
#    LO1Tuning=6870.000
#     RFFILTER=1355_1435
#        OBSBW=-15.6250
#        NCHAN=1024 
#        FOCUS=37.0709
#           RA=07:50:39.04
#          DEC=-26:28:49.58
#      RA(hrs)=7.844200
#     DEC(deg)=-26.480400
#    AZIM(deg)=153.573
#    ELEV(deg)=20.047
#     IFattens=11.00, 10.00
#      WARNING=None
#    TCAL_XL1=7.9635
#    TCAL_YR1=9.1340
#    TCAL_XL2=7.9635
#    TCAL_YR2=9.1340
#     TRX_XL1=11.7060
#     TRX_YR1=11.7060
#     TRX_XL2=11.7060
#     TRX_YR2=11.7060
#        TAVE=1.0000
#Freq1(MHz)          XL1          YR1  Freq2(MHz)          XL2          YR2 

   1427.81250     305.0172     246.2636   1427.81250     305.0172     246.2636
   1427.79724     305.5775     246.8566   1427.79724     305.5775     246.8566
   1427.78198     306.0338     246.9674   1427.78198     306.0338     246.9674
   1427.76672     306.7847     247.3668   1427.76672     306.7847     247.3668
   1427.75146     306.9731     247.5665   1427.75146     306.9731     247.5665
   1427.73621     307.9040     248.4507   1427.73621     307.9040     248.4507
   1427.72095     308.5995     249.1256   1427.72095     308.5995     249.1256
   1427.70569     309.3250     249.4714   1427.70569     309.3250     249.4714
   1427.69043     311.0787     250.3164   1427.69043     311.0787     250.3164
   1427.67517     311.2194     250.8591   1427.67517     311.2194     250.8591
   1427.65991     312.5052     251.3218   1427.65991     312.5052     251.3218
   1427.64465     313.4670     252.2832   1427.64465     313.4670     252.2832
   1427.62939     314.3088     252.8426   1427.62939     314.3088     252.8426
   1427.61414     315.3086     253.6263   1427.61414     315.3086     253.6263
   1427.59888     316.4631     254.6406   1427.59888     316.4631     254.6406
   1427.58362     317.7952     255.4949   1427.58362     317.7952     255.4949
   1427.56836     319.0649     256.2280   1427.56836     319.0649     256.2280
   1427.55310     320.0957     257.1389   1427.55310     320.0957     257.1389
   1427.53784     321.5096     258.4747   1427.53784     321.5096     258.4747
   1427.52258     322.8845     258.9802   1427.52258     322.8845     258.9802
   1427.50732     323.8136     260.5340   1427.50732     323.8136     260.5340
   1427.49207     325.4984     261.4189   1427.49207     325.4984     261.4189
   1427.47681     326.5873     262.6754   1427.47681     326.5873     262.6754
   1427.46155     327.4987     264.1826   1427.46155     327.4987     264.1826
   1427.44629     329.7222     264.8561   1427.44629     329.7222     264.8561
   1427.43103     332.1853     265.6451   1427.43103     332.1853     265.6451
   1427.41577     333.4480     267.1722   1427.41577     333.4480     267.1722
   1427.40051     334.5110     268.3107   1427.40051     334.5110     268.3107
   1427.38525     335.9581     269.8724   1427.38525     335.9581     269.8724
   1427.37000     337.3369     271.2899   1427.37000     337.3369     271.2899
   1427.35474     339.3507     272.3954   1427.35474     339.3507     272.3954
   1427.33948     341.2027     273.9228   1427.33948     341.2027     273.9228
   1427.32422     343.3816     274.7667   1427.32422     343.3816     274.7667
   1427.30896     344.5314     276.5474   1427.30896     344.5314     276.5474
   1427.29370     345.9033     277.9915   1427.29370     345.9033     277.9915
   1427.27844     348.5879     279.8399   1427.27844     348.5879     279.8399
   1427.26318     349.5157     280.7722   1427.26318     349.5157     280.7722
   1427.24792     352.1535     282.4800   1427.24792     352.1535     282.4800
   1427.23267     354.2612     283.9576   1427.23267     354.2612     283.9576
   1427.21741     355.7158     285.6832   1427.21741     355.7158     285.6832
   1427.20215     357.9773     286.5981   1427.20215     357.9773     286.5981
   1427.18689     359.7419     289.2597   1427.18689     359.7419     289.2597
   1427.17163     361.6338     290.5247   1427.17163     361.6338     290.5247
   1427.15637     363.5722     292.3871   1427.15637     363.5722     292.3871
   1427.14111     365.4924     294.0045   1427.14111     365.4924     294.0045
   1427.12585     368.0673     295.9430   1427.12585     368.0673     295.9430
   1427.11060     369.9023     296.8713   1427.11060     369.9023     296.8713
   1427.09534     372.0903     298.7077   1427.09534     372.0903     298.7077
   1427.08008     374.5298     300.6598   1427.08008     374.5298     300.6598
   1427.06482     376.7934     302.5900   1427.06482     376.7934     302.5900
   1427.04956     379.1255     304.3975   1427.04956     379.1255     304.3975
   1427.03430     381.3181     305.8671   1427.03430     381.3181     305.8671
   1427.01904     384.1252     307.8667   1427.01904     384.1252     307.8667
   1427.00378     386.0832     309.8727   1427.00378     386.0832     309.8727
   1426.98853     388.6682     311.6010   1426.98853     388.6682     311.6010
   1426.97327     390.3083     313.3501   1426.97327     390.3083     313.3501
   1426.95801     392.7307     315.2270   1426.95801     392.7307     315.2270
   1426.94275     394.9672     317.4603   1426.94275     394.9672     317.4603
   1426.92749     397.9392     319.3818   1426.92749     397.9392     319.3818
   1426.91223     399.6146     321.3974   1426.91223     399.6146     321.3974
   1426.89697     402.1742     323.2441   1426.89697     402.1742     323.2441
   1426.88171     404.9222     324.8679   1426.88171     404.9222     324.8679
   1426.86646     407.4486     326.8916   1426.86646     407.4486     326.8916
   1426.85120     409.7944     329.5233   1426.85120     409.7944     329.5233
   1426.83594     412.0814     331.1166   1426.83594     412.0814     331.1166
   1426.82068     414.2029     333.1333   1426.82068     414.2029     333.1333
   1426.80542     417.1459     335.3919   1426.80542     417.1459     335.3919
   1426.79016     419.4161     337.7215   1426.79016     419.4161     337.7215
   1426.77490     421.7763     339.5351   1426.77490     421.7763     339.5351
   1426.75964     424.6899     341.1456   1426.75964     424.6899     341.1456
   1426.74438     426.5785     343.5200   1426.74438     426.5785     343.5200
   1426.72913     429.4676     344.9340   1426.72913     429.4676     344.9340
   1426.71387     432.1953     347.1841   1426.71387     432.1953     347.1841
   1426.69861     433.9697     349.2898   1426.69861     433.9697     349.2898
   1426.68335     436.1156     351.6814   1426.68335     436.1156     351.6814
   1426.66809     439.1895     353.7917   1426.66809     439.1895     353.7917
   1426.65283     441.4587     355.9204   1426.65283     441.4587     355.9204
   1426.63757     444.1387     357.7878   1426.63757     444.1387     357.7878
   1426.62231     447.4536     361.3311   1426.62231     447.4536     361.3311
   1426.60706     449.4505     362.0089   1426.60706     449.4505     362.0089
   1426.59180     451.4349     363.9349   1426.59180     451.4349     363.9349
   1426.57654     453.8167     365.8860   1426.57654     453.8167     365.8860
   1426.56128     456.7990     368.3337   1426.56128     456.7990     368.3337
   1426.54602     459.0734     371.1081   1426.54602     459.0734     371.1081
   1426.53076     460.5995     372.6065   1426.53076     460.5995     372.6065
   1426.51550     463.3219     374.5140   1426.51550     463.3219     374.5140
   1426.50024     465.9389     376.5720   1426.50024     465.9389     376.5720
   1426.48499     468.6271     379.4545   1426.48499     468.6271     379.4545
   1426.46973     471.1754     380.7027   1426.46973     471.1754     380.7027
   1426.45447     473.6521     383.1189   1426.45447     473.6521     383.1189
   1426.43921     475.6124     385.2966   1426.43921     475.6124     385.2966
   1426.42395     478.1493     387.1008   1426.42395     478.1493     387.1008
   1426.40869     480.6050     389.2084   1426.40869     480.6050     389.2084
   1426.39343     483.4736     391.3824   1426.39343     483.4736     391.3824
   1426.37817     485.1106     392.9474   1426.37817     485.1106     392.9474
   1426.36292     488.0029     396.2755   1426.36292     488.0029     396.2755
   1426.34766     489.8661     398.1526   1426.34766     489.8661     398.1526
   1426.33240     493.1343     399.0797   1426.33240     493.1343     399.0797
   1426.31714     495.6499     401.8692   1426.31714     495.6499     401.8692
   1426.30188     497.8366     403.7501   1426.30188     497.8366     403.7501
   1426.28662     498.9943     406.0644   1426.28662     498.9943     406.0644
   1426.27136     501.6098     407.6617   1426.27136     501.6098     407.6617
   1426.25610     504.6432     409.9024   1426.25610     504.6432     409.9024
   1426.24084     507.2041     411.7818   1426.24084     507.2041     411.7818
   1426.22559     508.8589     414.1052   1426.22559     508.8589     414.1052
   1426.21033     510.6267     415.8418   1426.21033     510.6267     415.8418
   1426.19507     512.2972     417.6215   1426.19507     512.2972     417.6215
   1426.17981     515.6780     420.2864   1426.17981     515.6780     420.2864
   1426.16455     516.8735     422.3719   1426.16455     516.8735     422.3719
   1426.14929     519.6332     424.4666   1426.14929     519.6332     424.4666
   1426.13403     521.8935     426.4738   1426.13403     521.8935     426.4738
   1426.11877     523.6164     427.9678   1426.11877     523.6164     427.9678
   1426.10352     525.1025     429.7870   1426.10352     525.1025     429.7870
   1426.08826     528.6570     431.6125   1426.08826     528.6570     431.6125
   1426.07300     529.4528     434.0133   1426.07300     529.4528     434.0133
   1426.05774     531.8797     435.8891   1426.05774     531.8797     435.8891
   1426.04248     534.7830     438.4535   1426.04248     534.7830     438.4535
   1426.02722     536.0772     440.2859   1426.02722     536.0772     440.2859
   1426.01196     537.4173     441.8061   1426.01196     537.4173     441.8061
   1425.99670     539.8622     443.1317   1425.99670     539.8622     443.1317
   1425.98145     540.2746     445.4994   1425.98145     540.2746     445.4994
   1425.96619     544.0963     446.4876   1425.96619     544.0963     446.4876
   1425.95093     544.9371     448.9404   1425.95093     544.9371     448.9404
   1425.93567     547.6602     451.3427   1425.93567     547.6602     451.3427
   1425.92041     549.2173     453.3102   1425.92041     549.2173     453.3102
   1425.90515     551.6109     453.9976   1425.90515     551.6109     453.9976
   1425.88989     552.4049     455.9864   1425.88989     552.4049     455.9864
   1425.87463     554.0129     458.2726   1425.87463     554.0129     458.2726
   1425.85938     556.0203     459.5432   1425.85938     556.0203     459.5432
   1425.84412     557.9268     461.2152   1425.84412     557.9268     461.2152
   1425.82886     558.5953     464.1229   1425.82886     558.5953     464.1229
   1425.81360     560.8975     465.3662   1425.81360     560.8975     465.3662
   1425.79834     563.6135     466.7849   1425.79834     563.6135     466.7849
   1425.78308     564.6806     468.9301   1425.78308     564.6806     468.9301
   1425.76782     566.5056     470.5526   1425.76782     566.5056     470.5526
   1425.75256     568.4397     472.4731   1425.75256     568.4397     472.4731
   1425.73730     569.2253     473.0921   1425.73730     569.2253     473.0921
   1425.72205     570.7124     476.0627   1425.72205     570.7124     476.0627
   1425.70679     573.0557     477.1522   1425.70679     573.0557     477.1522
   1425.69153     573.7651     479.4089   1425.69153     573.7651     479.4089
   1425.67627     574.5655     480.5883   1425.67627     574.5655     480.5883
   1425.66101     576.5026     481.4946   1425.66101     576.5026     481.4946
   1425.64575     578.1872     483.7964   1425.64575     578.1872     483.7964
   1425.63049     579.2383     485.0887   1425.63049     579.2383     485.0887
   1425.61523     580.3702     487.7593   1425.61523     580.3702     487.7593
   1425.59998     580.9864     488.4004   1425.59998     580.9864     488.4004
   1425.58472     584.2712     489.9846   1425.58472     584.2712     489.9846
   1425.56946     585.0186     491.7605   1425.56946     585.0186     491.7605
   1425.55420     586.1396     493.4135   1425.55420     586.1396     493.4135
   1425.53894     587.1757     494.6027   1425.53894     587.1757     494.6027
   1425.52368     587.8558     495.6801   1425.52368     587.8558     495.6801
   1425.50842     589.9286     497.6196   1425.50842     589.9286     497.6196
   1425.49316     589.9408     499.2563   1425.49316     589.9408     499.2563
   1425.47791     591.4890     499.8456   1425.47791     591.4890     499.8456
   1425.46265     592.7663     501.9469   1425.46265     592.7663     501.9469
   1425.44739     593.1602     503.7085   1425.44739     593.1602     503.7085
   1425.43213     593.9340     505.0854   1425.43213     593.9340     505.0854
   1425.41687     595.8874     507.5880   1425.41687     595.8874     507.5880
   1425.40161     597.0968     507.8167   1425.40161     597.0968     507.8167
   1425.38635     596.9051     508.4713   1425.38635     596.9051     508.4713
   1425.37109     599.1805     510.0729   1425.37109     599.1805     510.0729
   1425.35583     598.7094     510.8599   1425.35583     598.7094     510.8599
   1425.34058     600.7910     512.8185   1425.34058     600.7910     512.8185
   1425.32532     600.9863     514.5283   1425.32532     600.9863     514.5283
   1425.31006     602.2430     515.7183   1425.31006     602.2430     515.7183
   1425.29480     603.4824     517.9465   1425.29480     603.4824     517.9465
   1425.27954     604.4809     517.6392   1425.27954     604.4809     517.6392
   1425.26428     605.2401     519.1003   1425.26428     605.2401     519.1003
   1425.24902     605.4282     520.8117   1425.24902     605.4282     520.8117
   1425.23376     605.9359     522.1935   1425.23376     605.9359     522.1935
   1425.21851     606.8029     523.1183   1425.21851     606.8029     523.1183
   1425.20325     605.9097     525.2913   1425.20325     605.9097     525.2913
   1425.18799     608.1616     525.2831   1425.18799     608.1616     525.2831
   1425.17273     608.8995     527.5173   1425.17273     608.8995     527.5173
   1425.15747     609.4514     527.8229   1425.15747     609.4514     527.8229
   1425.14221     609.2238     529.5591   1425.14221     609.2238     529.5591
   1425.12695     611.0961     530.3617   1425.12695     611.0961     530.3617
   1425.11169     611.4167     531.5795   1425.11169     611.4167     531.5795
   1425.09644     610.4402     532.4749   1425.09644     610.4402     532.4749
   1425.08118     612.7849     534.2293   1425.08118     612.7849     534.2293
   1425.06592     612.8381     535.0676   1425.06592     612.8381     535.0676
   1425.05066     613.7511     536.3985   1425.05066     613.7511     536.3985
   1425.03540     614.1310     537.6497   1425.03540     614.1310     537.6497
   1425.02014     614.5161     538.0909   1425.02014     614.5161     538.0909
   1425.00488     615.0419     539.5744   1425.00488     615.0419     539.5744
   1424.98962     615.3900     541.1016   1424.98962     615.3900     541.1016
   1424.97437     615.6285     540.9796   1424.97437     615.6285     540.9796
   1424.95911     616.0903     543.0844   1424.95911     616.0903     543.0844
   1424.94385     616.2548     543.4557   1424.94385     616.2548     543.4557
   1424.92859     617.2071     545.0260   1424.92859     617.2071     545.0260
   1424.91333     616.5914     546.9054   1424.91333     616.5914     546.9054
   1424.89807     618.6941     546.8619   1424.89807     618.6941     546.8619
   1424.88281     618.5579     547.7685   1424.88281     618.5579     547.7685
   1424.86755     618.4597     548.6626   1424.86755     618.4597     548.6626
   1424.85229     619.0405     550.2766   1424.85229     619.0405     550.2766
   1424.83704     618.1555     550.1954   1424.83704     618.1555     550.1954
   1424.82178     619.0547     551.2567   1424.82178     619.0547     551.2567
   1424.80652     619.7305     552.7722   1424.80652     619.7305     552.7722
   1424.79126     620.6069     554.3085   1424.79126     620.6069     554.3085
   1424.77600     619.3489     554.2361   1424.77600     619.3489     554.2361
   1424.76074     620.4008     555.1980   1424.76074     620.4008     555.1980
   1424.74548     620.4464     556.1556   1424.74548     620.4464     556.1556
   1424.73022     621.2699     556.6987   1424.73022     621.2699     556.6987
   1424.71497     620.0419     558.3787   1424.71497     620.0419     558.3787
   1424.69971     620.7840     558.7167   1424.69971     620.7840     558.7167
   1424.68445     620.3788     559.0601   1424.68445     620.3788     559.0601
   1424.66919     621.3116     560.9335   1424.66919     621.3116     560.9335
   1424.65393     620.7992     560.7074   1424.65393     620.7992     560.7074
   1424.63867     621.0747     561.6840   1424.63867     621.0747     561.6840
   1424.62341     621.9417     562.1387   1424.62341     621.9417     562.1387
   1424.60815     621.8191     563.7291   1424.60815     621.8191     563.7291
   1424.59290     621.6637     564.8598   1424.59290     621.6637     564.8598
   1424.57764     621.8858     565.4633   1424.57764     621.8858     565.4633
   1424.56238     621.5597     565.7961   1424.56238     621.5597     565.7961
   1424.54712     622.2111     566.4395   1424.54712     622.2111     566.4395
   1424.53186     622.3042     567.2228   1424.53186     622.3042     567.2228
   1424.51660     622.5400     567.7457   1424.51660     622.5400     567.7457
   1424.50134     621.8001     569.2086   1424.50134     621.8001     569.2086
   1424.48608     621.3596     569.3451   1424.48608     621.3596     569.3451
   1424.47083     621.6819     569.5844   1424.47083     621.6819     569.5844
   1424.45557     621.8223     570.8017   1424.45557     621.8223     570.8017
   1424.44031     621.8621     571.5757   1424.44031     621.8621     571.5757
   1424.42505     621.8640     572.4104   1424.42505     621.8640     572.4104
   1424.40979     622.2471     573.9235   1424.40979     622.2471     573.9235
   1424.39453     622.1279     574.1136   1424.39453     622.1279     574.1136
   1424.37927     621.2166     574.2621   1424.37927     621.2166     574.2621
   1424.36401     621.8625     574.9637   1424.36401     621.8625     574.9637
   1424.34875     621.6734     576.0227   1424.34875     621.6734     576.0227
   1424.33350     621.0930     575.3340   1424.33350     621.0930     575.3340
   1424.31824     621.2741     577.1649   1424.31824     621.2741     577.1649
   1424.30298     622.7672     576.9796   1424.30298     622.7672     576.9796
   1424.28772     621.3123     577.7173   1424.28772     621.3123     577.7173
   1424.27246     621.4963     578.6543   1424.27246     621.4963     578.6543
   1424.25720     621.6245     579.5694   1424.25720     621.6245     579.5694
   1424.24194     621.0696     579.4221   1424.24194     621.0696     579.4221
   1424.22668     619.5892     580.3328   1424.22668     619.5892     580.3328
   1424.21143     622.1381     580.8884   1424.21143     622.1381     580.8884
   1424.19617     621.4977     581.4597   1424.19617     621.4977     581.4597
   1424.18091     620.3304     581.4332   1424.18091     620.3304     581.4332
   1424.16565     620.5485     582.4899   1424.16565     620.5485     582.4899
   1424.15039     620.9935     583.2699   1424.15039     620.9935     583.2699
   1424.13513     619.9548     581.5222   1424.13513     619.9548     581.5222
   1424.11987     619.9474     583.7762   1424.11987     619.9474     583.7762
   1424.10461     620.6647     583.8973   1424.10461     620.6647     583.8973
   1424.08936     620.6452     583.4782   1424.08936     620.6452     583.4782
   1424.07410     620.2358     584.2491   1424.07410     620.2358     584.2491
   1424.05884     620.8425     584.9543   1424.05884     620.8425     584.9543
   1424.04358     619.3546     585.3082   1424.04358     619.3546     585.3082
   1424.02832     619.6473     585.5999   1424.02832     619.6473     585.5999
   1424.01306     619.8571     585.8265   1424.01306     619.8571     585.8265
   1423.99780     620.9297     585.9485   1423.99780     620.9297     585.9485
   1423.98254     619.6722     586.2071   1423.98254     619.6722     586.2071
   1423.96729     619.4193     586.3892   1423.96729     619.4193     586.3892
   1423.95203     619.4065     587.1689   1423.95203     619.4065     587.1689
   1423.93677     619.2449     587.8843   1423.93677     619.2449     587.8843
   1423.92151     620.0272     587.7911   1423.92151     620.0272     587.7911
   1423.90625     618.3223     587.0995   1423.90625     618.3223     587.0995
   1423.89099     617.8262     588.6937   1423.89099     617.8262     588.6937
   1423.87573     617.8489     588.1271   1423.87573     617.8489     588.1271
   1423.86047     618.0601     588.2755   1423.86047     618.0601     588.2755
   1423.84521     617.2042     589.1942   1423.84521     617.2042     589.1942
   1423.82996     617.8082     588.7289   1423.82996     617.8082     588.7289
   1423.81470     617.6487     588.7347   1423.81470     617.6487     588.7347
   1423.79944     618.0065     588.4695   1423.79944     618.0065     588.4695
   1423.78418     618.2734     589.0465   1423.78418     618.2734     589.0465
   1423.76892     617.0553     589.0419   1423.76892     617.0553     589.0419
   1423.75366     616.8051     589.4473   1423.75366     616.8051     589.4473
   1423.73840     616.4091     588.9247   1423.73840     616.4091     588.9247
   1423.72314     616.1073     590.5043   1423.72314     616.1073     590.5043
   1423.70789     616.0529     590.1877   1423.70789     616.0529     590.1877
   1423.69263     615.5000     589.4961   1423.69263     615.5000     589.4961
   1423.67737     616.2106     590.8225   1423.67737     616.2106     590.8225
   1423.66211     615.0634     590.7175   1423.66211     615.0634     590.7175
   1423.64685     615.2618     590.1895   1423.64685     615.2618     590.1895
   1423.63159     614.2878     589.3688   1423.63159     614.2878     589.3688
   1423.61633     615.3968     589.6499   1423.61633     615.3968     589.6499
   1423.60107     615.1943     590.6611   1423.60107     615.1943     590.6611
   1423.58582     614.4601     589.3798   1423.58582     614.4601     589.3798
   1423.57056     615.1046     590.0945   1423.57056     615.1046     590.0945
   1423.55530     613.0766     588.9112   1423.55530     613.0766     588.9112
   1423.54004     614.5341     589.3575   1423.54004     614.5341     589.3575
   1423.52478     614.3098     588.6731   1423.52478     614.3098     588.6731
   1423.50952     612.8987     588.3663   1423.50952     612.8987     588.3663
   1423.49426     613.0275     587.6420   1423.49426     613.0275     587.6420
   1423.47900     612.6454     588.1660   1423.47900     612.6454     588.1660
   1423.46375     613.2505     588.0505   1423.46375     613.2505     588.0505
   1423.44849     613.0422     588.0091   1423.44849     613.0422     588.0091
   1423.43323     612.7675     586.9820   1423.43323     612.7675     586.9820
   1423.41797     612.9251     587.2233   1423.41797     612.9251     587.2233
   1423.40271     611.8566     587.1221   1423.40271     611.8566     587.1221
   1423.38745     612.0017     587.0106   1423.38745     612.0017     587.0106
   1423.37219     611.5574     587.0614   1423.37219     611.5574     587.0614
   1423.35693     611.8994     587.0276   1423.35693     611.8994     587.0276
   1423.34167     612.8691     586.3322   1423.34167     612.8691     586.3322
   1423.32642     611.5620     586.3682   1423.32642     611.5620     586.3682
   1423.31116     611.4122     585.2379   1423.31116     611.4122     585.2379
   1423.29590     610.6501     584.2058   1423.29590     610.6501     584.2058
   1423.28064     611.4052     584.7152   1423.28064     611.4052     584.7152
   1423.26538     610.4677     583.6318   1423.26538     610.4677     583.6318
   1423.25012     610.2423     584.4877   1423.25012     610.2423     584.4877
   1423.23486     609.4287     582.9619   1423.23486     609.4287     582.9619
   1423.21960     610.0054     582.3253   1423.21960     610.0054     582.3253
   1423.20435     610.0801     580.8411   1423.20435     610.0801     580.8411
   1423.18909     609.9006     581.1802   1423.18909     609.9006     581.1802
   1423.17383     609.2650     580.9199   1423.17383     609.2650     580.9199
   1423.15857     608.6819     579.3126   1423.15857     608.6819     579.3126
   1423.14331     608.8882     579.9684   1423.14331     608.8882     579.9684
   1423.12805     609.0126     579.0170   1423.12805     609.0126     579.0170
   1423.11279     607.8421     578.2256   1423.11279     607.8421     578.2256
   1423.09753     608.9939     578.2638   1423.09753     608.9939     578.2638
   1423.08228     608.3504     577.0383   1423.08228     608.3504     577.0383
   1423.06702     608.1583     576.9977   1423.06702     608.1583     576.9977
   1423.05176     608.6097     576.4518   1423.05176     608.6097     576.4518
   1423.03650     606.7540     575.3779   1423.03650     606.7540     575.3779
   1423.02124     607.0085     574.1796   1423.02124     607.0085     574.1796
   1423.00598     607.8540     573.5844   1423.00598     607.8540     573.5844
   1422.99072     606.4166     572.6462   1422.99072     606.4166     572.6462
   1422.97546     607.6888     572.4839   1422.97546     607.6888     572.4839
   1422.96021     607.1659     572.3129   1422.96021     607.1659     572.3129
   1422.94495     606.0621     570.8437   1422.94495     606.0621     570.8437
   1422.92969     605.9457     570.2422   1422.92969     605.9457     570.2422
   1422.91443     606.2331     568.6167   1422.91443     606.2331     568.6167
   1422.89917     605.1882     568.2868   1422.89917     605.1882     568.2868
   1422.88391     605.7348     567.1595   1422.88391     605.7348     567.1595
   1422.86865     604.5289     566.1130   1422.86865     604.5289     566.1130
   1422.85339     605.8919     565.8170   1422.85339     605.8919     565.8170
   1422.83813     604.3439     564.7560   1422.83813     604.3439     564.7560
   1422.82288     603.8668     564.2357   1422.82288     603.8668     564.2357
   1422.80762     604.7610     562.9680   1422.80762     604.7610     562.9680
   1422.79236     605.1199     561.9581   1422.79236     605.1199     561.9581
   1422.77710     603.1483     561.5364   1422.77710     603.1483     561.5364
   1422.76184     603.8479     559.7137   1422.76184     603.8479     559.7137
   1422.74658     603.4694     559.4576   1422.74658     603.4694     559.4576
   1422.73132     602.6544     557.9206   1422.73132     602.6544     557.9206
   1422.71606     603.0942     558.0915   1422.71606     603.0942     558.0915
   1422.70081     603.7983     555.9924   1422.70081     603.7983     555.9924
   1422.68555     602.7911     555.5032   1422.68555     602.7911     555.5032
   1422.67029     602.9101     553.8406   1422.67029     602.9101     553.8406
   1422.65503     602.3495     552.7034   1422.65503     602.3495     552.7034
   1422.63977     603.1340     552.2903   1422.63977     603.1340     552.2903
   1422.62451     603.1237     551.7836   1422.62451     603.1237     551.7836
   1422.60925     601.0493     550.3016   1422.60925     601.0493     550.3016
   1422.59399     601.9729     549.0614   1422.59399     601.9729     549.0614
   1422.57874     601.4789     547.5864   1422.57874     601.4789     547.5864
   1422.56348     600.7502     546.6780   1422.56348     600.7502     546.6780
   1422.54822     600.4160     545.6125   1422.54822     600.4160     545.6125
   1422.53296     600.3491     545.0460   1422.53296     600.3491     545.0460
   1422.51770     600.1548     544.3665   1422.51770     600.1548     544.3665
   1422.50244     600.2194     542.2000   1422.50244     600.2194     542.2000
   1422.48718     600.3300     541.8062   1422.48718     600.3300     541.8062
   1422.47192     599.3030     540.3625   1422.47192     599.3030     540.3625
   1422.45667     599.8855     539.0875   1422.45667     599.8855     539.0875
   1422.44141     600.0145     537.5798   1422.44141     600.0145     537.5798
   1422.42615     598.8324     536.9064   1422.42615     598.8324     536.9064
   1422.41089     599.0051     534.9768   1422.41089     599.0051     534.9768
   1422.39563     599.0562     534.5529   1422.39563     599.0562     534.5529
   1422.38037     599.1532     532.8642   1422.38037     599.1532     532.8642
   1422.36511     598.1138     531.1606   1422.36511     598.1138     531.1606
   1422.34985     599.4821     530.4062   1422.34985     599.4821     530.4062
   1422.33459     597.3682     529.6124   1422.33459     597.3682     529.6124
   1422.31934     598.1497     528.2982   1422.31934     598.1497     528.2982
   1422.30408     597.8734     526.9745   1422.30408     597.8734     526.9745
   1422.28882     598.7025     526.4559   1422.28882     598.7025     526.4559
   1422.27356     598.2004     524.8423   1422.27356     598.2004     524.8423
   1422.25830     597.6275     522.2346   1422.25830     597.6275     522.2346
   1422.24304     597.8691     522.1787   1422.24304     597.8691     522.1787
   1422.22778     596.8871     521.0193   1422.22778     596.8871     521.0193
   1422.21252     597.4720     520.0456   1422.21252     597.4720     520.0456
   1422.19727     596.0540     517.9953   1422.19727     596.0540     517.9953
   1422.18201     596.5112     518.2733   1422.18201     596.5112     518.2733
   1422.16675     596.9325     516.5054   1422.16675     596.9325     516.5054
   1422.15149     596.2774     514.5397   1422.15149     596.2774     514.5397
   1422.13623     596.6298     513.4562   1422.13623     596.6298     513.4562
   1422.12097     595.4753     512.4828   1422.12097     595.4753     512.4828
   1422.10571     595.8082     510.3792   1422.10571     595.8082     510.3792
   1422.09045     595.1351     509.6062   1422.09045     595.1351     509.6062
   1422.07520     595.3599     508.1438   1422.07520     595.3599     508.1438
   1422.05994     594.5933     506.1148   1422.05994     594.5933     506.1148
   1422.04468     594.5760     506.4826   1422.04468     594.5760     506.4826
   1422.02942     593.9128     504.9594   1422.02942     593.9128     504.9594
   1422.01416     595.0660     503.7622   1422.01416     595.0660     503.7622
   1421.99890     594.8610     502.1684   1421.99890     594.8610     502.1684
   1421.98364     593.7347     500.6315   1421.98364     593.7347     500.6315
   1421.96838     593.2129     498.9668   1421.96838     593.2129     498.9668
   1421.95312     594.0312     498.3052   1421.95312     594.0312     498.3052
   1421.93787     593.5348     497.4789   1421.93787     593.5348     497.4789
   1421.92261     592.5696     495.6252   1421.92261     592.5696     495.6252
   1421.90735     593.5164     494.7391   1421.90735     593.5164     494.7391
   1421.89209     593.1355     492.7473   1421.89209     593.1355     492.7473
   1421.87683     593.3874     492.1288   1421.87683     593.3874     492.1288
   1421.86157     593.3749     490.5972   1421.86157     593.3749     490.5972
   1421.84631     591.9104     489.7580   1421.84631     591.9104     489.7580
   1421.83105     592.2579     487.8883   1421.83105     592.2579     487.8883
   1421.81580     593.0312     487.6580   1421.81580     593.0312     487.6580
   1421.80054     592.2278     486.1641   1421.80054     592.2278     486.1641
   1421.78528     591.7465     484.0853   1421.78528     591.7465     484.0853
   1421.77002     591.6812     482.8343   1421.77002     591.6812     482.8343
   1421.75476     591.8281     482.6418   1421.75476     591.8281     482.6418
   1421.73950     590.8914     480.7476   1421.73950     590.8914     480.7476
   1421.72424     589.7259     480.0046   1421.72424     589.7259     480.0046
   1421.70898     590.8754     479.3788   1421.70898     590.8754     479.3788
   1421.69373     590.5049     476.5165   1421.69373     590.5049     476.5165
   1421.67847     590.1559     476.1872   1421.67847     590.1559     476.1872
   1421.66321     590.9048     474.6528   1421.66321     590.9048     474.6528
   1421.64795     589.8434     473.4342   1421.64795     589.8434     473.4342
   1421.63269     590.0056     471.7038   1421.63269     590.0056     471.7038
   1421.61743     589.5799     471.5859   1421.61743     589.5799     471.5859
   1421.60217     588.7576     469.2554   1421.60217     588.7576     469.2554
   1421.58691     588.4853     468.7989   1421.58691     588.4853     468.7989
   1421.57166     589.5290     467.2190   1421.57166     589.5290     467.2190
   1421.55640     588.6124     466.0538   1421.55640     588.6124     466.0538
   1421.54114     588.6079     464.1456   1421.54114     588.6079     464.1456
   1421.52588     588.4471     464.4518   1421.52588     588.4471     464.4518
   1421.51062     587.7812     462.9879   1421.51062     587.7812     462.9879
   1421.49536     586.8646     461.1640   1421.49536     586.8646     461.1640
   1421.48010     587.9818     460.7891   1421.48010     587.9818     460.7891
   1421.46484     588.2039     459.0660   1421.46484     588.2039     459.0660
   1421.44958     587.4454     458.6590   1421.44958     587.4454     458.6590
   1421.43433     587.3865     456.3830   1421.43433     587.3865     456.3830
   1421.41907     587.0039     455.7357   1421.41907     587.0039     455.7357
   1421.40381     586.8434     454.5500   1421.40381     586.8434     454.5500
   1421.38855     587.1053     453.2303   1421.38855     587.1053     453.2303
   1421.37329     586.6627     452.7625   1421.37329     586.6627     452.7625
   1421.35803     585.9203     451.4532   1421.35803     585.9203     451.4532
   1421.34277     587.2148     449.6469   1421.34277     587.2148     449.6469
   1421.32751     585.1917     449.2336   1421.32751     585.1917     449.2336
   1421.31226     585.8230     447.8677   1421.31226     585.8230     447.8677
   1421.29700     585.2559     446.2803   1421.29700     585.2559     446.2803
   1421.28174     585.7085     445.1365   1421.28174     585.7085     445.1365
   1421.26648     584.8384     443.6468   1421.26648     584.8384     443.6468
   1421.25122     584.5801     443.3568   1421.25122     584.5801     443.3568
   1421.23596     584.9285     441.8769   1421.23596     584.9285     441.8769
   1421.22070     583.9111     440.4244   1421.22070     583.9111     440.4244
   1421.20544     583.9441     439.5207   1421.20544     583.9441     439.5207
   1421.19019     584.7949     438.7422   1421.19019     584.7949     438.7422
   1421.17493     582.9766     437.0994   1421.17493     582.9766     437.0994
   1421.15967     583.3566     435.5046   1421.15967     583.3566     435.5046
   1421.14441     583.5426     435.8734   1421.14441     583.5426     435.8734
   1421.12915     582.8364     434.5004   1421.12915     582.8364     434.5004
   1421.11389     583.5972     432.8416   1421.11389     583.5972     432.8416
   1421.09863     582.5115     431.6050   1421.09863     582.5115     431.6050
   1421.08337     583.3224     431.2710   1421.08337     583.3224     431.2710
   1421.06812     582.1310     429.9805   1421.06812     582.1310     429.9805
   1421.05286     582.0715     429.1990   1421.05286     582.0715     429.1990
   1421.03760     582.1053     427.8174   1421.03760     582.1053     427.8174
   1421.02234     580.9230     426.6687   1421.02234     580.9230     426.6687
   1421.00708     581.9043     425.7120   1421.00708     581.9043     425.7120
   1420.99182     581.5361     424.3529   1420.99182     581.5361     424.3529
   1420.97656     580.7975     423.7801   1420.97656     580.7975     423.7801
   1420.96130     581.2274     423.0280   1420.96130     581.2274     423.0280
   1420.94604     580.3559     422.3277   1420.94604     580.3559     422.3277
   1420.93079     581.3501     420.7827   1420.93079     581.3501     420.7827
   1420.91553     580.3939     420.2420   1420.91553     580.3939     420.2420
   1420.90027     580.7602     419.1823   1420.90027     580.7602     419.1823
   1420.88501     579.8079     417.5526   1420.88501     579.8079     417.5526
   1420.86975     579.3311     416.8017   1420.86975     579.3311     416.8017
   1420.85449     580.4506     416.7489   1420.85449     580.4506     416.7489
   1420.83923     580.2579     414.7404   1420.83923     580.2579     414.7404
   1420.82397     580.2308     413.9989   1420.82397     580.2308     413.9989
   1420.80872     579.1364     413.6570   1420.80872     579.1364     413.6570
   1420.79346     579.3901     411.6330   1420.79346     579.3901     411.6330
   1420.77820     579.4244     411.2036   1420.77820     579.4244     411.2036
   1420.76294     578.7835     409.8785   1420.76294     578.7835     409.8785
   1420.74768     579.8902     410.9687   1420.74768     579.8902     410.9687
   1420.73242     579.1022     408.9472   1420.73242     579.1022     408.9472
   1420.71716     579.9020     408.9909   1420.71716     579.9020     408.9909
   1420.70190     579.1415     407.6282   1420.70190     579.1415     407.6282
   1420.68665     579.2218     407.2135   1420.68665     579.2218     407.2135
   1420.67139     578.8775     406.0792   1420.67139     578.8775     406.0792
   1420.65613     579.1590     404.7790   1420.65613     579.1590     404.7790
   1420.64087     578.2141     404.2455   1420.64087     578.2141     404.2455
   1420.62561     579.4791     403.4420   1420.62561     579.4791     403.4420
   1420.61035     579.0282     402.2994   1420.61035     579.0282     402.2994
   1420.59509     579.6071     401.2576   1420.59509     579.6071     401.2576
   1420.57983     578.3978     400.7262   1420.57983     578.3978     400.7262
   1420.56458     579.1279     400.6002   1420.56458     579.1279     400.6002
   1420.54932     580.0586     399.4724   1420.54932     580.0586     399.4724
   1420.53406     581.4339     399.9098   1420.53406     581.4339     399.9098
   1420.51880     580.6046     398.7682   1420.51880     580.6046     398.7682
   1420.50354     581.7962     398.3574   1420.50354     581.7962     398.3574
   1420.48828     582.2910     398.6544   1420.48828     582.2910     398.6544
   1420.47302     581.6375     397.4044   1420.47302     581.6375     397.4044
   1420.45776     582.2972     396.3511   1420.45776     582.2972     396.3511
   1420.44250     581.4175     395.8532   1420.44250     581.4175     395.8532
   1420.42725     580.1016     394.0186   1420.42725     580.1016     394.0186
   1420.41199     580.2365     393.5004   1420.41199     580.2365     393.5004
   1420.39673     579.9368     393.0437   1420.39673     579.9368     393.0437
   1420.38147     579.5482     391.4941   1420.38147     579.5482     391.4941
   1420.36621     579.1779     391.2987   1420.36621     579.1779     391.2987
   1420.35095     579.0614     390.9977   1420.35095     579.0614     390.9977
   1420.33569     580.3774     390.1339   1420.33569     580.3774     390.1339
   1420.32043     580.0557     390.5300   1420.32043     580.0557     390.5300
   1420.30518     581.8676     390.4670   1420.30518     581.8676     390.4670
   1420.28992     584.7690     392.3557   1420.28992     584.7690     392.3557
   1420.27466     591.2285     396.6600   1420.27466     591.2285     396.6600
   1420.25940     611.3104     407.5987   1420.25940     611.3104     407.5987
   1420.24414     650.1489     431.4280   1420.24414     650.1489     431.4280
   1420.22888     699.1825     461.9817   1420.22888     699.1825     461.9817
   1420.21362     721.6713     475.9123   1420.21362     721.6713     475.9123
   1420.19836     733.6484     482.2162   1420.19836     733.6484     482.2162
   1420.18311     823.0286     537.8478   1420.18311     823.0286     537.8478
   1420.16785    1040.6353     676.5355   1420.16785    1040.6353     676.5355
   1420.15259    1308.4702     841.6935   1420.15259    1308.4702     841.6935
   1420.13733    1399.5997     902.5762   1420.13733    1399.5997     902.5762
   1420.12207    1193.7104     770.3840   1420.12207    1193.7104     770.3840
   1420.10681     915.6440     593.2303   1420.10681     915.6440     593.2303
   1420.09155     742.4859     483.1572   1420.09155     742.4859     483.1572
   1420.07629     658.3305     429.3496   1420.07629     658.3305     429.3496
   1420.06104     623.7582     407.4999   1420.06104     623.7582     407.4999
   1420.04578     615.6518     401.7561   1420.04578     615.6518     401.7561
   1420.03052     625.8189     407.6577   1420.03052     625.8189     407.6577
   1420.01526     663.7421     432.8885   1420.01526     663.7421     432.8885
   1420.00000     853.7156     550.6943   1420.00000     853.7156     550.6943
   1419.98474    1043.6891     668.4999   1419.98474    1043.6891     668.4999
   1419.96948    1370.0302     868.1820   1419.96948    1370.0302     868.1820
   1419.95422    1425.1632     900.5297   1419.95422    1425.1632     900.5297
   1419.93896    1248.7218     789.9293   1419.93896    1248.7218     789.9293
   1419.92371    1068.1376     678.4119   1419.92371    1068.1376     678.4119
   1419.90845    1016.6915     643.8638   1419.90845    1016.6915     643.8638
   1419.89319    1046.5287     662.5753   1419.89319    1046.5287     662.5753
   1419.87793    1024.4861     647.0062   1419.87793    1024.4861     647.0062
   1419.86267    1014.8842     642.4010   1419.86267    1014.8842     642.4010
   1419.84741     947.6053     597.8430   1419.84741     947.6053     597.8430
   1419.83215     863.0412     547.1458   1419.83215     863.0412     547.1458
   1419.81689     809.8583     513.1110   1419.81689     809.8583     513.1110
   1419.80164     763.1453     483.7160   1419.80164     763.1453     483.7160
   1419.78638     732.0973     464.2636   1419.78638     732.0973     464.2636
   1419.77112     705.9276     447.7157   1419.77112     705.9276     447.7157
   1419.75586     692.2446     438.7410   1419.75586     692.2446     438.7410
   1419.74060     686.9415     434.0723   1419.74060     686.9415     434.0723
   1419.72534     673.9390     426.6952   1419.72534     673.9390     426.6952
   1419.71008     655.1768     416.3991   1419.71008     655.1768     416.3991
   1419.69482     644.8621     407.5410   1419.69482     644.8621     407.5410
   1419.67957     631.1329     398.8057   1419.67957     631.1329     398.8057
   1419.66431     619.5521     391.8635   1419.66431     619.5521     391.8635
   1419.64905     612.4489     386.5865   1419.64905     612.4489     386.5865
   1419.63379     606.1584     382.8644   1419.63379     606.1584     382.8644
   1419.61853     598.2501     377.3783   1419.61853     598.2501     377.3783
   1419.60327     591.3973     373.0614   1419.60327     591.3973     373.0614
   1419.58801     585.8710     369.1221   1419.58801     585.8710     369.1221
   1419.57275     580.3279     366.6862   1419.57275     580.3279     366.6862
   1419.55750     578.7404     364.8548   1419.55750     578.7404     364.8548
   1419.54224     576.7714     363.0196   1419.54224     576.7714     363.0196
   1419.52698     574.8483     361.5595   1419.52698     574.8483     361.5595
   1419.51172     574.8570     361.0981   1419.51172     574.8570     361.0981
   1419.49646     574.8927     360.0508   1419.49646     574.8927     360.0508
   1419.48120     574.2255     359.4142   1419.48120     574.2255     359.4142
   1419.46594     575.0386     359.9904   1419.46594     575.0386     359.9904
   1419.45068     574.6516     359.3488   1419.45068     574.6516     359.3488
   1419.43542     574.8047     359.3983   1419.43542     574.8047     359.3983
   1419.42017     574.5308     358.3934   1419.42017     574.5308     358.3934
   1419.40491     575.2766     358.4756   1419.40491     575.2766     358.4756
   1419.38965     574.2767     358.1639   1419.38965     574.2767     358.1639
   1419.37439     575.4222     358.4179   1419.37439     575.4222     358.4179
   1419.35913     575.9714     358.4155   1419.35913     575.9714     358.4155
   1419.34387     575.3413     357.7637   1419.34387     575.3413     357.7637
   1419.32861     576.2786     357.1706   1419.32861     576.2786     357.1706
   1419.31335     576.9448     358.1238   1419.31335     576.9448     358.1238
   1419.29810     576.6777     356.8036   1419.29810     576.6777     356.8036
   1419.28284     577.0109     357.6952   1419.28284     577.0109     357.6952
   1419.26758     577.6611     357.4174   1419.26758     577.6611     357.4174
   1419.25232     577.6393     356.9142   1419.25232     577.6393     356.9142
   1419.23706     577.8891     357.0575   1419.23706     577.8891     357.0575
   1419.22180     577.6674     357.3163   1419.22180     577.6674     357.3163
   1419.20654     578.6801     357.4184   1419.20654     578.6801     357.4184
   1419.19128     578.8248     357.4181   1419.19128     578.8248     357.4181
   1419.17603     579.4395     357.1818   1419.17603     579.4395     357.1818
   1419.16077     578.9808     357.1364   1419.16077     578.9808     357.1364
   1419.14551     579.6349     357.1711   1419.14551     579.6349     357.1711
   1419.13025     581.0272     357.1308   1419.13025     581.0272     357.1308
   1419.11499     580.7263     356.9544   1419.11499     580.7263     356.9544
   1419.09973     581.2916     357.4522   1419.09973     581.2916     357.4522
   1419.08447     581.0647     356.8504   1419.08447     581.0647     356.8504
   1419.06921     581.5427     357.4576   1419.06921     581.5427     357.4576
   1419.05396     581.5972     357.1221   1419.05396     581.5972     357.1221
   1419.03870     582.6597     357.4098   1419.03870     582.6597     357.4098
   1419.02344     583.3746     357.3857   1419.02344     583.3746     357.3857
   1419.00818     584.5570     357.3591   1419.00818     584.5570     357.3591
   1418.99292     584.2332     357.5984   1418.99292     584.2332     357.5984
   1418.97766     584.1329     357.4968   1418.97766     584.1329     357.4968
   1418.96240     585.6005     357.5127   1418.96240     585.6005     357.5127
   1418.94714     585.5728     357.3955   1418.94714     585.5728     357.3955
   1418.93188     585.6461     357.7673   1418.93188     585.6461     357.7673
   1418.91663     586.6636     358.2769   1418.91663     586.6636     358.2769
   1418.90137     586.6843     357.6589   1418.90137     586.6843     357.6589
   1418.88611     586.9212     358.1384   1418.88611     586.9212     358.1384
   1418.87085     588.6385     358.3466   1418.87085     588.6385     358.3466
   1418.85559     588.7501     358.5344   1418.85559     588.7501     358.5344
   1418.84033     589.9882     358.6390   1418.84033     589.9882     358.6390
   1418.82507     590.4017     358.9158   1418.82507     590.4017     358.9158
   1418.80981     590.8384     358.7278   1418.80981     590.8384     358.7278
   1418.79456     590.4729     359.0273   1418.79456     590.4729     359.0273
   1418.77930     591.8495     359.2493   1418.77930     591.8495     359.2493
   1418.76404     591.7972     359.6133   1418.76404     591.7972     359.6133
   1418.74878     592.7029     359.8475   1418.74878     592.7029     359.8475
   1418.73352     593.8437     359.8470   1418.73352     593.8437     359.8470
   1418.71826     592.9290     360.1169   1418.71826     592.9290     360.1169
   1418.70300     594.6772     360.4221   1418.70300     594.6772     360.4221
   1418.68774     594.6110     360.5414   1418.68774     594.6110     360.5414
   1418.67249     595.4058     360.8086   1418.67249     595.4058     360.8086
   1418.65723     596.4801     360.7906   1418.65723     596.4801     360.7906
   1418.64197     596.8300     360.9568   1418.64197     596.8300     360.9568
   1418.62671     597.0979     361.6049   1418.62671     597.0979     361.6049
   1418.61145     598.4944     361.3125   1418.61145     598.4944     361.3125
   1418.59619     598.7025     362.6010   1418.59619     598.7025     362.6010
   1418.58093     599.6830     362.8494   1418.58093     599.6830     362.8494
   1418.56567     599.4325     362.9128   1418.56567     599.4325     362.9128
   1418.55042     601.5607     363.3108   1418.55042     601.5607     363.3108
   1418.53516     601.4115     363.0782   1418.53516     601.4115     363.0782
   1418.51990     603.0197     363.9048   1418.51990     603.0197     363.9048
   1418.50464     602.3418     364.9821   1418.50464     602.3418     364.9821
   1418.48938     603.7048     364.5732   1418.48938     603.7048     364.5732
   1418.47412     604.4645     364.3441   1418.47412     604.4645     364.3441
   1418.45886     605.5611     364.9255   1418.45886     605.5611     364.9255
   1418.44360     606.5430     364.6602   1418.44360     606.5430     364.6602
   1418.42834     606.0276     366.2159   1418.42834     606.0276     366.2159
   1418.41309     607.8408     366.0244   1418.41309     607.8408     366.0244
   1418.39783     609.0649     366.5365   1418.39783     609.0649     366.5365
   1418.38257     609.4612     367.3151   1418.38257     609.4612     367.3151
   1418.36731     610.1725     367.5248   1418.36731     610.1725     367.5248
   1418.35205     611.1050     367.7994   1418.35205     611.1050     367.7994
   1418.33679     611.7797     368.6343   1418.33679     611.7797     368.6343
   1418.32153     612.8509     368.4441   1418.32153     612.8509     368.4441
   1418.30627     613.5561     369.4191   1418.30627     613.5561     369.4191
   1418.29102     614.1565     369.8113   1418.29102     614.1565     369.8113
   1418.27576     615.7964     369.8192   1418.27576     615.7964     369.8192
   1418.26050     615.5789     370.7077   1418.26050     615.5789     370.7077
   1418.24524     616.5309     371.2821   1418.24524     616.5309     371.2821
   1418.22998     618.0588     371.5070   1418.22998     618.0588     371.5070
   1418.21472     619.2372     372.2297   1418.21472     619.2372     372.2297
   1418.19946     619.1273     372.0186   1418.19946     619.1273     372.0186
   1418.18420     619.3864     372.9048   1418.18420     619.3864     372.9048
   1418.16895     621.9920     373.8483   1418.16895     621.9920     373.8483
   1418.15369     620.9317     373.6838   1418.15369     620.9317     373.6838
   1418.13843     623.2592     374.1183   1418.13843     623.2592     374.1183
   1418.12317     624.7386     374.3683   1418.12317     624.7386     374.3683
   1418.10791     624.7119     375.6721   1418.10791     624.7119     375.6721
   1418.09265     625.4105     375.6675   1418.09265     625.4105     375.6675
   1418.07739     626.5934     376.3203   1418.07739     626.5934     376.3203
   1418.06213     628.6770     376.8548   1418.06213     628.6770     376.8548
   1418.04688     629.3499     377.0560   1418.04688     629.3499     377.0560
   1418.03162     629.3923     377.5950   1418.03162     629.3923     377.5950
   1418.01636     629.6281     377.7818   1418.01636     629.6281     377.7818
   1418.00110     631.8137     378.8484   1418.00110     631.8137     378.8484
   1417.98584     633.2996     379.2077   1417.98584     633.2996     379.2077
   1417.97058     632.8545     379.8114   1417.97058     632.8545     379.8114
   1417.95532     634.1449     380.7095   1417.95532     634.1449     380.7095
   1417.94006     635.8232     380.8160   1417.94006     635.8232     380.8160
   1417.92480     636.7288     381.5403   1417.92480     636.7288     381.5403
   1417.90955     637.5988     382.4033   1417.90955     637.5988     382.4033
   1417.89429     638.8667     382.9397   1417.89429     638.8667     382.9397
   1417.87903     639.2355     383.1912   1417.87903     639.2355     383.1912
   1417.86377     639.2603     383.6813   1417.86377     639.2603     383.6813
   1417.84851     642.6659     384.8457   1417.84851     642.6659     384.8457
   1417.83325     643.3201     385.3400   1417.83325     643.3201     385.3400
   1417.81799     643.3792     385.6493   1417.81799     643.3792     385.6493
   1417.80273     644.4584     386.9464   1417.80273     644.4584     386.9464
   1417.78748     644.8601     386.9926   1417.78748     644.8601     386.9926
   1417.77222     646.1002     387.0787   1417.77222     646.1002     387.0787
   1417.75696     648.3074     388.5340   1417.75696     648.3074     388.5340
   1417.74170     648.9593     388.8387   1417.74170     648.9593     388.8387
   1417.72644     650.8007     389.2596   1417.72644     650.8007     389.2596
   1417.71118     650.1429     390.8193   1417.71118     650.1429     390.8193
   1417.69592     651.7152     390.6951   1417.69592     651.7152     390.6951
   1417.68066     653.4940     390.7563   1417.68066     653.4940     390.7563
   1417.66541     653.1774     391.7946   1417.66541     653.1774     391.7946
   1417.65015     655.0800     392.4697   1417.65015     655.0800     392.4697
   1417.63489     656.8759     392.5414   1417.63489     656.8759     392.5414
   1417.61963     656.9772     393.6854   1417.61963     656.9772     393.6854
   1417.60437     658.2587     394.7411   1417.60437     658.2587     394.7411
   1417.58911     659.9777     394.7221   1417.58911     659.9777     394.7221
   1417.57385     660.9249     395.4070   1417.57385     660.9249     395.4070
   1417.55859     661.1844     396.3647   1417.55859     661.1844     396.3647
   1417.54333     662.8903     396.9162   1417.54333     662.8903     396.9162
   1417.52808     662.3849     397.1281   1417.52808     662.3849     397.1281
   1417.51282     665.0698     398.0864   1417.51282     665.0698     398.0864
   1417.49756     666.3120     399.2759   1417.49756     666.3120     399.2759
   1417.48230     666.2648     399.1011   1417.48230     666.2648     399.1011
   1417.46704     668.0579     400.2930   1417.46704     668.0579     400.2930
   1417.45178     667.9556     399.8241   1417.45178     667.9556     399.8241
   1417.43652     669.7681     400.8049   1417.43652     669.7681     400.8049
   1417.42126     670.5986     401.7292   1417.42126     670.5986     401.7292
   1417.40601     670.6304     402.0150   1417.40601     670.6304     402.0150
   1417.39075     672.0707     403.4160   1417.39075     672.0707     403.4160
   1417.37549     673.2130     404.0369   1417.37549     673.2130     404.0369
   1417.36023     673.4113     404.5789   1417.36023     673.4113     404.5789
   1417.34497     674.7663     405.0465   1417.34497     674.7663     405.0465
   1417.32971     676.1813     405.1597   1417.32971     676.1813     405.1597
   1417.31445     677.2109     406.1388   1417.31445     677.2109     406.1388
   1417.29919     677.6065     406.7908   1417.29919     677.6065     406.7908
   1417.28394     680.0554     407.8195   1417.28394     680.0554     407.8195
   1417.26868     679.5806     407.1212   1417.26868     679.5806     407.1212
   1417.25342     681.3361     408.6451   1417.25342     681.3361     408.6451
   1417.23816     681.8771     409.3559   1417.23816     681.8771     409.3559
   1417.22290     682.7846     410.8377   1417.22290     682.7846     410.8377
   1417.20764     683.5229     410.5090   1417.20764     683.5229     410.5090
   1417.19238     684.2887     410.9470   1417.19238     684.2887     410.9470
   1417.17712     684.9046     411.7664   1417.17712     684.9046     411.7664
   1417.16187     685.9332     411.8768   1417.16187     685.9332     411.8768
   1417.14661     687.1404     413.3112   1417.14661     687.1404     413.3112
   1417.13135     687.3008     412.7487   1417.13135     687.3008     412.7487
   1417.11609     686.9224     413.7696   1417.11609     686.9224     413.7696
   1417.10083     690.2665     414.4754   1417.10083     690.2665     414.4754
   1417.08557     691.3162     414.7300   1417.08557     691.3162     414.7300
   1417.07031     691.2635     414.4947   1417.07031     691.2635     414.4947
   1417.05505     691.9072     416.4465   1417.05505     691.9072     416.4465
   1417.03979     691.7488     416.6328   1417.03979     691.7488     416.6328
   1417.02454     692.9111     417.0244   1417.02454     692.9111     417.0244
   1417.00928     694.1995     417.0487   1417.00928     694.1995     417.0487
   1416.99402     693.9030     418.4235   1416.99402     693.9030     418.4235
   1416.97876     694.9381     418.1508   1416.97876     694.9381     418.1508
   1416.96350     696.0807     418.9592   1416.96350     696.0807     418.9592
   1416.94824     697.1941     419.3615   1416.94824     697.1941     419.3615
   1416.93298     698.5840     419.9934   1416.93298     698.5840     419.9934
   1416.91772     698.2991     420.1238   1416.91772     698.2991     420.1238
   1416.90247     698.4337     421.0494   1416.90247     698.4337     421.0494
   1416.88721     699.3576     421.4936   1416.88721     699.3576     421.4936
   1416.87195     699.8555     421.7309   1416.87195     699.8555     421.7309
   1416.85669     700.3539     422.3179   1416.85669     700.3539     422.3179
   1416.84143     700.6735     422.3041   1416.84143     700.6735     422.3041
   1416.82617     702.7369     423.3633   1416.82617     702.7369     423.3633
   1416.81091     701.8791     423.5963   1416.81091     701.8791     423.5963
   1416.79565     703.4687     423.8419   1416.79565     703.4687     423.8419
   1416.78040     704.2580     424.0403   1416.78040     704.2580     424.0403
   1416.76514     703.3140     424.7825   1416.76514     703.3140     424.7825
   1416.74988     703.7088     425.1202   1416.74988     703.7088     425.1202
   1416.73462     705.0724     425.2217   1416.73462     705.0724     425.2217
   1416.71936     705.2921     425.3355   1416.71936     705.2921     425.3355
   1416.70410     704.8748     425.9075   1416.70410     704.8748     425.9075
   1416.68884     706.3124     427.0568   1416.68884     706.3124     427.0568
   1416.67358     706.5301     426.3611   1416.67358     706.5301     426.3611
   1416.65833     705.1041     426.9873   1416.65833     705.1041     426.9873
   1416.64307     706.9613     427.3477   1416.64307     706.9613     427.3477
   1416.62781     706.5761     426.9949   1416.62781     706.5761     426.9949
   1416.61255     707.7883     427.3831   1416.61255     707.7883     427.3831
   1416.59729     708.1804     428.5122   1416.59729     708.1804     428.5122
   1416.58203     706.2905     427.2237   1416.58203     706.2905     427.2237
   1416.56677     707.6138     427.8658   1416.56677     707.6138     427.8658
   1416.55151     708.8104     428.7092   1416.55151     708.8104     428.7092
   1416.53625     707.1835     428.6294   1416.53625     707.1835     428.6294
   1416.52100     708.2642     428.3971   1416.52100     708.2642     428.3971
   1416.50574     707.1735     428.8008   1416.50574     707.1735     428.8008
   1416.49048     708.2109     428.6362   1416.49048     708.2109     428.6362
   1416.47522     707.2138     429.3826   1416.47522     707.2138     429.3826
   1416.45996     708.2127     429.0320   1416.45996     708.2127     429.0320
   1416.44470     708.6677     429.5732   1416.44470     708.6677     429.5732
   1416.42944     707.6728     429.1911   1416.42944     707.6728     429.1911
   1416.41418     708.7606     429.4788   1416.41418     708.7606     429.4788
   1416.39893     707.9565     429.0252   1416.39893     707.9565     429.0252
   1416.38367     708.6968     429.1949   1416.38367     708.6968     429.1949
   1416.36841     707.8159     429.9721   1416.36841     707.8159     429.9721
   1416.35315     707.0809     429.5492   1416.35315     707.0809     429.5492
   1416.33789     707.1750     429.4321   1416.33789     707.1750     429.4321
   1416.32263     707.0933     429.4226   1416.32263     707.0933     429.4226
   1416.30737     706.7808     428.9710   1416.30737     706.7808     428.9710
   1416.29211     707.3481     429.5785   1416.29211     707.3481     429.5785
   1416.27686     706.7068     429.6493   1416.27686     706.7068     429.6493
   1416.26160     705.9660     429.7149   1416.26160     705.9660     429.7149
   1416.24634     706.5907     429.3755   1416.24634     706.5907     429.3755
   1416.23108     703.9545     430.1075   1416.23108     703.9545     430.1075
   1416.21582     705.4112     429.4445   1416.21582     705.4112     429.4445
   1416.20056     705.1476     429.0046   1416.20056     705.1476     429.0046
   1416.18530     705.3788     429.4274   1416.18530     705.3788     429.4274
   1416.17004     703.2877     428.2890   1416.17004     703.2877     428.2890
   1416.15479     704.4075     429.3398   1416.15479     704.4075     429.3398
   1416.13953     704.1970     429.2814   1416.13953     704.1970     429.2814
   1416.12427     702.6512     429.2192   1416.12427     702.6512     429.2192
   1416.10901     702.3751     428.4706   1416.10901     702.3751     428.4706
   1416.09375     700.9280     428.5393   1416.09375     700.9280     428.5393
   1416.07849     701.6848     428.6174   1416.07849     701.6848     428.6174
   1416.06323     701.2183     428.5800   1416.06323     701.2183     428.5800
   1416.04797     701.2192     428.2130   1416.04797     701.2192     428.2130
   1416.03271     699.6631     428.0355   1416.03271     699.6631     428.0355
   1416.01746     699.0505     427.5692   1416.01746     699.0505     427.5692
   1416.00220     699.2537     428.3853   1416.00220     699.2537     428.3853
   1415.98694     698.7302     427.6017   1415.98694     698.7302     427.6017
   1415.97168     697.2465     427.6506   1415.97168     697.2465     427.6506
   1415.95642     697.9957     427.5753   1415.95642     697.9957     427.5753
   1415.94116     697.0297     427.2819   1415.94116     697.0297     427.2819
   1415.92590     696.0005     427.0551   1415.92590     696.0005     427.0551
   1415.91064     695.8511     426.8987   1415.91064     695.8511     426.8987
   1415.89539     693.8322     426.4949   1415.89539     693.8322     426.4949
   1415.88013     694.0754     427.2260   1415.88013     694.0754     427.2260
   1415.86487     693.2429     426.5568   1415.86487     693.2429     426.5568
   1415.84961     691.0515     425.8661   1415.84961     691.0515     425.8661
   1415.83435     692.2831     426.3746   1415.83435     692.2831     426.3746
   1415.81909     691.1893     425.6088   1415.81909     691.1893     425.6088
   1415.80383     691.8763     425.8233   1415.80383     691.8763     425.8233
   1415.78857     690.6270     425.9595   1415.78857     690.6270     425.9595
   1415.77332     689.8134     425.0233   1415.77332     689.8134     425.0233
   1415.75806     688.5110     425.7183   1415.75806     688.5110     425.7183
   1415.74280     687.8015     424.4980   1415.74280     687.8015     424.4980
   1415.72754     686.9526     424.9066   1415.72754     686.9526     424.9066
   1415.71228     687.3823     424.4562   1415.71228     687.3823     424.4562
   1415.69702     685.9193     424.7618   1415.69702     685.9193     424.7618
   1415.68176     685.2446     423.5847   1415.68176     685.2446     423.5847
   1415.66650     685.0276     423.5706   1415.66650     685.0276     423.5706
   1415.65125     683.6746     423.4232   1415.65125     683.6746     423.4232
   1415.63599     681.8245     422.7142   1415.63599     681.8245     422.7142
   1415.62073     682.0618     423.3793   1415.62073     682.0618     423.3793
   1415.60547     680.9097     422.5575   1415.60547     680.9097     422.5575
   1415.59021     679.4040     422.6227   1415.59021     679.4040     422.6227
   1415.57495     678.6169     422.7498   1415.57495     678.6169     422.7498
   1415.55969     678.2027     422.1502   1415.55969     678.2027     422.1502
   1415.54443     676.7298     421.7675   1415.54443     676.7298     421.7675
   1415.52917     677.0461     422.3769   1415.52917     677.0461     422.3769
   1415.51392     674.1203     421.4741   1415.51392     674.1203     421.4741
   1415.49866     673.2993     421.1362   1415.49866     673.2993     421.1362
   1415.48340     673.2738     420.9320   1415.48340     673.2738     420.9320
   1415.46814     671.7795     420.3070   1415.46814     671.7795     420.3070
   1415.45288     672.0995     420.4692   1415.45288     672.0995     420.4692
   1415.43762     668.9600     419.8668   1415.43762     668.9600     419.8668
   1415.42236     669.6617     420.1244   1415.42236     669.6617     420.1244
   1415.40710     667.6132     419.3442   1415.40710     667.6132     419.3442
   1415.39185     666.2247     418.3370   1415.39185     666.2247     418.3370
   1415.37659     665.7202     418.6201   1415.37659     665.7202     418.6201
   1415.36133     665.4425     418.1719   1415.36133     665.4425     418.1719
   1415.34607     663.5789     418.3126   1415.34607     663.5789     418.3126
   1415.33081     662.4445     417.7953   1415.33081     662.4445     417.7953
   1415.31555     661.8210     417.1623   1415.31555     661.8210     417.1623
   1415.30029     661.1689     417.4189   1415.30029     661.1689     417.4189
   1415.28503     658.7301     416.7685   1415.28503     658.7301     416.7685
   1415.26978     658.2063     415.6551   1415.26978     658.2063     415.6551
   1415.25452     657.4560     415.5834   1415.25452     657.4560     415.5834
   1415.23926     655.3396     414.8380   1415.23926     655.3396     414.8380
   1415.22400     654.7900     414.1973   1415.22400     654.7900     414.1973
   1415.20874     652.4737     414.4345   1415.20874     652.4737     414.4345
   1415.19348     651.4329     414.2090   1415.19348     651.4329     414.2090
   1415.17822     651.0857     414.1287   1415.17822     651.0857     414.1287
   1415.16296     649.5103     413.2954   1415.16296     649.5103     413.2954
   1415.14771     648.3480     412.6580   1415.14771     648.3480     412.6580
   1415.13245     645.9501     412.6953   1415.13245     645.9501     412.6953
   1415.11719     646.3632     412.3281   1415.11719     646.3632     412.3281
   1415.10193     643.9890     411.8300   1415.10193     643.9890     411.8300
   1415.08667     642.9823     410.9974   1415.08667     642.9823     410.9974
   1415.07141     641.5503     411.1259   1415.07141     641.5503     411.1259
   1415.05615     639.3387     410.3755   1415.05615     639.3387     410.3755
   1415.04089     639.3687     411.1211   1415.04089     639.3687     411.1211
   1415.02563     637.1220     409.3847   1415.02563     637.1220     409.3847
   1415.01038     635.2083     408.6721   1415.01038     635.2083     408.6721
   1414.99512     633.1959     408.2289   1414.99512     633.1959     408.2289
   1414.97986     632.2936     407.8033   1414.97986     632.2936     407.8033
   1414.96460     630.2225     407.4020   1414.96460     630.2225     407.4020
   1414.94934     630.0096     406.4339   1414.94934     630.0096     406.4339
   1414.93408     627.9835     406.0949   1414.93408     627.9835     406.0949
   1414.91882     625.9350     405.6196   1414.91882     625.9350     405.6196
   1414.90356     624.0918     405.3658   1414.90356     624.0918     405.3658
   1414.88831     623.2639     404.4627   1414.88831     623.2639     404.4627
   1414.87305     621.8585     403.6079   1414.87305     621.8585     403.6079
   1414.85779     619.9538     403.9843   1414.85779     619.9538     403.9843
   1414.84253     617.1031     402.7805   1414.84253     617.1031     402.7805
   1414.82727     615.8281     402.6932   1414.82727     615.8281     402.6932
   1414.81201     613.9529     401.2796   1414.81201     613.9529     401.2796
   1414.79675     612.1014     401.1253   1414.79675     612.1014     401.1253
   1414.78149     611.1597     400.2450   1414.78149     611.1597     400.2450
   1414.76624     608.6547     398.7867   1414.76624     608.6547     398.7867
   1414.75098     608.0298     399.0183   1414.75098     608.0298     399.0183
   1414.73572     605.3002     398.3107   1414.73572     605.3002     398.3107
   1414.72046     603.8140     397.5846   1414.72046     603.8140     397.5846
   1414.70520     602.0242     396.8091   1414.70520     602.0242     396.8091
   1414.68994     600.8972     396.4188   1414.68994     600.8972     396.4188
   1414.67468     598.9821     396.0105   1414.67468     598.9821     396.0105
   1414.65942     596.3856     394.3080   1414.65942     596.3856     394.3080
   1414.64417     594.6971     394.0248   1414.64417     594.6971     394.0248
   1414.62891     592.7913     393.8648   1414.62891     592.7913     393.8648
   1414.61365     591.5728     392.7692   1414.61365     591.5728     392.7692
   1414.59839     589.1758     391.2419   1414.59839     589.1758     391.2419
   1414.58313     586.3904     391.2684   1414.58313     586.3904     391.2684
   1414.56787     584.9609     390.1289   1414.56787     584.9609     390.1289
   1414.55261     582.5250     389.8412   1414.55261     582.5250     389.8412
   1414.53735     580.2836     388.7647   1414.53735     580.2836     388.7647
   1414.52209     578.1657     388.0091   1414.52209     578.1657     388.0091
   1414.50684     577.2194     386.6945   1414.50684     577.2194     386.6945
   1414.49158     574.5507     386.6041   1414.49158     574.5507     386.6041
   1414.47632     572.8578     386.0356   1414.47632     572.8578     386.0356
   1414.46106     570.3169     384.6577   1414.46106     570.3169     384.6577
   1414.44580     567.6550     383.4789   1414.44580     567.6550     383.4789
   1414.43054     565.3914     382.8485   1414.43054     565.3914     382.8485
   1414.41528     562.9484     382.1492   1414.41528     562.9484     382.1492
   1414.40002     561.5577     380.7521   1414.40002     561.5577     380.7521
   1414.38477     559.8450     380.4630   1414.38477     559.8450     380.4630
   1414.36951     556.3974     378.9301   1414.36951     556.3974     378.9301
   1414.35425     554.8202     378.1713   1414.35425     554.8202     378.1713
   1414.33899     553.2014     377.5916   1414.33899     553.2014     377.5916
   1414.32373     550.5148     376.5250   1414.32373     550.5148     376.5250
   1414.30847     548.9060     374.3760   1414.30847     548.9060     374.3760
   1414.29321     545.2642     374.7523   1414.29321     545.2642     374.7523
   1414.27795     543.7356     372.8558   1414.27795     543.7356     372.8558
   1414.26270     541.4090     372.2621   1414.26270     541.4090     372.2621
   1414.24744     539.2735     371.5409   1414.24744     539.2735     371.5409
   1414.23218     536.6731     369.8999   1414.23218     536.6731     369.8999
   1414.21692     534.3185     369.0058   1414.21692     534.3185     369.0058
   1414.20166     531.7503     367.9323   1414.20166     531.7503     367.9323
   1414.18640     529.2104     367.5345   1414.18640     529.2104     367.5345
   1414.17114     526.9741     366.6448   1414.17114     526.9741     366.6448
   1414.15588     524.0308     364.6723   1414.15588     524.0308     364.6723
   1414.14062     521.3583     363.7393   1414.14062     521.3583     363.7393
   1414.12537     520.2637     362.8910   1414.12537     520.2637     362.8910
   1414.11011     516.0317     361.4240   1414.11011     516.0317     361.4240
   1414.09485     514.4155     360.3710   1414.09485     514.4155     360.3710
   1414.07959     512.2699     359.7705   1414.07959     512.2699     359.7705
   1414.06433     509.6593     358.3350   1414.06433     509.6593     358.3350
   1414.04907     507.2869     357.0733   1414.04907     507.2869     357.0733
   1414.03381     505.4569     356.3432   1414.03381     505.4569     356.3432
   1414.01855     502.0861     354.9009   1414.01855     502.0861     354.9009
   1414.00330     523.2640     363.1040   1414.00330     523.2640     363.1040
   1413.98804     498.9043     353.8303   1413.98804     498.9043     353.8303
   1413.97278     494.8290     351.6927   1413.97278     494.8290     351.6927
   1413.95752     492.8833     350.3374   1413.95752     492.8833     350.3374
   1413.94226     489.4458     348.5374   1413.94226     489.4458     348.5374
   1413.92700     487.7169     347.8477   1413.92700     487.7169     347.8477
   1413.91174     483.2881     346.0321   1413.91174     483.2881     346.0321
   1413.89648     481.4431     345.7636   1413.89648     481.4431     345.7636
   1413.88123     478.5665     343.8017   1413.88123     478.5665     343.8017
   1413.86597     475.2853     342.4485   1413.86597     475.2853     342.4485
   1413.85071     473.5046     341.6403   1413.85071     473.5046     341.6403
   1413.83545     471.6028     339.9454   1413.83545     471.6028     339.9454
   1413.82019     468.2682     338.6119   1413.82019     468.2682     338.6119
   1413.80493     465.3919     337.6768   1413.80493     465.3919     337.6768
   1413.78967     462.8960     336.0230   1413.78967     462.8960     336.0230
   1413.77441     461.1260     334.6274   1413.77441     461.1260     334.6274
   1413.75916     457.8341     333.7291   1413.75916     457.8341     333.7291
   1413.74390     454.9064     332.6757   1413.74390     454.9064     332.6757
   1413.72864     452.5404     330.9223   1413.72864     452.5404     330.9223
   1413.71338     450.0580     330.2221   1413.71338     450.0580     330.2221
   1413.69812     447.4997     328.2974   1413.69812     447.4997     328.2974
   1413.68286     444.7213     326.7103   1413.68286     444.7213     326.7103
   1413.66760     442.6031     325.9211   1413.66760     442.6031     325.9211
   1413.65234     439.7343     324.7992   1413.65234     439.7343     324.7992
   1413.63708     437.0885     323.1903   1413.63708     437.0885     323.1903
   1413.62183     434.4072     321.7537   1413.62183     434.4072     321.7537
   1413.60657     432.4807     320.0740   1413.60657     432.4807     320.0740
   1413.59131     429.4078     319.4521   1413.59131     429.4078     319.4521
   1413.57605     427.0610     317.9822   1413.57605     427.0610     317.9822
   1413.56079     423.9013     316.1176   1413.56079     423.9013     316.1176
   1413.54553     421.7881     315.0813   1413.54553     421.7881     315.0813
   1413.53027     419.0180     313.8244   1413.53027     419.0180     313.8244
   1413.51501     416.2534     312.0570   1413.51501     416.2534     312.0570
   1413.49976     413.9500     310.9807   1413.49976     413.9500     310.9807
   1413.48450     411.9617     310.0735   1413.48450     411.9617     310.0735
   1413.46924     408.4367     308.3716   1413.46924     408.4367     308.3716
   1413.45398     406.4971     307.2617   1413.45398     406.4971     307.2617
   1413.43872     403.9846     305.6461   1413.43872     403.9846     305.6461
   1413.42346     401.5477     304.9234   1413.42346     401.5477     304.9234
   1413.40820     398.7655     302.6762   1413.40820     398.7655     302.6762
   1413.39294     396.5175     301.4091   1413.39294     396.5175     301.4091
   1413.37769     394.3168     300.1688   1413.37769     394.3168     300.1688
   1413.36243     392.3551     299.3051   1413.36243     392.3551     299.3051
   1413.34717     389.8980     297.2943   1413.34717     389.8980     297.2943
   1413.33191     387.4430     296.4362   1413.33191     387.4430     296.4362
   1413.31665     384.9558     295.0408   1413.31665     384.9558     295.0408
   1413.30139     382.3721     293.0827   1413.30139     382.3721     293.0827
   1413.28613     380.5293     292.2209   1413.28613     380.5293     292.2209
   1413.27087     378.1726     291.3018   1413.27087     378.1726     291.3018
   1413.25562     375.6934     289.8061   1413.25562     375.6934     289.8061
   1413.24036     373.5058     288.9576   1413.24036     373.5058     288.9576
   1413.22510     371.0501     287.6937   1413.22510     371.0501     287.6937
   1413.20984     368.5971     285.9268   1413.20984     368.5971     285.9268
   1413.19458     366.5730     284.7797   1413.19458     366.5730     284.7797
   1413.17932     364.6061     283.4323   1413.17932     364.6061     283.4323
   1413.16406     362.5785     281.9742   1413.16406     362.5785     281.9742
   1413.14880     360.5946     280.9508   1413.14880     360.5946     280.9508
   1413.13354     358.2021     279.6689   1413.13354     358.2021     279.6689
   1413.11829     356.0569     278.7062   1413.11829     356.0569     278.7062
   1413.10303     354.1682     277.4295   1413.10303     354.1682     277.4295
   1413.08777     351.9905     276.3161   1413.08777     351.9905     276.3161
   1413.07251     350.7289     275.0123   1413.07251     350.7289     275.0123
   1413.05725     348.4944     273.5709   1413.05725     348.4944     273.5709
   1413.04199     345.9260     273.0638   1413.04199     345.9260     273.0638
   1413.02673     344.7198     271.4423   1413.02673     344.7198     271.4423
   1413.01147     342.6713     270.2787   1413.01147     342.6713     270.2787
   1412.99622     341.0585     269.3697   1412.99622     341.0585     269.3697
   1412.98096     339.1310     268.4343   1412.98096     339.1310     268.4343
   1412.96570     337.6860     267.3672   1412.96570     337.6860     267.3672
   1412.95044     336.4305     265.9930   1412.95044     336.4305     265.9930
   1412.93518     334.2870     265.3019   1412.93518     334.2870     265.3019
   1412.91992     332.2722     263.9448   1412.91992     332.2722     263.9448
   1412.90466     331.4967     263.4834   1412.90466     331.4967     263.4834
   1412.88940     329.2117     262.2535   1412.88940     329.2117     262.2535
   1412.87415     328.0717     261.6807   1412.87415     328.0717     261.6807
   1412.85889     327.1331     260.4293   1412.85889     327.1331     260.4293
   1412.84363     325.4819     259.7400   1412.84363     325.4819     259.7400
   1412.82837     324.1439     258.6573   1412.82837     324.1439     258.6573
   1412.81311     322.1984     258.0293   1412.81311     322.1984     258.0293
   1412.79785     321.3392     256.8228   1412.79785     321.3392     256.8228
   1412.78259     319.9877     256.0855   1412.78259     319.9877     256.0855
   1412.76733     318.9664     255.2259   1412.76733     318.9664     255.2259
   1412.75208     317.2809     254.6460   1412.75208     317.2809     254.6460
   1412.73682     316.3361     253.5360   1412.73682     316.3361     253.5360
   1412.72156     315.5398     253.1424   1412.72156     315.5398     253.1424
   1412.70630     314.4302     252.4909   1412.70630     314.4302     252.4909
   1412.69104     313.2442     251.6965   1412.69104     313.2442     251.6965
   1412.67578     312.0285     250.7346   1412.67578     312.0285     250.7346
   1412.66052     310.9052     250.5364   1412.66052     310.9052     250.5364
   1412.64526     310.0987     249.9859   1412.64526     310.0987     249.9859
   1412.63000     309.1842     249.4380   1412.63000     309.1842     249.4380
   1412.61475     308.6814     249.2119   1412.61475     308.6814     249.2119
   1412.59949     307.5565     248.4591   1412.59949     307.5565     248.4591
   1412.58423     307.3193     247.9144   1412.58423     307.3193     247.9144
   1412.56897     306.7872     247.0955   1412.56897     306.7872     247.0955
   1412.55371     305.8583     246.6346   1412.55371     305.8583     246.6346
   1412.53845     305.5327     246.6000   1412.53845     305.5327     246.6000
   1412.52319     305.1243     245.7975   1412.52319     305.1243     245.7975
   1412.50793     304.8350     245.5831   1412.50793     304.8350     245.5831
   1412.49268     303.8290     245.2294   1412.49268     303.8290     245.2294
   1412.47742     303.9188     244.8047   1412.47742     303.9188     244.8047
   1412.46216     303.6071     244.7105   1412.46216     303.6071     244.7105
   1412.44690     302.8486     244.8223   1412.44690     302.8486     244.8223
   1412.43164     302.6488     244.6810   1412.43164     302.6488     244.6810
   1412.41638     302.6876     244.0979   1412.41638     302.6876     244.0979
   1412.40112     302.5225     244.1147   1412.40112     302.5225     244.1147
   1412.38586     302.2845     244.3082   1412.38586     302.2845     244.3082
   1412.37061     301.9340     244.4272   1412.37061     301.9340     244.4272
   1412.35535     301.9483     244.2877   1412.35535     301.9483     244.2877
   1412.34009     302.1665     244.0755   1412.34009     302.1665     244.0755
   1412.32483     302.3127     243.8955   1412.32483     302.3127     243.8955
   1412.30957     302.2968     244.2557   1412.30957     302.2968     244.2557
   1412.29431     302.2391     244.2866   1412.29431     302.2391     244.2866
   1412.27905     302.6522     244.1227   1412.27905     302.6522     244.1227
   1412.26379     303.1876     244.7887   1412.26379     303.1876     244.7887
   1412.24854     303.6227     244.8326   1412.24854     303.6227     244.8326
   1412.23328     303.6458     245.4645   1412.23328     303.6458     245.4645
   1412.21802     304.0497     245.3370   1412.21802     304.0497     245.3370
   1412.20276     304.5676     245.8238   1412.20276     304.5676     245.8238