#     FILENAME=!Skynet_57533_lach-hhg-246-2_20811_21215.cyb.fits
#     BASENAME=Skynet_57533_lach-hhg-246-2_20811_21215
#     SRC_NAME=lach-hhg-246-2
#     OBSERVER=ccmadison16_9505
#     DATE_OBS=2016-05-25T19:44:40.810
#        OBSID=20811
#      SCANNUM=21215
#          MJD=57533.8237
#          UTC=71169
#     SCANTYPE=track
#     DATAMODE=HIRES
#     TUNEFREQ=1420.0000
# Actual_FREQ1=1420.0000
# Actual_FREQ2=1420.0000
#    LO1Tuning=6870.000
#     RFFILTER=1355_1435
#        OBSBW=-15.6250
#        NCHAN=1024 
#        FOCUS=37.0270
#           RA=07:57:34.49
#          DEC=-29:03:07.80
#      RA(hrs)=7.959600
#     DEC(deg)=-29.052200
#    AZIM(deg)=161.485
#    ELEV(deg)=19.926
#     IFattens=10.00, 9.00
#      WARNING=None
#    TCAL_XL1=7.9635
#    TCAL_YR1=9.1340
#    TCAL_XL2=7.9635
#    TCAL_YR2=9.1340
#     TRX_XL1=11.7060
#     TRX_YR1=11.7060
#     TRX_XL2=11.7060
#     TRX_YR2=11.7060
#        TAVE=1.0000
#Freq1(MHz)          XL1          YR1  Freq2(MHz)          XL2          YR2 

   1427.81250     377.5484     244.7299   1427.81250     377.5484     244.7299
   1427.79724     378.3760     244.9120   1427.79724     378.3760     244.9120
   1427.78198     378.9963     246.0253   1427.78198     378.9963     246.0253
   1427.76672     380.3760     246.5565   1427.76672     380.3760     246.5565
   1427.75146     381.3482     246.9990   1427.75146     381.3482     246.9990
   1427.73621     381.7603     247.5131   1427.73621     381.7603     247.5131
   1427.72095     382.9148     248.0671   1427.72095     382.9148     248.0671
   1427.70569     383.7365     249.0764   1427.70569     383.7365     249.0764
   1427.69043     385.5589     249.8171   1427.69043     385.5589     249.8171
   1427.67517     386.0193     250.7576   1427.67517     386.0193     250.7576
   1427.65991     387.5090     251.7145   1427.65991     387.5090     251.7145
   1427.64465     388.7751     252.3972   1427.64465     388.7751     252.3972
   1427.62939     390.5280     253.5822   1427.62939     390.5280     253.5822
   1427.61414     391.2361     254.6534   1427.61414     391.2361     254.6534
   1427.59888     393.9435     255.3184   1427.59888     393.9435     255.3184
   1427.58362     394.4844     256.7499   1427.58362     394.4844     256.7499
   1427.56836     396.2398     258.0235   1427.56836     396.2398     258.0235
   1427.55310     397.7614     259.1095   1427.55310     397.7614     259.1095
   1427.53784     398.9389     260.2404   1427.53784     398.9389     260.2404
   1427.52258     400.6091     261.7805   1427.52258     400.6091     261.7805
   1427.50732     402.4506     262.5201   1427.50732     402.4506     262.5201
   1427.49207     404.1542     263.9525   1427.49207     404.1542     263.9525
   1427.47681     406.6128     264.9347   1427.47681     406.6128     264.9347
   1427.46155     408.1416     267.2831   1427.46155     408.1416     267.2831
   1427.44629     409.6496     268.5302   1427.44629     409.6496     268.5302
   1427.43103     411.9517     269.8828   1427.43103     411.9517     269.8828
   1427.41577     414.2587     271.6879   1427.41577     414.2587     271.6879
   1427.40051     416.5462     272.8610   1427.40051     416.5462     272.8610
   1427.38525     417.3486     274.4229   1427.38525     417.3486     274.4229
   1427.37000     419.8947     276.1487   1427.37000     419.8947     276.1487
   1427.35474     421.6995     277.9621   1427.35474     421.6995     277.9621
   1427.33948     424.2302     279.8329   1427.33948     424.2302     279.8329
   1427.32422     426.3257     281.5755   1427.32422     426.3257     281.5755
   1427.30896     428.8335     283.0476   1427.30896     428.8335     283.0476
   1427.29370     430.7601     285.0359   1427.29370     430.7601     285.0359
   1427.27844     433.2108     287.0902   1427.27844     433.2108     287.0902
   1427.26318     436.0921     288.7080   1427.26318     436.0921     288.7080
   1427.24792     438.1255     290.9937   1427.24792     438.1255     290.9937
   1427.23267     439.7280     293.2610   1427.23267     439.7280     293.2610
   1427.21741     442.7530     295.1699   1427.21741     442.7530     295.1699
   1427.20215     445.2421     296.9454   1427.20215     445.2421     296.9454
   1427.18689     447.5851     299.0145   1427.18689     447.5851     299.0145
   1427.17163     449.8337     301.0771   1427.17163     449.8337     301.0771
   1427.15637     452.6478     303.8022   1427.15637     452.6478     303.8022
   1427.14111     455.3731     305.6216   1427.14111     455.3731     305.6216
   1427.12585     458.3274     307.7605   1427.12585     458.3274     307.7605
   1427.11060     461.0847     309.9193   1427.11060     461.0847     309.9193
   1427.09534     463.3579     312.5273   1427.09534     463.3579     312.5273
   1427.08008     466.5286     314.3882   1427.08008     466.5286     314.3882
   1427.06482     469.1472     316.9001   1427.06482     469.1472     316.9001
   1427.04956     472.2137     319.0247   1427.04956     472.2137     319.0247
   1427.03430     474.1821     321.3230   1427.03430     474.1821     321.3230
   1427.01904     476.5513     323.4558   1427.01904     476.5513     323.4558
   1427.00378     479.7289     326.3302   1427.00378     479.7289     326.3302
   1426.98853     482.9069     328.7929   1426.98853     482.9069     328.7929
   1426.97327     485.9930     331.0203   1426.97327     485.9930     331.0203
   1426.95801     488.5618     333.6463   1426.95801     488.5618     333.6463
   1426.94275     491.5171     335.3527   1426.94275     491.5171     335.3527
   1426.92749     494.0673     338.4326   1426.92749     494.0673     338.4326
   1426.91223     496.6925     341.0142   1426.91223     496.6925     341.0142
   1426.89697     500.1528     343.1403   1426.89697     500.1528     343.1403
   1426.88171     503.0917     345.7680   1426.88171     503.0917     345.7680
   1426.86646     505.5298     348.6312   1426.86646     505.5298     348.6312
   1426.85120     509.1827     350.5109   1426.85120     509.1827     350.5109
   1426.83594     511.8685     353.1404   1426.83594     511.8685     353.1404
   1426.82068     514.8020     355.9918   1426.82068     514.8020     355.9918
   1426.80542     518.0190     358.5015   1426.80542     518.0190     358.5015
   1426.79016     520.4144     361.1121   1426.79016     520.4144     361.1121
   1426.77490     523.5862     363.9034   1426.77490     523.5862     363.9034
   1426.75964     526.6642     366.0150   1426.75964     526.6642     366.0150
   1426.74438     529.5890     369.1852   1426.74438     529.5890     369.1852
   1426.72913     532.9993     371.1464   1426.72913     532.9993     371.1464
   1426.71387     535.4594     374.2913   1426.71387     535.4594     374.2913
   1426.69861     539.2598     377.0444   1426.69861     539.2598     377.0444
   1426.68335     541.9152     379.8553   1426.68335     541.9152     379.8553
   1426.66809     544.4684     382.1188   1426.66809     544.4684     382.1188
   1426.65283     547.9683     385.0537   1426.65283     547.9683     385.0537
   1426.63757     550.6801     387.0661   1426.63757     550.6801     387.0661
   1426.62231     557.3467     391.5174   1426.62231     557.3467     391.5174
   1426.60706     559.8606     394.1374   1426.60706     559.8606     394.1374
   1426.59180     560.2043     395.8327   1426.59180     560.2043     395.8327
   1426.57654     563.6507     397.5446   1426.57654     563.6507     397.5446
   1426.56128     565.9472     399.6730   1426.56128     565.9472     399.6730
   1426.54602     569.5598     402.1840   1426.54602     569.5598     402.1840
   1426.53076     572.4189     404.7484   1426.53076     572.4189     404.7484
   1426.51550     575.0331     407.2257   1426.51550     575.0331     407.2257
   1426.50024     578.4456     409.3582   1426.50024     578.4456     409.3582
   1426.48499     580.4515     411.9330   1426.48499     580.4515     411.9330
   1426.46973     584.2484     415.0346   1426.46973     584.2484     415.0346
   1426.45447     586.7113     417.0888   1426.45447     586.7113     417.0888
   1426.43921     589.7427     419.0326   1426.43921     589.7427     419.0326
   1426.42395     593.1068     422.6477   1426.42395     593.1068     422.6477
   1426.40869     595.6514     424.1985   1426.40869     595.6514     424.1985
   1426.39343     598.4852     426.2151   1426.39343     598.4852     426.2151
   1426.37817     601.7962     429.9247   1426.37817     601.7962     429.9247
   1426.36292     603.6832     431.6654   1426.36292     603.6832     431.6654
   1426.34766     606.8874     433.1161   1426.34766     606.8874     433.1161
   1426.33240     610.0593     435.6926   1426.33240     610.0593     435.6926
   1426.31714     613.0659     438.4665   1426.31714     613.0659     438.4665
   1426.30188     615.7788     441.5402   1426.30188     615.7788     441.5402
   1426.28662     617.3700     442.1320   1426.28662     617.3700     442.1320
   1426.27136     621.0666     445.6631   1426.27136     621.0666     445.6631
   1426.25610     624.1553     447.6179   1426.25610     624.1553     447.6179
   1426.24084     625.7350     449.7818   1426.24084     625.7350     449.7818
   1426.22559     628.4068     451.5081   1426.22559     628.4068     451.5081
   1426.21033     630.7017     454.2938   1426.21033     630.7017     454.2938
   1426.19507     634.4464     455.3378   1426.19507     634.4464     455.3378
   1426.17981     635.5308     457.4126   1426.17981     635.5308     457.4126
   1426.16455     639.6872     460.4250   1426.16455     639.6872     460.4250
   1426.14929     642.2595     462.4450   1426.14929     642.2595     462.4450
   1426.13403     644.8157     464.6315   1426.13403     644.8157     464.6315
   1426.11877     647.7218     466.4755   1426.11877     647.7218     466.4755
   1426.10352     649.4905     467.8687   1426.10352     649.4905     467.8687
   1426.08826     651.5859     469.7683   1426.08826     651.5859     469.7683
   1426.07300     654.0919     472.1420   1426.07300     654.0919     472.1420
   1426.05774     656.6532     473.3553   1426.05774     656.6532     473.3553
   1426.04248     658.0676     475.2467   1426.04248     658.0676     475.2467
   1426.02722     662.3160     477.4261   1426.02722     662.3160     477.4261
   1426.01196     665.2986     477.9398   1426.01196     665.2986     477.9398
   1425.99670     666.2159     480.5397   1425.99670     666.2159     480.5397
   1425.98145     667.7866     482.4938   1425.98145     667.7866     482.4938
   1425.96619     669.8757     483.5007   1425.96619     669.8757     483.5007
   1425.95093     673.0459     485.9520   1425.95093     673.0459     485.9520
   1425.93567     674.6980     487.3270   1425.93567     674.6980     487.3270
   1425.92041     677.4481     488.7064   1425.92041     677.4481     488.7064
   1425.90515     679.5238     489.7284   1425.90515     679.5238     489.7284
   1425.88989     682.2321     491.9344   1425.88989     682.2321     491.9344
   1425.87463     683.5748     494.4089   1425.87463     683.5748     494.4089
   1425.85938     686.2458     494.3554   1425.85938     686.2458     494.3554
   1425.84412     687.7621     496.1575   1425.84412     687.7621     496.1575
   1425.82886     689.6246     496.9588   1425.82886     689.6246     496.9588
   1425.81360     691.4125     498.1436   1425.81360     691.4125     498.1436
   1425.79834     693.6716     501.0158   1425.79834     693.6716     501.0158
   1425.78308     694.4285     501.4974   1425.78308     694.4285     501.4974
   1425.76782     696.7715     502.3071   1425.76782     696.7715     502.3071
   1425.75256     700.1216     504.4270   1425.75256     700.1216     504.4270
   1425.73730     700.9526     505.3734   1425.73730     700.9526     505.3734
   1425.72205     701.9164     506.8684   1425.72205     701.9164     506.8684
   1425.70679     703.7706     508.4185   1425.70679     703.7706     508.4185
   1425.69153     707.1450     509.8947   1425.69153     707.1450     509.8947
   1425.67627     708.8189     510.4132   1425.67627     708.8189     510.4132
   1425.66101     709.2141     511.0236   1425.66101     709.2141     511.0236
   1425.64575     711.5189     511.7880   1425.64575     711.5189     511.7880
   1425.63049     713.0943     513.7781   1425.63049     713.0943     513.7781
   1425.61523     713.4047     515.2340   1425.61523     713.4047     515.2340
   1425.59998     715.0414     516.1581   1425.59998     715.0414     516.1581
   1425.58472     717.1344     517.2628   1425.58472     717.1344     517.2628
   1425.56946     719.6590     518.7972   1425.56946     719.6590     518.7972
   1425.55420     719.9173     519.1927   1425.55420     719.9173     519.1927
   1425.53894     722.6126     520.2892   1425.53894     722.6126     520.2892
   1425.52368     723.0004     520.8174   1425.52368     723.0004     520.8174
   1425.50842     723.6369     522.1080   1425.50842     723.6369     522.1080
   1425.49316     726.8916     522.6370   1425.49316     726.8916     522.6370
   1425.47791     727.3306     523.4659   1425.47791     727.3306     523.4659
   1425.46265     729.0061     524.5969   1425.46265     729.0061     524.5969
   1425.44739     730.2957     524.8047   1425.44739     730.2957     524.8047
   1425.43213     731.0794     526.6776   1425.43213     731.0794     526.6776
   1425.41687     732.1245     527.7708   1425.41687     732.1245     527.7708
   1425.40161     731.4824     527.2373   1425.40161     731.4824     527.2373
   1425.38635     733.7002     528.3674   1425.38635     733.7002     528.3674
   1425.37109     734.3326     529.4453   1425.37109     734.3326     529.4453
   1425.35583     735.5284     529.8575   1425.35583     735.5284     529.8575
   1425.34058     737.0095     530.9663   1425.34058     737.0095     530.9663
   1425.32532     739.1653     530.9394   1425.32532     739.1653     530.9394
   1425.31006     739.2056     531.9159   1425.31006     739.2056     531.9159
   1425.29480     740.5921     532.0460   1425.29480     740.5921     532.0460
   1425.27954     741.7598     533.7660   1425.27954     741.7598     533.7660
   1425.26428     742.5366     533.5837   1425.26428     742.5366     533.5837
   1425.24902     742.5403     534.5607   1425.24902     742.5403     534.5607
   1425.23376     742.3339     535.5095   1425.23376     742.3339     535.5095
   1425.21851     743.5651     535.6489   1425.21851     743.5651     535.6489
   1425.20325     745.6137     535.9279   1425.20325     745.6137     535.9279
   1425.18799     745.5580     536.7366   1425.18799     745.5580     536.7366
   1425.17273     746.5400     537.0346   1425.17273     746.5400     537.0346
   1425.15747     747.0468     538.3658   1425.15747     747.0468     538.3658
   1425.14221     748.3156     538.2902   1425.14221     748.3156     538.2902
   1425.12695     747.5521     539.0916   1425.12695     747.5521     539.0916
   1425.11169     748.8276     539.8131   1425.11169     748.8276     539.8131
   1425.09644     749.2932     541.0801   1425.09644     749.2932     541.0801
   1425.08118     749.7025     539.7720   1425.08118     749.7025     539.7720
   1425.06592     750.5610     541.2651   1425.06592     750.5610     541.2651
   1425.05066     750.5203     541.1479   1425.05066     750.5203     541.1479
   1425.03540     750.8710     541.5729   1425.03540     750.8710     541.5729
   1425.02014     753.1287     542.3653   1425.02014     753.1287     542.3653
   1425.00488     753.9194     541.8549   1425.00488     753.9194     541.8549
   1424.98962     753.2794     543.3842   1424.98962     753.2794     543.3842
   1424.97437     752.8560     543.9484   1424.97437     752.8560     543.9484
   1424.95911     751.9081     543.8075   1424.95911     751.9081     543.8075
   1424.94385     754.0648     543.6915   1424.94385     754.0648     543.6915
   1424.92859     753.6024     544.8934   1424.92859     753.6024     544.8934
   1424.91333     752.6721     545.4440   1424.91333     752.6721     545.4440
   1424.89807     754.8197     546.3419   1424.89807     754.8197     546.3419
   1424.88281     754.1233     545.8074   1424.88281     754.1233     545.8074
   1424.86755     756.3384     546.0245   1424.86755     756.3384     546.0245
   1424.85229     755.1838     546.2302   1424.85229     755.1838     546.2302
   1424.83704     756.3461     546.9229   1424.83704     756.3461     546.9229
   1424.82178     755.2463     546.5908   1424.82178     755.2463     546.5908
   1424.80652     755.5483     547.6229   1424.80652     755.5483     547.6229
   1424.79126     757.0017     547.6490   1424.79126     757.0017     547.6490
   1424.77600     756.1807     548.4398   1424.77600     756.1807     548.4398
   1424.76074     754.6885     548.6519   1424.76074     754.6885     548.6519
   1424.74548     756.4114     548.1033   1424.74548     756.4114     548.1033
   1424.73022     756.3116     548.3767   1424.73022     756.3116     548.3767
   1424.71497     755.5081     548.4529   1424.71497     755.5081     548.4529
   1424.69971     756.2018     548.7574   1424.69971     756.2018     548.7574
   1424.68445     756.8672     548.8516   1424.68445     756.8672     548.8516
   1424.66919     756.5196     549.9915   1424.66919     756.5196     549.9915
   1424.65393     755.9581     549.6306   1424.65393     755.9581     549.6306
   1424.63867     756.2537     549.5229   1424.63867     756.2537     549.5229
   1424.62341     756.0507     549.8995   1424.62341     756.0507     549.8995
   1424.60815     757.1744     550.7133   1424.60815     757.1744     550.7133
   1424.59290     756.4523     550.9690   1424.59290     756.4523     550.9690
   1424.57764     756.4364     551.4628   1424.57764     756.4364     551.4628
   1424.56238     757.5020     551.5443   1424.56238     757.5020     551.5443
   1424.54712     756.6122     550.9167   1424.54712     756.6122     550.9167
   1424.53186     755.5529     551.9384   1424.53186     755.5529     551.9384
   1424.51660     755.4872     552.3732   1424.51660     755.4872     552.3732
   1424.50134     755.3812     552.4210   1424.50134     755.3812     552.4210
   1424.48608     755.5175     552.3355   1424.48608     755.5175     552.3355
   1424.47083     754.1244     551.8970   1424.47083     754.1244     551.8970
   1424.45557     754.7009     553.8837   1424.45557     754.7009     553.8837
   1424.44031     755.5624     553.0379   1424.44031     755.5624     553.0379
   1424.42505     754.1425     553.5058   1424.42505     754.1425     553.5058
   1424.40979     754.5201     553.5170   1424.40979     754.5201     553.5170
   1424.39453     754.7285     553.6183   1424.39453     754.7285     553.6183
   1424.37927     753.6386     554.5861   1424.37927     753.6386     554.5861
   1424.36401     753.1876     553.3278   1424.36401     753.1876     553.3278
   1424.34875     753.0535     553.6761   1424.34875     753.0535     553.6761
   1424.33350     752.4612     554.3206   1424.33350     752.4612     554.3206
   1424.31824     753.5179     554.2922   1424.31824     753.5179     554.2922
   1424.30298     753.1091     554.3484   1424.30298     753.1091     554.3484
   1424.28772     752.9193     554.3215   1424.28772     752.9193     554.3215
   1424.27246     751.7701     554.8416   1424.27246     751.7701     554.8416
   1424.25720     752.3748     555.4421   1424.25720     752.3748     555.4421
   1424.24194     752.2901     555.6287   1424.24194     752.2901     555.6287
   1424.22668     751.0825     555.3576   1424.22668     751.0825     555.3576
   1424.21143     750.9600     555.4786   1424.21143     750.9600     555.4786
   1424.19617     750.1055     555.8812   1424.19617     750.1055     555.8812
   1424.18091     750.7421     556.1026   1424.18091     750.7421     556.1026
   1424.16565     748.9966     556.5575   1424.16565     748.9966     556.5575
   1424.15039     750.7529     555.6967   1424.15039     750.7529     555.6967
   1424.13513     749.2395     555.8682   1424.13513     749.2395     555.8682
   1424.11987     750.6002     555.6524   1424.11987     750.6002     555.6524
   1424.10461     749.2148     556.4346   1424.10461     749.2148     556.4346
   1424.08936     748.2831     556.5424   1424.08936     748.2831     556.5424
   1424.07410     749.3922     556.5846   1424.07410     749.3922     556.5846
   1424.05884     749.1646     557.2250   1424.05884     749.1646     557.2250
   1424.04358     748.2253     557.4023   1424.04358     748.2253     557.4023
   1424.02832     746.6718     557.4556   1424.02832     746.6718     557.4556
   1424.01306     747.9891     557.2512   1424.01306     747.9891     557.2512
   1423.99780     746.6400     557.7720   1423.99780     746.6400     557.7720
   1423.98254     746.4885     556.9639   1423.98254     746.4885     556.9639
   1423.96729     746.5060     556.6462   1423.96729     746.5060     556.6462
   1423.95203     746.5433     557.3842   1423.95203     746.5433     557.3842
   1423.93677     745.1832     557.1281   1423.93677     745.1832     557.1281
   1423.92151     745.3902     557.4363   1423.92151     745.3902     557.4363
   1423.90625     744.8641     557.4108   1423.90625     744.8641     557.4108
   1423.89099     744.0236     557.8303   1423.89099     744.0236     557.8303
   1423.87573     743.7054     557.4468   1423.87573     743.7054     557.4468
   1423.86047     743.6170     557.5351   1423.86047     743.6170     557.5351
   1423.84521     743.2780     558.0175   1423.84521     743.2780     558.0175
   1423.82996     742.4992     557.9840   1423.82996     742.4992     557.9840
   1423.81470     743.7516     557.9512   1423.81470     743.7516     557.9512
   1423.79944     742.0952     557.8839   1423.79944     742.0952     557.8839
   1423.78418     741.8193     557.8026   1423.78418     741.8193     557.8026
   1423.76892     742.6178     557.7537   1423.76892     742.6178     557.7537
   1423.75366     741.8602     558.1282   1423.75366     741.8602     558.1282
   1423.73840     741.0980     557.5865   1423.73840     741.0980     557.5865
   1423.72314     740.9679     558.0623   1423.72314     740.9679     558.0623
   1423.70789     740.5414     557.8557   1423.70789     740.5414     557.8557
   1423.69263     740.4462     557.7780   1423.69263     740.4462     557.7780
   1423.67737     739.3627     558.5458   1423.67737     739.3627     558.5458
   1423.66211     740.6013     558.5240   1423.66211     740.6013     558.5240
   1423.64685     738.4909     557.8322   1423.64685     738.4909     557.8322
   1423.63159     739.4647     557.9005   1423.63159     739.4647     557.9005
   1423.61633     738.4182     558.4389   1423.61633     738.4182     558.4389
   1423.60107     737.3522     557.5992   1423.60107     737.3522     557.5992
   1423.58582     738.1796     557.1047   1423.58582     738.1796     557.1047
   1423.57056     736.5230     557.6580   1423.57056     736.5230     557.6580
   1423.55530     736.3931     558.5279   1423.55530     736.3931     558.5279
   1423.54004     737.8733     557.9403   1423.54004     737.8733     557.9403
   1423.52478     736.3300     556.6080   1423.52478     736.3300     556.6080
   1423.50952     735.7578     557.7751   1423.50952     735.7578     557.7751
   1423.49426     736.1312     557.4774   1423.49426     736.1312     557.4774
   1423.47900     734.9132     557.5878   1423.47900     734.9132     557.5878
   1423.46375     734.3140     556.6694   1423.46375     734.3140     556.6694
   1423.44849     734.4219     557.0540   1423.44849     734.4219     557.0540
   1423.43323     734.0665     556.6374   1423.43323     734.0665     556.6374
   1423.41797     733.8246     555.9297   1423.41797     733.8246     555.9297
   1423.40271     734.0121     556.0688   1423.40271     734.0121     556.0688
   1423.38745     733.5341     556.8273   1423.38745     733.5341     556.8273
   1423.37219     733.9203     556.1825   1423.37219     733.9203     556.1825
   1423.35693     733.1407     556.8363   1423.35693     733.1407     556.8363
   1423.34167     732.7588     555.3160   1423.34167     732.7588     555.3160
   1423.32642     731.9470     555.9921   1423.32642     731.9470     555.9921
   1423.31116     732.3113     554.7877   1423.31116     732.3113     554.7877
   1423.29590     732.1278     554.7732   1423.29590     732.1278     554.7732
   1423.28064     731.8851     554.3075   1423.28064     731.8851     554.3075
   1423.26538     732.5282     555.0892   1423.26538     732.5282     555.0892
   1423.25012     732.2132     554.3491   1423.25012     732.2132     554.3491
   1423.23486     731.0166     554.7755   1423.23486     731.0166     554.7755
   1423.21960     730.0187     553.4767   1423.21960     730.0187     553.4767
   1423.20435     729.8678     553.5801   1423.20435     729.8678     553.5801
   1423.18909     730.0825     553.0774   1423.18909     730.0825     553.0774
   1423.17383     729.0282     552.8480   1423.17383     729.0282     552.8480
   1423.15857     728.2710     551.8777   1423.15857     728.2710     551.8777
   1423.14331     729.8483     552.5271   1423.14331     729.8483     552.5271
   1423.12805     729.4509     552.0231   1423.12805     729.4509     552.0231
   1423.11279     729.5222     551.7896   1423.11279     729.5222     551.7896
   1423.09753     728.5422     550.6507   1423.09753     728.5422     550.6507
   1423.08228     726.9539     551.3178   1423.08228     726.9539     551.3178
   1423.06702     726.8884     550.1946   1423.06702     726.8884     550.1946
   1423.05176     727.2406     549.8847   1423.05176     727.2406     549.8847
   1423.03650     727.5109     549.6362   1423.03650     727.5109     549.6362
   1423.02124     727.6435     548.1786   1423.02124     727.6435     548.1786
   1423.00598     727.8916     549.5992   1423.00598     727.8916     549.5992
   1422.99072     726.8441     547.5378   1422.99072     726.8441     547.5378
   1422.97546     727.6044     547.0228   1422.97546     727.6044     547.0228
   1422.96021     727.3972     547.8370   1422.96021     727.3972     547.8370
   1422.94495     725.4918     547.0103   1422.94495     725.4918     547.0103
   1422.92969     726.1747     546.3769   1422.92969     726.1747     546.3769
   1422.91443     725.4913     546.1727   1422.91443     725.4913     546.1727
   1422.89917     726.7550     545.3879   1422.89917     726.7550     545.3879
   1422.88391     725.4551     544.4893   1422.88391     725.4551     544.4893
   1422.86865     726.1503     544.2564   1422.86865     726.1503     544.2564
   1422.85339     725.4933     543.2571   1422.85339     725.4933     543.2571
   1422.83813     725.4169     541.6067   1422.83813     725.4169     541.6067
   1422.82288     725.7506     542.0469   1422.82288     725.7506     542.0469
   1422.80762     724.1536     541.5665   1422.80762     724.1536     541.5665
   1422.79236     723.8639     541.4205   1422.79236     723.8639     541.4205
   1422.77710     724.0923     540.9193   1422.77710     724.0923     540.9193
   1422.76184     724.8564     540.9984   1422.76184     724.8564     540.9984
   1422.74658     722.5355     539.4470   1422.74658     722.5355     539.4470
   1422.73132     724.5771     538.6228   1422.73132     724.5771     538.6228
   1422.71606     724.5495     538.2258   1422.71606     724.5495     538.2258
   1422.70081     723.5066     536.0623   1422.70081     723.5066     536.0623
   1422.68555     722.6353     536.6521   1422.68555     722.6353     536.6521
   1422.67029     724.2885     535.9628   1422.67029     724.2885     535.9628
   1422.65503     723.2445     535.6973   1422.65503     723.2445     535.6973
   1422.63977     723.2168     535.6024   1422.63977     723.2168     535.6024
   1422.62451     721.8896     534.5421   1422.62451     721.8896     534.5421
   1422.60925     722.8429     533.6237   1422.60925     722.8429     533.6237
   1422.59399     720.8051     532.3110   1422.59399     720.8051     532.3110
   1422.57874     722.5391     531.7568   1422.57874     722.5391     531.7568
   1422.56348     720.4969     530.5774   1422.56348     720.4969     530.5774
   1422.54822     722.2623     530.4824   1422.54822     722.2623     530.4824
   1422.53296     721.9558     529.9738   1422.53296     721.9558     529.9738
   1422.51770     722.2704     529.1049   1422.51770     722.2704     529.1049
   1422.50244     721.9244     527.6135   1422.50244     721.9244     527.6135
   1422.48718     721.4154     526.3114   1422.48718     721.4154     526.3114
   1422.47192     720.6295     526.2938   1422.47192     720.6295     526.2938
   1422.45667     721.1736     525.2390   1422.45667     721.1736     525.2390
   1422.44141     720.8626     524.8340   1422.44141     720.8626     524.8340
   1422.42615     719.9672     524.3474   1422.42615     719.9672     524.3474
   1422.41089     721.0482     522.8698   1422.41089     721.0482     522.8698
   1422.39563     720.8353     523.5893   1422.39563     720.8353     523.5893
   1422.38037     721.5781     520.6182   1422.38037     721.5781     520.6182
   1422.36511     721.1007     520.8995   1422.36511     721.1007     520.8995
   1422.34985     720.8534     519.7986   1422.34985     720.8534     519.7986
   1422.33459     721.0687     518.3509   1422.33459     721.0687     518.3509
   1422.31934     720.9749     517.6404   1422.31934     720.9749     517.6404
   1422.30408     720.4708     516.3751   1422.30408     720.4708     516.3751
   1422.28882     720.5702     516.0776   1422.28882     720.5702     516.0776
   1422.27356     721.0509     514.7869   1422.27356     721.0509     514.7869
   1422.25830     719.9493     513.6856   1422.25830     719.9493     513.6856
   1422.24304     721.7101     513.1720   1422.24304     721.7101     513.1720
   1422.22778     721.4003     512.3768   1422.22778     721.4003     512.3768
   1422.21252     720.0853     511.4585   1422.21252     720.0853     511.4585
   1422.19727     720.3414     510.3061   1422.19727     720.3414     510.3061
   1422.18201     720.2397     509.4060   1422.18201     720.2397     509.4060
   1422.16675     720.7267     508.8636   1422.16675     720.7267     508.8636
   1422.15149     720.8812     507.4377   1422.15149     720.8812     507.4377
   1422.13623     720.2977     506.0975   1422.13623     720.2977     506.0975
   1422.12097     720.6349     505.8352   1422.12097     720.6349     505.8352
   1422.10571     719.6014     504.0084   1422.10571     719.6014     504.0084
   1422.09045     721.2181     502.7720   1422.09045     721.2181     502.7720
   1422.07520     720.3007     501.5097   1422.07520     720.3007     501.5097
   1422.05994     720.9163     501.0212   1422.05994     720.9163     501.0212
   1422.04468     719.4760     499.1574   1422.04468     719.4760     499.1574
   1422.02942     719.1749     498.9022   1422.02942     719.1749     498.9022
   1422.01416     719.3387     498.1888   1422.01416     719.3387     498.1888
   1421.99890     724.0371     496.8714   1421.99890     724.0371     496.8714
   1421.98364     719.6479     495.7343   1421.98364     719.6479     495.7343
   1421.96838     718.8243     494.2556   1421.96838     718.8243     494.2556
   1421.95312     720.1556     493.8007   1421.95312     720.1556     493.8007
   1421.93787     718.9849     492.2101   1421.93787     718.9849     492.2101
   1421.92261     719.9945     491.6898   1421.92261     719.9945     491.6898
   1421.90735     718.2116     490.4409   1421.90735     718.2116     490.4409
   1421.89209     718.9764     489.6975   1421.89209     718.9764     489.6975
   1421.87683     719.8291     487.8919   1421.87683     719.8291     487.8919
   1421.86157     719.4388     486.9859   1421.86157     719.4388     486.9859
   1421.84631     719.5261     485.2242   1421.84631     719.5261     485.2242
   1421.83105     718.9863     485.4140   1421.83105     718.9863     485.4140
   1421.81580     719.0453     483.7034   1421.81580     719.0453     483.7034
   1421.80054     720.0012     482.8166   1421.80054     720.0012     482.8166
   1421.78528     719.1971     481.2744   1421.78528     719.1971     481.2744
   1421.77002     719.3083     480.2862   1421.77002     719.3083     480.2862
   1421.75476     718.6349     479.3112   1421.75476     718.6349     479.3112
   1421.73950     720.0475     478.8723   1421.73950     720.0475     478.8723
   1421.72424     719.6695     476.7131   1421.72424     719.6695     476.7131
   1421.70898     719.8066     476.0184   1421.70898     719.8066     476.0184
   1421.69373     719.3828     474.4937   1421.69373     719.3828     474.4937
   1421.67847     719.9135     472.6673   1421.67847     719.9135     472.6673
   1421.66321     719.7026     471.8133   1421.66321     719.7026     471.8133
   1421.64795     719.6122     471.3416   1421.64795     719.6122     471.3416
   1421.63269     718.7294     470.7889   1421.63269     718.7294     470.7889
   1421.61743     719.6516     468.0075   1421.61743     719.6516     468.0075
   1421.60217     719.8048     467.1600   1421.60217     719.8048     467.1600
   1421.58691     720.0885     466.6082   1421.58691     720.0885     466.6082
   1421.57166     718.6094     465.3647   1421.57166     718.6094     465.3647
   1421.55640     720.0413     463.3195   1421.55640     720.0413     463.3195
   1421.54114     719.4476     463.4423   1421.54114     719.4476     463.4423
   1421.52588     719.1106     461.7046   1421.52588     719.1106     461.7046
   1421.51062     719.1058     460.6749   1421.51062     719.1058     460.6749
   1421.49536     719.6524     459.0273   1421.49536     719.6524     459.0273
   1421.48010     719.4655     458.1594   1421.48010     719.4655     458.1594
   1421.46484     718.7178     456.4664   1421.46484     718.7178     456.4664
   1421.44958     719.4876     456.3477   1421.44958     719.4876     456.3477
   1421.43433     719.0897     454.7612   1421.43433     719.0897     454.7612
   1421.41907     719.3686     453.8684   1421.41907     719.3686     453.8684
   1421.40381     719.3906     452.5911   1421.40381     719.3906     452.5911
   1421.38855     720.0579     451.2031   1421.38855     720.0579     451.2031
   1421.37329     719.4568     450.4467   1421.37329     719.4568     450.4467
   1421.35803     718.0982     448.9104   1421.35803     718.0982     448.9104
   1421.34277     718.4420     447.6198   1421.34277     718.4420     447.6198
   1421.32751     719.5040     447.1620   1421.32751     719.5040     447.1620
   1421.31226     720.6263     445.1160   1421.31226     720.6263     445.1160
   1421.29700     719.5956     444.6447   1421.29700     719.5956     444.6447
   1421.28174     719.4819     442.6212   1421.28174     719.4819     442.6212
   1421.26648     719.1536     441.6428   1421.26648     719.1536     441.6428
   1421.25122     719.7834     440.8059   1421.25122     719.7834     440.8059
   1421.23596     719.7155     439.1616   1421.23596     719.7155     439.1616
   1421.22070     719.3369     437.8758   1421.22070     719.3369     437.8758
   1421.20544     719.0876     436.9631   1421.20544     719.0876     436.9631
   1421.19019     720.5122     435.3193   1421.19019     720.5122     435.3193
   1421.17493     718.0388     434.9028   1421.17493     718.0388     434.9028
   1421.15967     718.9887     433.4251   1421.15967     718.9887     433.4251
   1421.14441     719.7361     432.6710   1421.14441     719.7361     432.6710
   1421.12915     718.5455     431.4168   1421.12915     718.5455     431.4168
   1421.11389     718.7233     430.6093   1421.11389     718.7233     430.6093
   1421.09863     718.6533     429.3092   1421.09863     718.6533     429.3092
   1421.08337     717.7670     427.7574   1421.08337     717.7670     427.7574
   1421.06812     718.1445     426.5909   1421.06812     718.1445     426.5909
   1421.05286     720.5830     425.8281   1421.05286     720.5830     425.8281
   1421.03760     719.1144     424.8716   1421.03760     719.1144     424.8716
   1421.02234     719.5287     423.7804   1421.02234     719.5287     423.7804
   1421.00708     719.1389     422.8243   1421.00708     719.1389     422.8243
   1420.99182     718.5573     421.1280   1420.99182     718.5573     421.1280
   1420.97656     718.9785     420.4749   1420.97656     718.9785     420.4749
   1420.96130     718.3689     418.5643   1420.96130     718.3689     418.5643
   1420.94604     719.7111     418.3180   1420.94604     719.7111     418.3180
   1420.93079     720.1625     417.1906   1420.93079     720.1625     417.1906
   1420.91553     720.5416     415.7422   1420.91553     720.5416     415.7422
   1420.90027     719.3464     414.9588   1420.90027     719.3464     414.9588
   1420.88501     720.4206     413.8892   1420.88501     720.4206     413.8892
   1420.86975     719.7410     412.5082   1420.86975     719.7410     412.5082
   1420.85449     719.5098     411.4928   1420.85449     719.5098     411.4928
   1420.83923     719.6608     410.9610   1420.83923     719.6608     410.9610
   1420.82397     720.4921     409.8158   1420.82397     720.4921     409.8158
   1420.80872     720.3841     408.8318   1420.80872     720.3841     408.8318
   1420.79346     721.2560     408.5455   1420.79346     721.2560     408.5455
   1420.77820     720.6997     406.6087   1420.77820     720.6997     406.6087
   1420.76294     720.5888     406.3405   1420.76294     720.5888     406.3405
   1420.74768     720.3757     405.0795   1420.74768     720.3757     405.0795
   1420.73242     718.9667     403.5903   1420.73242     718.9667     403.5903
   1420.71716     722.2025     403.3690   1420.71716     722.2025     403.3690
   1420.70190     721.0164     402.8133   1420.70190     721.0164     402.8133
   1420.68665     721.5944     401.4995   1420.68665     721.5944     401.4995
   1420.67139     721.8968     400.3109   1420.67139     721.8968     400.3109
   1420.65613     721.2885     398.8488   1420.65613     721.2885     398.8488
   1420.64087     722.6446     398.5793   1420.64087     722.6446     398.5793
   1420.62561     721.9825     397.2248   1420.62561     721.9825     397.2248
   1420.61035     723.0835     397.0368   1420.61035     723.0835     397.0368
   1420.59509     723.1445     395.6580   1420.59509     723.1445     395.6580
   1420.57983     723.4272     394.3409   1420.57983     723.4272     394.3409
   1420.56458     723.1647     394.6163   1420.56458     723.1647     394.6163
   1420.54932     725.3071     393.7104   1420.54932     725.3071     393.7104
   1420.53406     725.9503     393.3080   1420.53406     725.9503     393.3080
   1420.51880     726.1385     392.7141   1420.51880     726.1385     392.7141
   1420.50354     727.1044     393.1853   1420.50354     727.1044     393.1853
   1420.48828     728.0062     391.3245   1420.48828     728.0062     391.3245
   1420.47302     728.2941     390.5402   1420.47302     728.2941     390.5402
   1420.45776     727.0485     389.2092   1420.45776     727.0485     389.2092
   1420.44250     727.5614     388.2555   1420.44250     727.5614     388.2555
   1420.42725     729.5512     388.1515   1420.42725     729.5512     388.1515
   1420.41199     727.9971     386.6091   1420.41199     727.9971     386.6091
   1420.39673     728.0004     385.1523   1420.39673     728.0004     385.1523
   1420.38147     727.6271     384.5490   1420.38147     727.6271     384.5490
   1420.36621     728.1354     384.1501   1420.36621     728.1354     384.1501
   1420.35095     729.5514     383.4711   1420.35095     729.5514     383.4711
   1420.33569     730.3678     383.4270   1420.33569     730.3678     383.4270
   1420.32043     731.9973     383.6950   1420.32043     731.9973     383.6950
   1420.30518     735.0442     384.7927   1420.30518     735.0442     384.7927
   1420.28992     742.2397     387.1224   1420.28992     742.2397     387.1224
   1420.27466     761.5331     396.3049   1420.27466     761.5331     396.3049
   1420.25940     812.4367     420.8143   1420.25940     812.4367     420.8143
   1420.24414     898.4577     461.0861   1420.24414     898.4577     461.0861
   1420.22888     935.6552     479.2374   1420.22888     935.6552     479.2374
   1420.21362     986.7468     503.1576   1420.21362     986.7468     503.1576
   1420.19836    1126.3148     571.2806   1420.19836    1126.3148     571.2806
   1420.18311    1321.7645     667.5242   1420.18311    1321.7645     667.5242
   1420.16785    1593.5078     799.4948   1420.16785    1593.5078     799.4948
   1420.15259    1979.6038     986.2570   1420.15259    1979.6038     986.2570
   1420.13733    2041.0917    1014.2654   1420.13733    2041.0917    1014.2654
   1420.12207    1622.8009     805.7164   1420.12207    1622.8009     805.7164
   1420.10681    1191.9371     594.5287   1420.10681    1191.9371     594.5287
   1420.09155     967.8766     485.9136   1420.09155     967.8766     485.9136
   1420.07629     868.9103     437.0103   1420.07629     868.9103     437.0103
   1420.06104     827.0729     416.4356   1420.06104     827.0729     416.4356
   1420.04578     825.5372     415.3061   1420.04578     825.5372     415.3061
   1420.03052     868.8678     434.1453   1420.03052     868.8678     434.1453
   1420.01526     971.0989     482.0515   1420.01526     971.0989     482.0515
   1420.00000    1267.3207     622.6793   1420.00000    1267.3207     622.6793
   1419.98474    1563.5427     763.3071   1419.98474    1563.5427     763.3071
   1419.96948    1606.3663     781.1110   1419.96948    1606.3663     781.1110
   1419.95422    1391.0730     678.6485   1419.95422    1391.0730     678.6485
   1419.93896    1193.0206     585.1120   1419.93896    1193.0206     585.1120
   1419.92371    1158.7996     568.5325   1419.92371    1158.7996     568.5325
   1419.90845    1323.4253     644.4909   1419.90845    1323.4253     644.4909
   1419.89319    1366.0040     663.2486   1419.89319    1366.0040     663.2486
   1419.87793    1306.3831     633.1454   1419.87793    1306.3831     633.1454
   1419.86267    1168.7285     567.1998   1419.86267    1168.7285     567.1998
   1419.84741    1113.2111     539.9197   1419.84741    1113.2111     539.9197
   1419.83215    1176.4960     567.5714   1419.83215    1176.4960     567.5714
   1419.81689    1252.0836     602.9543   1419.81689    1252.0836     602.9543
   1419.80164    1150.0017     552.5120   1419.80164    1150.0017     552.5120
   1419.78638    1002.3236     485.4175   1419.78638    1002.3236     485.4175
   1419.77112     931.1783     451.8440   1419.77112     931.1783     451.8440
   1419.75586     893.9183     432.5084   1419.75586     893.9183     432.5084
   1419.74060     867.2696     420.1138   1419.74060     867.2696     420.1138
   1419.72534     858.6355     414.5814   1419.72534     858.6355     414.5814
   1419.71008     837.6434     403.6483   1419.71008     837.6434     403.6483
   1419.69482     813.8724     393.0135   1419.69482     813.8724     393.0135
   1419.67957     808.3477     390.3609   1419.67957     808.3477     390.3609
   1419.66431     807.3616     388.9138   1419.66431     807.3616     388.9138
   1419.64905     803.0366     386.1686   1419.64905     803.0366     386.1686
   1419.63379     788.4242     379.1287   1419.63379     788.4242     379.1287
   1419.61853     774.4733     371.9883   1419.61853     774.4733     371.9883
   1419.60327     762.7807     366.2589   1419.60327     762.7807     366.2589
   1419.58801     752.4398     361.1193   1419.58801     752.4398     361.1193
   1419.57275     744.8407     356.8887   1419.57275     744.8407     356.8887
   1419.55750     738.5529     354.0287   1419.55750     738.5529     354.0287
   1419.54224     735.8876     351.7889   1419.54224     735.8876     351.7889
   1419.52698     734.4072     351.0809   1419.52698     734.4072     351.0809
   1419.51172     732.8317     349.8562   1419.51172     732.8317     349.8562
   1419.49646     732.9578     349.3357   1419.49646     732.9578     349.3357
   1419.48120     733.3626     348.8893   1419.48120     733.3626     348.8893
   1419.46594     733.1702     348.7190   1419.46594     733.1702     348.7190
   1419.45068     732.8113     348.4238   1419.45068     732.8113     348.4238
   1419.43542     732.9147     347.9993   1419.43542     732.9147     347.9993
   1419.42017     734.4235     347.2097   1419.42017     734.4235     347.2097
   1419.40491     734.6853     347.0016   1419.40491     734.6853     347.0016
   1419.38965     734.8812     347.5885   1419.38965     734.8812     347.5885
   1419.37439     734.7294     346.3943   1419.37439     734.7294     346.3943
   1419.35913     735.1393     346.7318   1419.35913     735.1393     346.7318
   1419.34387     735.2370     346.9703   1419.34387     735.2370     346.9703
   1419.32861     735.4488     346.4378   1419.32861     735.4488     346.4378
   1419.31335     736.6558     346.2488   1419.31335     736.6558     346.2488
   1419.29810     736.1195     345.6027   1419.29810     736.1195     345.6027
   1419.28284     737.1212     346.2364   1419.28284     737.1212     346.2364
   1419.26758     738.4151     346.4503   1419.26758     738.4151     346.4503
   1419.25232     737.5241     345.9167   1419.25232     737.5241     345.9167
   1419.23706     739.3228     345.2529   1419.23706     739.3228     345.2529
   1419.22180     737.7393     346.0234   1419.22180     737.7393     346.0234
   1419.20654     738.9383     345.3512   1419.20654     738.9383     345.3512
   1419.19128     738.8470     345.5353   1419.19128     738.8470     345.5353
   1419.17603     740.8218     345.3458   1419.17603     740.8218     345.3458
   1419.16077     741.2427     346.2430   1419.16077     741.2427     346.2430
   1419.14551     741.2010     345.2094   1419.14551     741.2010     345.2094
   1419.13025     742.0234     345.6256   1419.13025     742.0234     345.6256
   1419.11499     743.0175     345.6842   1419.11499     743.0175     345.6842
   1419.09973     742.7095     345.1413   1419.09973     742.7095     345.1413
   1419.08447     743.0559     345.6284   1419.08447     743.0559     345.6284
   1419.06921     745.3353     345.9191   1419.06921     745.3353     345.9191
   1419.05396     744.9159     345.1530   1419.05396     744.9159     345.1530
   1419.03870     745.1136     345.5332   1419.03870     745.1136     345.5332
   1419.02344     746.1608     346.0288   1419.02344     746.1608     346.0288
   1419.00818     746.9197     345.6402   1419.00818     746.9197     345.6402
   1418.99292     748.5307     345.4135   1418.99292     748.5307     345.4135
   1418.97766     749.0405     345.6027   1418.97766     749.0405     345.6027
   1418.96240     748.2535     346.3340   1418.96240     748.2535     346.3340
   1418.94714     749.3551     345.5534   1418.94714     749.3551     345.5534
   1418.93188     749.0907     346.1071   1418.93188     749.0907     346.1071
   1418.91663     750.7854     346.1104   1418.91663     750.7854     346.1104
   1418.90137     752.4412     346.2326   1418.90137     752.4412     346.2326
   1418.88611     752.5986     346.5788   1418.88611     752.5986     346.5788
   1418.87085     753.3608     346.5818   1418.87085     753.3608     346.5818
   1418.85559     754.3796     347.1825   1418.85559     754.3796     347.1825
   1418.84033     754.2711     347.1737   1418.84033     754.2711     347.1737
   1418.82507     753.1153     346.8874   1418.82507     753.1153     346.8874
   1418.80981     755.3362     347.0919   1418.80981     755.3362     347.0919
   1418.79456     756.0806     347.5128   1418.79456     756.0806     347.5128
   1418.77930     757.9945     347.1250   1418.77930     757.9945     347.1250
   1418.76404     758.4487     346.9609   1418.76404     758.4487     346.9609
   1418.74878     760.5763     347.6455   1418.74878     760.5763     347.6455
   1418.73352     758.8344     348.0743   1418.73352     758.8344     348.0743
   1418.71826     760.7059     348.1158   1418.71826     760.7059     348.1158
   1418.70300     762.4263     348.8474   1418.70300     762.4263     348.8474
   1418.68774     762.1718     348.5655   1418.68774     762.1718     348.5655
   1418.67249     763.6688     348.8830   1418.67249     763.6688     348.8830
   1418.65723     762.8565     350.0582   1418.65723     762.8565     350.0582
   1418.64197     763.3477     349.7985   1418.64197     763.3477     349.7985
   1418.62671     765.2582     349.9833   1418.62671     765.2582     349.9833
   1418.61145     765.9546     350.3759   1418.61145     765.9546     350.3759
   1418.59619     767.3205     351.0860   1418.59619     767.3205     351.0860
   1418.58093     769.0794     351.0825   1418.58093     769.0794     351.0825
   1418.56567     769.7250     351.3190   1418.56567     769.7250     351.3190
   1418.55042     769.6505     351.5754   1418.55042     769.6505     351.5754
   1418.53516     771.0743     352.0845   1418.53516     771.0743     352.0845
   1418.51990     771.9648     351.7767   1418.51990     771.9648     351.7767
   1418.50464     773.0714     352.0580   1418.50464     773.0714     352.0580
   1418.48938     772.4888     352.6483   1418.48938     772.4888     352.6483
   1418.47412     774.3654     353.1660   1418.47412     774.3654     353.1660
   1418.45886     776.4696     353.9299   1418.45886     776.4696     353.9299
   1418.44360     775.0345     353.1830   1418.44360     775.0345     353.1830
   1418.42834     777.2864     354.3100   1418.42834     777.2864     354.3100
   1418.41309     776.8886     354.2994   1418.41309     776.8886     354.2994
   1418.39783     778.8058     355.0006   1418.39783     778.8058     355.0006
   1418.38257     779.0524     355.8499   1418.38257     779.0524     355.8499
   1418.36731     778.9848     355.4966   1418.36731     778.9848     355.4966
   1418.35205     781.9433     356.4650   1418.35205     781.9433     356.4650
   1418.33679     782.7983     357.0982   1418.33679     782.7983     357.0982
   1418.32153     784.9163     357.8494   1418.32153     784.9163     357.8494
   1418.30627     785.2513     357.6738   1418.30627     785.2513     357.6738
   1418.29102     786.0861     358.4527   1418.29102     786.0861     358.4527
   1418.27576     787.3160     358.7986   1418.27576     787.3160     358.7986
   1418.26050     789.3065     359.5797   1418.26050     789.3065     359.5797
   1418.24524     790.6505     359.6101   1418.24524     790.6505     359.6101
   1418.22998     791.4065     359.7432   1418.22998     791.4065     359.7432
   1418.21472     792.2209     360.4626   1418.21472     792.2209     360.4626
   1418.19946     792.9091     360.9510   1418.19946     792.9091     360.9510
   1418.18420     794.5140     361.4046   1418.18420     794.5140     361.4046
   1418.16895     796.4714     362.0670   1418.16895     796.4714     362.0670
   1418.15369     796.3407     362.7868   1418.15369     796.3407     362.7868
   1418.13843     797.3112     363.0034   1418.13843     797.3112     363.0034
   1418.12317     797.7811     363.6169   1418.12317     797.7811     363.6169
   1418.10791     798.2297     363.9071   1418.10791     798.2297     363.9071
   1418.09265     801.3287     364.8288   1418.09265     801.3287     364.8288
   1418.07739     802.7911     365.4316   1418.07739     802.7911     365.4316
   1418.06213     803.7214     366.3436   1418.06213     803.7214     366.3436
   1418.04688     804.9905     366.4622   1418.04688     804.9905     366.4622
   1418.03162     806.3762     366.7330   1418.03162     806.3762     366.7330
   1418.01636     806.1903     367.2714   1418.01636     806.1903     367.2714
   1418.00110     808.1824     367.9664   1418.00110     808.1824     367.9664
   1417.98584     811.1282     368.8644   1417.98584     811.1282     368.8644
   1417.97058     812.1337     369.6462   1417.97058     812.1337     369.6462
   1417.95532     811.3622     370.1476   1417.95532     811.3622     370.1476
   1417.94006     813.8170     370.4422   1417.94006     813.8170     370.4422
   1417.92480     814.8743     370.9450   1417.92480     814.8743     370.9450
   1417.90955     816.8575     372.3742   1417.90955     816.8575     372.3742
   1417.89429     816.8257     372.2091   1417.89429     816.8257     372.2091
   1417.87903     819.7860     372.5843   1417.87903     819.7860     372.5843
   1417.86377     819.4046     373.4109   1417.86377     819.4046     373.4109
   1417.84851     820.2430     374.3782   1417.84851     820.2430     374.3782
   1417.83325     822.7391     374.0521   1417.83325     822.7391     374.0521
   1417.81799     823.6198     375.7959   1417.81799     823.6198     375.7959
   1417.80273     824.6404     376.1223   1417.80273     824.6404     376.1223
   1417.78748     825.3195     376.5341   1417.78748     825.3195     376.5341
   1417.77222     827.9430     377.2898   1417.77222     827.9430     377.2898
   1417.75696     827.1118     378.6356   1417.75696     827.1118     378.6356
   1417.74170     829.8953     379.2642   1417.74170     829.8953     379.2642
   1417.72644     831.5376     379.2379   1417.72644     831.5376     379.2379
   1417.71118     832.6231     380.7831   1417.71118     832.6231     380.7831
   1417.69592     834.1243     381.0984   1417.69592     834.1243     381.0984
   1417.68066     836.3629     381.8240   1417.68066     836.3629     381.8240
   1417.66541     836.2188     382.4108   1417.66541     836.2188     382.4108
   1417.65015     837.4478     382.7137   1417.65015     837.4478     382.7137
   1417.63489     841.1096     383.3998   1417.63489     841.1096     383.3998
   1417.61963     841.3797     385.0389   1417.61963     841.3797     385.0389
   1417.60437     843.5131     385.5433   1417.60437     843.5131     385.5433
   1417.58911     842.3910     386.4465   1417.58911     842.3910     386.4465
   1417.57385     845.0748     386.4399   1417.57385     845.0748     386.4399
   1417.55859     846.9880     387.2558   1417.55859     846.9880     387.2558
   1417.54333     846.3904     387.9963   1417.54333     846.3904     387.9963
   1417.52808     849.8520     388.5428   1417.52808     849.8520     388.5428
   1417.51282     850.8559     389.8612   1417.51282     850.8559     389.8612
   1417.49756     853.1248     390.8832   1417.49756     853.1248     390.8832
   1417.48230     853.8473     391.6269   1417.48230     853.8473     391.6269
   1417.46704     854.0124     391.7330   1417.46704     854.0124     391.7330
   1417.45178     856.2794     392.6366   1417.45178     856.2794     392.6366
   1417.43652     856.8308     393.6396   1417.43652     856.8308     393.6396
   1417.42126     860.7070     394.3090   1417.42126     860.7070     394.3090
   1417.40601     860.3569     394.7062   1417.40601     860.3569     394.7062
   1417.39075     862.2280     396.2621   1417.39075     862.2280     396.2621
   1417.37549     863.1586     397.3047   1417.37549     863.1586     397.3047
   1417.36023     865.6743     397.2609   1417.36023     865.6743     397.2609
   1417.34497     868.0983     397.8468   1417.34497     868.0983     397.8468
   1417.32971     868.1339     398.8579   1417.32971     868.1339     398.8579
   1417.31445     870.5202     399.9114   1417.31445     870.5202     399.9114
   1417.29919     869.0411     400.5745   1417.29919     869.0411     400.5745
   1417.28394     872.1542     401.7247   1417.28394     872.1542     401.7247
   1417.26868     873.7527     402.3510   1417.26868     873.7527     402.3510
   1417.25342     874.4225     403.0006   1417.25342     874.4225     403.0006
   1417.23816     877.0738     404.2083   1417.23816     877.0738     404.2083
   1417.22290     877.8956     405.7087   1417.22290     877.8956     405.7087
   1417.20764     879.2572     405.3705   1417.20764     879.2572     405.3705
   1417.19238     880.4015     406.3597   1417.19238     880.4015     406.3597
   1417.17712     882.4005     406.4046   1417.17712     882.4005     406.4046
   1417.16187     882.8262     408.0913   1417.16187     882.8262     408.0913
   1417.14661     884.4601     408.3147   1417.14661     884.4601     408.3147
   1417.13135     886.5060     409.3809   1417.13135     886.5060     409.3809
   1417.11609     887.1063     410.0876   1417.11609     887.1063     410.0876
   1417.10083     888.4270     411.4246   1417.10083     888.4270     411.4246
   1417.08557     888.8339     411.9577   1417.08557     888.8339     411.9577
   1417.07031     892.7214     412.6281   1417.07031     892.7214     412.6281
   1417.05505     893.1400     413.7196   1417.05505     893.1400     413.7196
   1417.03979     893.4989     413.9921   1417.03979     893.4989     413.9921
   1417.02454     895.7013     414.9932   1417.02454     895.7013     414.9932
   1417.00928     895.7668     415.7917   1417.00928     895.7668     415.7917
   1416.99402     898.0659     416.1638   1416.99402     898.0659     416.1638
   1416.97876     898.9487     417.2116   1416.97876     898.9487     417.2116
   1416.96350     900.7496     418.0697   1416.96350     900.7496     418.0697
   1416.94824     900.7988     419.2432   1416.94824     900.7988     419.2432
   1416.93298     902.1487     419.7829   1416.93298     902.1487     419.7829
   1416.91772     903.8062     420.1526   1416.91772     903.8062     420.1526
   1416.90247     904.6116     421.1003   1416.90247     904.6116     421.1003
   1416.88721     907.3626     421.6776   1416.88721     907.3626     421.6776
   1416.87195     906.8063     422.5768   1416.87195     906.8063     422.5768
   1416.85669     909.3711     423.7671   1416.85669     909.3711     423.7671
   1416.84143     910.2181     423.7998   1416.84143     910.2181     423.7998
   1416.82617     910.5970     424.9625   1416.82617     910.5970     424.9625
   1416.81091     912.3817     425.4648   1416.81091     912.3817     425.4648
   1416.79565     913.1376     426.3026   1416.79565     913.1376     426.3026
   1416.78040     914.2482     426.9409   1416.78040     914.2482     426.9409
   1416.76514     915.9900     427.6555   1416.76514     915.9900     427.6555
   1416.74988     916.3698     428.1013   1416.74988     916.3698     428.1013
   1416.73462     917.0081     428.7681   1416.73462     917.0081     428.7681
   1416.71936     916.5485     429.7497   1416.71936     916.5485     429.7497
   1416.70410     918.5876     429.9687   1416.70410     918.5876     429.9687
   1416.68884     920.2576     431.1921   1416.68884     920.2576     431.1921
   1416.67358     920.2467     431.1069   1416.67358     920.2467     431.1069
   1416.65833     921.1006     431.2578   1416.65833     921.1006     431.2578
   1416.64307     920.0560     432.7163   1416.64307     920.0560     432.7163
   1416.62781     924.1255     433.2638   1416.62781     924.1255     433.2638
   1416.61255     923.7767     433.1544   1416.61255     923.7767     433.1544
   1416.59729     923.1898     435.1457   1416.59729     923.1898     435.1457
   1416.58203     925.3857     434.6886   1416.58203     925.3857     434.6886
   1416.56677     925.4971     436.0887   1416.56677     925.4971     436.0887
   1416.55151     927.0218     436.0674   1416.55151     927.0218     436.0674
   1416.53625     926.4716     435.8102   1416.53625     926.4716     435.8102
   1416.52100     926.8489     437.2563   1416.52100     926.8489     437.2563
   1416.50574     927.7054     437.0633   1416.50574     927.7054     437.0633
   1416.49048     928.5438     437.7583   1416.49048     928.5438     437.7583
   1416.47522     926.7911     437.9510   1416.47522     926.7911     437.9510
   1416.45996     928.0209     438.9538   1416.45996     928.0209     438.9538
   1416.44470     928.8871     438.7332   1416.44470     928.8871     438.7332
   1416.42944     929.8636     439.4532   1416.42944     929.8636     439.4532
   1416.41418     930.7413     439.5293   1416.41418     930.7413     439.5293
   1416.39893     931.0462     440.5931   1416.39893     931.0462     440.5931
   1416.38367     928.7659     440.3232   1416.38367     928.7659     440.3232
   1416.36841     929.9472     440.4029   1416.36841     929.9472     440.4029
   1416.35315     930.8107     440.9088   1416.35315     930.8107     440.9088
   1416.33789     931.5686     441.4388   1416.33789     931.5686     441.4388
   1416.32263     931.3616     442.2825   1416.32263     931.3616     442.2825
   1416.30737     930.5014     442.1779   1416.30737     930.5014     442.1779
   1416.29211     931.7107     442.3853   1416.29211     931.7107     442.3853
   1416.27686     928.3303     441.8313   1416.27686     928.3303     441.8313
   1416.26160     931.7416     442.4525   1416.26160     931.7416     442.4525
   1416.24634     930.7499     442.7007   1416.24634     930.7499     442.7007
   1416.23108     929.9565     443.2983   1416.23108     929.9565     443.2983
   1416.21582     929.5590     442.8497   1416.21582     929.5590     442.8497
   1416.20056     930.2856     443.7394   1416.20056     930.2856     443.7394
   1416.18530     929.5927     443.1946   1416.18530     929.5927     443.1946
   1416.17004     928.8961     444.2723   1416.17004     928.8961     444.2723
   1416.15479     929.5555     444.2431   1416.15479     929.5555     444.2431
   1416.13953     930.4305     444.0686   1416.13953     930.4305     444.0686
   1416.12427     927.5855     443.9002   1416.12427     927.5855     443.9002
   1416.10901     928.9262     444.2116   1416.10901     928.9262     444.2116
   1416.09375     927.0477     443.8705   1416.09375     927.0477     443.8705
   1416.07849     927.4309     444.0700   1416.07849     927.4309     444.0700
   1416.06323     925.7621     444.2305   1416.06323     925.7621     444.2305
   1416.04797     927.3521     444.8225   1416.04797     927.3521     444.8225
   1416.03271     924.1931     444.4170   1416.03271     924.1931     444.4170
   1416.01746     925.3839     444.7458   1416.01746     925.3839     444.7458
   1416.00220     922.8925     444.6931   1416.00220     922.8925     444.6931
   1415.98694     922.6762     444.8842   1415.98694     922.6762     444.8842
   1415.97168     922.4989     444.7473   1415.97168     922.4989     444.7473
   1415.95642     922.2652     445.2278   1415.95642     922.2652     445.2278
   1415.94116     921.7983     444.5677   1415.94116     921.7983     444.5677
   1415.92590     921.1750     444.3984   1415.92590     921.1750     444.3984
   1415.91064     921.1883     445.2224   1415.91064     921.1883     445.2224
   1415.89539     919.4041     444.2391   1415.89539     919.4041     444.2391
   1415.88013     917.8198     444.7267   1415.88013     917.8198     444.7267
   1415.86487     916.8279     443.6993   1415.86487     916.8279     443.6993
   1415.84961     915.4153     444.2325   1415.84961     915.4153     444.2325
   1415.83435     914.7889     443.8156   1415.83435     914.7889     443.8156
   1415.81909     915.2842     444.0772   1415.81909     915.2842     444.0772
   1415.80383     913.4932     444.7098   1415.80383     913.4932     444.7098
   1415.78857     913.6460     443.9721   1415.78857     913.6460     443.9721
   1415.77332     912.6180     443.8705   1415.77332     912.6180     443.8705
   1415.75806     910.1624     443.5802   1415.75806     910.1624     443.5802
   1415.74280     910.2607     444.0218   1415.74280     910.2607     444.0218
   1415.72754     908.9341     443.4209   1415.72754     908.9341     443.4209
   1415.71228     907.5775     443.5576   1415.71228     907.5775     443.5576
   1415.69702     905.4110     442.8552   1415.69702     905.4110     442.8552
   1415.68176     904.7506     442.7739   1415.68176     904.7506     442.7739
   1415.66650     905.4400     443.0460   1415.66650     905.4400     443.0460
   1415.65125     902.2716     442.9561   1415.65125     902.2716     442.9561
   1415.63599     900.5261     442.9547   1415.63599     900.5261     442.9547
   1415.62073     900.8787     442.1700   1415.62073     900.8787     442.1700
   1415.60547     899.0666     441.9423   1415.60547     899.0666     441.9423
   1415.59021     897.8425     442.4977   1415.59021     897.8425     442.4977
   1415.57495     896.2841     442.2617   1415.57495     896.2841     442.2617
   1415.55969     896.1442     441.3774   1415.55969     896.1442     441.3774
   1415.54443     893.1283     441.6919   1415.54443     893.1283     441.6919
   1415.52917     892.9293     441.1465   1415.52917     892.9293     441.1465
   1415.51392     890.1635     441.0480   1415.51392     890.1635     441.0480
   1415.49866     889.6069     440.7347   1415.49866     889.6069     440.7347
   1415.48340     887.4449     439.7226   1415.48340     887.4449     439.7226
   1415.46814     887.2301     441.0782   1415.46814     887.2301     441.0782
   1415.45288     885.0247     440.6784   1415.45288     885.0247     440.6784
   1415.43762     883.9911     440.0276   1415.43762     883.9911     440.0276
   1415.42236     882.0610     439.7943   1415.42236     882.0610     439.7943
   1415.40710     881.8308     440.1584   1415.40710     881.8308     440.1584
   1415.39185     879.3961     438.7256   1415.39185     879.3961     438.7256
   1415.37659     878.8646     439.1861   1415.37659     878.8646     439.1861
   1415.36133     877.1503     437.9060   1415.36133     877.1503     437.9060
   1415.34607     875.0009     438.2049   1415.34607     875.0009     438.2049
   1415.33081     872.9586     437.7160   1415.33081     872.9586     437.7160
   1415.31555     870.4080     437.2319   1415.31555     870.4080     437.2319
   1415.30029     868.9381     437.6562   1415.30029     868.9381     437.6562
   1415.28503     867.7650     436.9519   1415.28503     867.7650     436.9519
   1415.26978     865.7701     436.7680   1415.26978     865.7701     436.7680
   1415.25452     865.5489     436.4178   1415.25452     865.5489     436.4178
   1415.23926     861.1511     435.9172   1415.23926     861.1511     435.9172
   1415.22400     858.2532     435.8046   1415.22400     858.2532     435.8046
   1415.20874     857.5804     435.6555   1415.20874     857.5804     435.6555
   1415.19348     856.4380     434.9088   1415.19348     856.4380     434.9088
   1415.17822     854.9325     435.7493   1415.17822     854.9325     435.7493
   1415.16296     853.4463     433.8423   1415.16296     853.4463     433.8423
   1415.14771     850.6595     434.7928   1415.14771     850.6595     434.7928
   1415.13245     848.3378     433.8171   1415.13245     848.3378     433.8171
   1415.11719     846.3039     432.8654   1415.11719     846.3039     432.8654
   1415.10193     843.3685     432.3474   1415.10193     843.3685     432.3474
   1415.08667     841.3126     432.0214   1415.08667     841.3126     432.0214
   1415.07141     839.2518     431.6944   1415.07141     839.2518     431.6944
   1415.05615     837.9233     430.7578   1415.05615     837.9233     430.7578
   1415.04089     835.3629     430.8688   1415.04089     835.3629     430.8688
   1415.02563     832.5399     430.5100   1415.02563     832.5399     430.5100
   1415.01038     831.5261     429.0526   1415.01038     831.5261     429.0526
   1414.99512     828.6180     429.4363   1414.99512     828.6180     429.4363
   1414.97986     826.1870     428.8990   1414.97986     826.1870     428.8990
   1414.96460     824.2980     428.0910   1414.96460     824.2980     428.0910
   1414.94934     823.0259     427.9504   1414.94934     823.0259     427.9504
   1414.93408     819.7110     426.9756   1414.93408     819.7110     426.9756
   1414.91882     817.0612     427.2860   1414.91882     817.0612     427.2860
   1414.90356     814.0691     426.1977   1414.90356     814.0691     426.1977
   1414.88831     811.5151     425.6988   1414.88831     811.5151     425.6988
   1414.87305     810.2292     424.8992   1414.87305     810.2292     424.8992
   1414.85779     807.4469     424.1512   1414.85779     807.4469     424.1512
   1414.84253     804.1263     424.4311   1414.84253     804.1263     424.4311
   1414.82727     802.5255     422.7882   1414.82727     802.5255     422.7882
   1414.81201     799.4213     422.3508   1414.81201     799.4213     422.3508
   1414.79675     797.2985     421.7259   1414.79675     797.2985     421.7259
   1414.78149     794.4466     421.1244   1414.78149     794.4466     421.1244
   1414.76624     792.0202     420.7783   1414.76624     792.0202     420.7783
   1414.75098     790.3116     419.1928   1414.75098     790.3116     419.1928
   1414.73572     787.1669     419.6286   1414.73572     787.1669     419.6286
   1414.72046     785.1619     417.9398   1414.72046     785.1619     417.9398
   1414.70520     780.8802     417.1652   1414.70520     780.8802     417.1652
   1414.68994     778.8851     415.5837   1414.68994     778.8851     415.5837
   1414.67468     775.4554     416.3133   1414.67468     775.4554     416.3133
   1414.65942     772.9916     415.0423   1414.65942     772.9916     415.0423
   1414.64417     769.1638     414.9090   1414.64417     769.1638     414.9090
   1414.62891     765.4176     413.2087   1414.62891     765.4176     413.2087
   1414.61365     762.8855     412.9427   1414.61365     762.8855     412.9427
   1414.59839     761.2650     411.6590   1414.59839     761.2650     411.6590
   1414.58313     757.9717     410.7876   1414.58313     757.9717     410.7876
   1414.56787     756.0547     410.1980   1414.56787     756.0547     410.1980
   1414.55261     752.5956     409.1549   1414.55261     752.5956     409.1549
   1414.53735     748.1780     407.9507   1414.53735     748.1780     407.9507
   1414.52209     745.5689     407.7524   1414.52209     745.5689     407.7524
   1414.50684     742.8405     406.6923   1414.50684     742.8405     406.6923
   1414.49158     740.3804     405.7661   1414.49158     740.3804     405.7661
   1414.47632     735.7952     404.2059   1414.47632     735.7952     404.2059
   1414.46106     733.3030     403.2928   1414.46106     733.3030     403.2928
   1414.44580     731.7134     402.4143   1414.44580     731.7134     402.4143
   1414.43054     726.2136     401.3033   1414.43054     726.2136     401.3033
   1414.41528     723.9696     400.6655   1414.41528     723.9696     400.6655
   1414.40002     720.3761     399.7583   1414.40002     720.3761     399.7583
   1414.38477     717.6849     398.6915   1414.38477     717.6849     398.6915
   1414.36951     714.2103     397.3884   1414.36951     714.2103     397.3884
   1414.35425     711.5803     396.7742   1414.35425     711.5803     396.7742
   1414.33899     705.6580     395.3298   1414.33899     705.6580     395.3298
   1414.32373     704.3133     394.0297   1414.32373     704.3133     394.0297
   1414.30847     701.2177     393.1428   1414.30847     701.2177     393.1428
   1414.29321     697.8710     392.1966   1414.29321     697.8710     392.1966
   1414.27795     695.6381     390.8516   1414.27795     695.6381     390.8516
   1414.26270     691.0849     390.4450   1414.26270     691.0849     390.4450
   1414.24744     688.2014     389.2399   1414.24744     688.2014     389.2399
   1414.23218     683.7192     387.3842   1414.23218     683.7192     387.3842
   1414.21692     680.6893     385.6892   1414.21692     680.6893     385.6892
   1414.20166     676.7776     384.8679   1414.20166     676.7776     384.8679
   1414.18640     672.7626     384.0932   1414.18640     672.7626     384.0932
   1414.17114     670.0234     382.4670   1414.17114     670.0234     382.4670
   1414.15588     666.6681     381.6205   1414.15588     666.6681     381.6205
   1414.14062     662.7112     380.8124   1414.14062     662.7112     380.8124
   1414.12537     659.5164     378.4877   1414.12537     659.5164     378.4877
   1414.11011     655.5645     377.6581   1414.11011     655.5645     377.6581
   1414.09485     651.3658     375.7790   1414.09485     651.3658     375.7790
   1414.07959     647.6031     375.0259   1414.07959     647.6031     375.0259
   1414.06433     646.1911     374.0799   1414.06433     646.1911     374.0799
   1414.04907     642.1085     372.7086   1414.04907     642.1085     372.7086
   1414.03381     637.4373     371.2587   1414.03381     637.4373     371.2587
   1414.01855     634.3682     369.3261   1414.01855     634.3682     369.3261
   1414.00330     630.1088     368.3166   1414.00330     630.1088     368.3166
   1413.98804     626.5416     367.5515   1413.98804     626.5416     367.5515
   1413.97278     623.9048     365.8229   1413.97278     623.9048     365.8229
   1413.95752     620.1993     364.7027   1413.95752     620.1993     364.7027
   1413.94226     615.6201     363.1401   1413.94226     615.6201     363.1401
   1413.92700     612.5764     361.8680   1413.92700     612.5764     361.8680
   1413.91174     607.9402     360.4134   1413.91174     607.9402     360.4134
   1413.89648     605.8177     358.5974   1413.89648     605.8177     358.5974
   1413.88123     601.0820     357.6237   1413.88123     601.0820     357.6237
   1413.86597     597.4589     356.1668   1413.86597     597.4589     356.1668
   1413.85071     593.9258     354.1348   1413.85071     593.9258     354.1348
   1413.83545     590.4292     353.4998   1413.83545     590.4292     353.4998
   1413.82019     586.2701     351.9996   1413.82019     586.2701     351.9996
   1413.80493     583.7134     349.8859   1413.80493     583.7134     349.8859
   1413.78967     579.2633     348.3155   1413.78967     579.2633     348.3155
   1413.77441     576.9525     346.9128   1413.77441     576.9525     346.9128
   1413.75916     572.2019     346.0153   1413.75916     572.2019     346.0153
   1413.74390     569.2370     344.4007   1413.74390     569.2370     344.4007
   1413.72864     565.4903     342.4392   1413.72864     565.4903     342.4392
   1413.71338     561.4501     341.4184   1413.71338     561.4501     341.4184
   1413.69812     559.1206     339.6183   1413.69812     559.1206     339.6183
   1413.68286     554.1151     337.9987   1413.68286     554.1151     337.9987
   1413.66760     550.3344     336.2354   1413.66760     550.3344     336.2354
   1413.65234     547.4265     334.6270   1413.65234     547.4265     334.6270
   1413.63708     544.9274     333.0296   1413.63708     544.9274     333.0296
   1413.62183     539.5178     332.2816   1413.62183     539.5178     332.2816
   1413.60657     537.1416     330.5766   1413.60657     537.1416     330.5766
   1413.59131     533.9822     328.9416   1413.59131     533.9822     328.9416
   1413.57605     529.7307     326.9286   1413.57605     529.7307     326.9286
   1413.56079     527.6315     325.3542   1413.56079     527.6315     325.3542
   1413.54553     522.9824     323.9435   1413.54553     522.9824     323.9435
   1413.53027     520.1602     322.5495   1413.53027     520.1602     322.5495
   1413.51501     516.4167     320.8517   1413.51501     516.4167     320.8517
   1413.49976     513.0964     319.4953   1413.49976     513.0964     319.4953
   1413.48450     509.3108     318.0525   1413.48450     509.3108     318.0525
   1413.46924     506.0399     315.8989   1413.46924     506.0399     315.8989
   1413.45398     502.8471     314.5290   1413.45398     502.8471     314.5290
   1413.43872     500.0078     313.3636   1413.43872     500.0078     313.3636
   1413.42346     496.4100     311.7005   1413.42346     496.4100     311.7005
   1413.40820     493.3040     310.4575   1413.40820     493.3040     310.4575
   1413.39294     489.6084     309.2979   1413.39294     489.6084     309.2979
   1413.37769     486.4511     307.2908   1413.37769     486.4511     307.2908
   1413.36243     483.5686     305.7880   1413.36243     483.5686     305.7880
   1413.34717     480.1937     303.7488   1413.34717     480.1937     303.7488
   1413.33191     477.6442     302.6920   1413.33191     477.6442     302.6920
   1413.31665     474.2908     301.4229   1413.31665     474.2908     301.4229
   1413.30139     470.8706     299.5022   1413.30139     470.8706     299.5022
   1413.28613     468.3871     298.1538   1413.28613     468.3871     298.1538
   1413.27087     465.8323     296.7775   1413.27087     465.8323     296.7775
   1413.25562     462.6650     295.4284   1413.25562     462.6650     295.4284
   1413.24036     459.5731     293.8704   1413.24036     459.5731     293.8704
   1413.22510     456.9316     291.7653   1413.22510     456.9316     291.7653
   1413.20984     453.4444     290.8953   1413.20984     453.4444     290.8953
   1413.19458     451.0904     289.5389   1413.19458     451.0904     289.5389
   1413.17932     448.6243     288.2387   1413.17932     448.6243     288.2387
   1413.16406     446.2809     286.1594   1413.16406     446.2809     286.1594
   1413.14880     443.6461     284.8001   1413.14880     443.6461     284.8001
   1413.13354     440.3605     284.0645   1413.13354     440.3605     284.0645
   1413.11829     437.7791     282.3616   1413.11829     437.7791     282.3616
   1413.10303     435.9808     280.8766   1413.10303     435.9808     280.8766
   1413.08777     432.8701     279.4817   1413.08777     432.8701     279.4817
   1413.07251     430.5237     278.2038   1413.07251     430.5237     278.2038
   1413.05725     427.8994     276.6931   1413.05725     427.8994     276.6931
   1413.04199     425.0923     275.5830   1413.04199     425.0923     275.5830
   1413.02673     423.5070     274.0779   1413.02673     423.5070     274.0779
   1413.01147     420.7588     272.9289   1413.01147     420.7588     272.9289
   1412.99622     419.3544     271.6737   1412.99622     419.3544     271.6737
   1412.98096     416.8236     270.7504   1412.98096     416.8236     270.7504
   1412.96570     414.6346     269.5919   1412.96570     414.6346     269.5919
   1412.95044     413.3043     268.2955   1412.95044     413.3043     268.2955
   1412.93518     410.3161     266.9818   1412.93518     410.3161     266.9818
   1412.91992     408.5266     265.5933   1412.91992     408.5266     265.5933
   1412.90466     406.2695     264.7639   1412.90466     406.2695     264.7639
   1412.88940     404.0226     263.5634   1412.88940     404.0226     263.5634
   1412.87415     402.4562     262.2455   1412.87415     402.4562     262.2455
   1412.85889     401.0276     261.3056   1412.85889     401.0276     261.3056
   1412.84363     399.4247     260.0773   1412.84363     399.4247     260.0773
   1412.82837     397.7350     258.8502   1412.82837     397.7350     258.8502
   1412.81311     396.0475     258.0922   1412.81311     396.0475     258.0922
   1412.79785     394.2780     257.4381   1412.79785     394.2780     257.4381
   1412.78259     392.9247     256.3669   1412.78259     392.9247     256.3669
   1412.76733     391.2332     255.5250   1412.76733     391.2332     255.5250
   1412.75208     389.9750     254.1959   1412.75208     389.9750     254.1959
   1412.73682     388.3982     253.6003   1412.73682     388.3982     253.6003
   1412.72156     387.6075     252.3613   1412.72156     387.6075     252.3613
   1412.70630     386.0957     251.6819   1412.70630     386.0957     251.6819
   1412.69104     385.2646     250.6914   1412.69104     385.2646     250.6914
   1412.67578     383.8945     250.0728   1412.67578     383.8945     250.0728
   1412.66052     382.5594     249.5968   1412.66052     382.5594     249.5968
   1412.64526     381.6691     248.1939   1412.64526     381.6691     248.1939
   1412.63000     380.6758     248.6692   1412.63000     380.6758     248.6692
   1412.61475     380.3250     247.4140   1412.61475     380.3250     247.4140
   1412.59949     379.4099     246.8807   1412.59949     379.4099     246.8807
   1412.58423     378.2984     246.1534   1412.58423     378.2984     246.1534
   1412.56897     377.5346     245.8672   1412.56897     377.5346     245.8672
   1412.55371     377.2943     245.5383   1412.55371     377.2943     245.5383
   1412.53845     376.7362     245.0051   1412.53845     376.7362     245.0051
   1412.52319     375.9234     244.8844   1412.52319     375.9234     244.8844
   1412.50793     375.1733     243.7136   1412.50793     375.1733     243.7136
   1412.49268     375.1476     243.5874   1412.49268     375.1476     243.5874
   1412.47742     374.1804     243.6341   1412.47742     374.1804     243.6341
   1412.46216     374.3255     242.9734   1412.46216     374.3255     242.9734
   1412.44690     373.6748     242.6647   1412.44690     373.6748     242.6647
   1412.43164     373.6441     242.3317   1412.43164     373.6441     242.3317
   1412.41638     373.4785     242.3846   1412.41638     373.4785     242.3846
   1412.40112     372.7896     242.5758   1412.40112     372.7896     242.5758
   1412.38586     373.4663     242.2777   1412.38586     373.4663     242.2777
   1412.37061     372.7725     242.1533   1412.37061     372.7725     242.1533
   1412.35535     372.5886     242.4537   1412.35535     372.5886     242.4537
   1412.34009     373.2828     242.2171   1412.34009     373.2828     242.2171
   1412.32483     373.6546     242.7078   1412.32483     373.6546     242.7078
   1412.30957     373.9291     242.3624   1412.30957     373.9291     242.3624
   1412.29431     373.9596     242.4506   1412.29431     373.9596     242.4506
   1412.27905     374.7870     242.4383   1412.27905     374.7870     242.4383
   1412.26379     374.8312     243.2941   1412.26379     374.8312     243.2941
   1412.24854     375.3003     243.1174   1412.24854     375.3003     243.1174
   1412.23328     375.9932     243.6047   1412.23328     375.9932     243.6047
   1412.21802     376.7838     243.9471   1412.21802     376.7838     243.9471
   1412.20276     377.2025     244.6499   1412.20276     377.2025     244.6499