#     FILENAME=!Skynet_57528_lach-cc-86_20533_20932.cyb.fits
#     BASENAME=Skynet_57528_lach-cc-86_20533_20932
#     SRC_NAME=lach-cc-86
#     OBSERVER=ccmadison16_9505
#     DATE_OBS=2016-05-20T16:13:36.500
#        OBSID=20533
#      SCANNUM=20932
#          MJD=57528.6772
#          UTC=58505
#     SCANTYPE=track
#     DATAMODE=HIRES
#     TUNEFREQ=1420.0000
# Actual_FREQ1=1420.0000
# Actual_FREQ2=1420.0000
#    LO1Tuning=6870.000
#     RFFILTER=1355_1435
#        OBSBW=-15.6250
#        NCHAN=1024 
#        FOCUS=37.0709
#           RA=20:56:20.92
#          DEC=45:21:02.21
#      RA(hrs)=20.939100
#     DEC(deg)=45.350600
#    AZIM(deg)=307.225
#    ELEV(deg)=27.329
#     IFattens=11.00, 10.00
#      WARNING=None
#    TCAL_XL1=7.9635
#    TCAL_YR1=9.1340
#    TCAL_XL2=7.9635
#    TCAL_YR2=9.1340
#     TRX_XL1=11.7060
#     TRX_YR1=11.7060
#     TRX_XL2=11.7060
#     TRX_YR2=11.7060
#        TAVE=1.0000
#Freq1(MHz)          XL1          YR1  Freq2(MHz)          XL2          YR2 

   1427.81250     317.6065     261.5774   1427.81250     317.6065     261.5774
   1427.79724     318.4756     262.4108   1427.79724     318.4756     262.4108
   1427.78198     319.1545     262.5396   1427.78198     319.1545     262.5396
   1427.76672     319.1165     263.5233   1427.76672     319.1165     263.5233
   1427.75146     319.7168     263.8497   1427.75146     319.7168     263.8497
   1427.73621     320.4402     264.8178   1427.73621     320.4402     264.8178
   1427.72095     321.2943     265.6902   1427.72095     321.2943     265.6902
   1427.70569     322.4443     266.3528   1427.70569     322.4443     266.3528
   1427.69043     323.0006     266.5621   1427.69043     323.0006     266.5621
   1427.67517     323.8195     267.6806   1427.67517     323.8195     267.6806
   1427.65991     324.6771     268.2985   1427.65991     324.6771     268.2985
   1427.64465     326.1002     269.4608   1427.64465     326.1002     269.4608
   1427.62939     327.1750     270.5167   1427.62939     327.1750     270.5167
   1427.61414     327.8493     271.6102   1427.61414     327.8493     271.6102
   1427.59888     329.2028     272.7580   1427.59888     329.2028     272.7580
   1427.58362     330.7508     273.4774   1427.58362     330.7508     273.4774
   1427.56836     331.3190     274.6175   1427.56836     331.3190     274.6175
   1427.55310     332.7554     276.1270   1427.55310     332.7554     276.1270
   1427.53784     334.2507     276.9467   1427.53784     334.2507     276.9467
   1427.52258     334.9702     277.7942   1427.52258     334.9702     277.7942
   1427.50732     336.8882     280.0375   1427.50732     336.8882     280.0375
   1427.49207     338.6281     280.6526   1427.49207     338.6281     280.6526
   1427.47681     339.2916     282.0576   1427.47681     339.2916     282.0576
   1427.46155     341.4724     283.1285   1427.46155     341.4724     283.1285
   1427.44629     342.4992     285.2401   1427.44629     342.4992     285.2401
   1427.43103     344.6835     285.7769   1427.43103     344.6835     285.7769
   1427.41577     346.0321     287.8172   1427.41577     346.0321     287.8172
   1427.40051     347.8105     289.2044   1427.40051     347.8105     289.2044
   1427.38525     349.6710     290.4050   1427.38525     349.6710     290.4050
   1427.37000     350.7993     292.3692   1427.37000     350.7993     292.3692
   1427.35474     352.5788     293.5201   1427.35474     352.5788     293.5201
   1427.33948     354.3398     295.0700   1427.33948     354.3398     295.0700
   1427.32422     356.7368     296.9930   1427.32422     356.7368     296.9930
   1427.30896     358.0625     298.3069   1427.30896     358.0625     298.3069
   1427.29370     360.1053     300.4690   1427.29370     360.1053     300.4690
   1427.27844     362.1159     302.0449   1427.27844     362.1159     302.0449
   1427.26318     364.3792     303.6097   1427.26318     364.3792     303.6097
   1427.24792     365.7368     305.5577   1427.24792     365.7368     305.5577
   1427.23267     368.3276     306.9538   1427.23267     368.3276     306.9538
   1427.21741     370.0977     308.8480   1427.21741     370.0977     308.8480
   1427.20215     372.4646     311.0256   1427.20215     372.4646     311.0256
   1427.18689     374.3850     313.2055   1427.18689     374.3850     313.2055
   1427.17163     375.8409     314.6458   1427.17163     375.8409     314.6458
   1427.15637     378.8168     316.2060   1427.15637     378.8168     316.2060
   1427.14111     381.3032     318.2560   1427.14111     381.3032     318.2560
   1427.12585     383.2889     320.5986   1427.12585     383.2889     320.5986
   1427.11060     385.0323     322.1834   1427.11060     385.0323     322.1834
   1427.09534     387.3925     324.8788   1427.09534     387.3925     324.8788
   1427.08008     389.7243     326.5881   1427.08008     389.7243     326.5881
   1427.06482     392.3990     328.5174   1427.06482     392.3990     328.5174
   1427.04956     394.3470     330.4745   1427.04956     394.3470     330.4745
   1427.03430     397.0829     332.7005   1427.03430     397.0829     332.7005
   1427.01904     399.3535     334.4388   1427.01904     399.3535     334.4388
   1427.00378     402.1103     336.5463   1427.00378     402.1103     336.5463
   1426.98853     403.9805     339.2245   1426.98853     403.9805     339.2245
   1426.97327     406.0050     340.3806   1426.97327     406.0050     340.3806
   1426.95801     408.8674     343.0403   1426.95801     408.8674     343.0403
   1426.94275     411.3922     345.0399   1426.94275     411.3922     345.0399
   1426.92749     414.1455     346.6169   1426.92749     414.1455     346.6169
   1426.91223     416.1480     348.8975   1426.91223     416.1480     348.8975
   1426.89697     418.2318     351.5725   1426.89697     418.2318     351.5725
   1426.88171     421.0810     353.9344   1426.88171     421.0810     353.9344
   1426.86646     423.6019     355.6566   1426.86646     423.6019     355.6566
   1426.85120     426.0911     357.7480   1426.85120     426.0911     357.7480
   1426.83594     429.2652     359.9107   1426.83594     429.2652     359.9107
   1426.82068     431.5359     363.0736   1426.82068     431.5359     363.0736
   1426.80542     433.9952     364.8281   1426.80542     433.9952     364.8281
   1426.79016     436.4450     366.6016   1426.79016     436.4450     366.6016
   1426.77490     439.0181     369.4510   1426.77490     439.0181     369.4510
   1426.75964     441.7837     371.9688   1426.75964     441.7837     371.9688
   1426.74438     444.1471     373.8654   1426.74438     444.1471     373.8654
   1426.72913     446.8304     375.5036   1426.72913     446.8304     375.5036
   1426.71387     449.5519     378.2430   1426.71387     449.5519     378.2430
   1426.69861     451.7408     380.2596   1426.69861     451.7408     380.2596
   1426.68335     454.6048     382.1555   1426.68335     454.6048     382.1555
   1426.66809     457.2346     384.8310   1426.66809     457.2346     384.8310
   1426.65283     460.1891     386.9786   1426.65283     460.1891     386.9786
   1426.63757     463.2228     389.4306   1426.63757     463.2228     389.4306
   1426.62231     467.2106     392.0607   1426.62231     467.2106     392.0607
   1426.60706     467.9002     393.6249   1426.60706     467.9002     393.6249
   1426.59180     470.1704     395.1741   1426.59180     470.1704     395.1741
   1426.57654     472.7156     398.2502   1426.57654     472.7156     398.2502
   1426.56128     475.7661     399.0803   1426.56128     475.7661     399.0803
   1426.54602     478.0356     402.6136   1426.54602     478.0356     402.6136
   1426.53076     480.5181     404.2676   1426.53076     480.5181     404.2676
   1426.51550     483.4848     406.7962   1426.51550     483.4848     406.7962
   1426.50024     485.1046     408.9460   1426.50024     485.1046     408.9460
   1426.48499     488.1099     410.9450   1426.48499     488.1099     410.9450
   1426.46973     491.2428     413.3033   1426.46973     491.2428     413.3033
   1426.45447     493.1697     415.2729   1426.45447     493.1697     415.2729
   1426.43921     494.8417     417.9544   1426.43921     494.8417     417.9544
   1426.42395     498.2153     419.2214   1426.42395     498.2153     419.2214
   1426.40869     500.4723     421.2396   1426.40869     500.4723     421.2396
   1426.39343     503.5900     424.4205   1426.39343     503.5900     424.4205
   1426.37817     506.0142     425.5653   1426.37817     506.0142     425.5653
   1426.36292     507.8853     427.9788   1426.36292     507.8853     427.9788
   1426.34766     510.1099     429.9139   1426.34766     510.1099     429.9139
   1426.33240     512.8510     431.7427   1426.33240     512.8510     431.7427
   1426.31714     515.7804     434.0677   1426.31714     515.7804     434.0677
   1426.30188     518.0587     435.7949   1426.30188     518.0587     435.7949
   1426.28662     519.9818     438.4240   1426.28662     519.9818     438.4240
   1426.27136     522.5476     440.6403   1426.27136     522.5476     440.6403
   1426.25610     525.1269     442.0327   1426.25610     525.1269     442.0327
   1426.24084     527.8411     443.9694   1426.24084     527.8411     443.9694
   1426.22559     529.4274     446.1532   1426.22559     529.4274     446.1532
   1426.21033     531.4502     447.6308   1426.21033     531.4502     447.6308
   1426.19507     534.9081     450.0238   1426.19507     534.9081     450.0238
   1426.17981     536.6445     451.6979   1426.17981     536.6445     451.6979
   1426.16455     538.7527     453.2191   1426.16455     538.7527     453.2191
   1426.14929     540.6317     455.5462   1426.14929     540.6317     455.5462
   1426.13403     543.0281     458.1642   1426.13403     543.0281     458.1642
   1426.11877     545.0596     458.6392   1426.11877     545.0596     458.6392
   1426.10352     547.6675     461.2097   1426.10352     547.6675     461.2097
   1426.08826     549.2392     462.7448   1426.08826     549.2392     462.7448
   1426.07300     551.8384     464.7989   1426.07300     551.8384     464.7989
   1426.05774     553.4106     466.9703   1426.05774     553.4106     466.9703
   1426.04248     555.9403     469.2591   1426.04248     555.9403     469.2591
   1426.02722     557.2985     469.9372   1426.02722     557.2985     469.9372
   1426.01196     560.0671     472.4013   1426.01196     560.0671     472.4013
   1425.99670     562.6930     473.2560   1425.99670     562.6930     473.2560
   1425.98145     564.9406     475.1819   1425.98145     564.9406     475.1819
   1425.96619     566.8815     477.0059   1425.96619     566.8815     477.0059
   1425.95093     567.0368     479.1902   1425.95093     567.0368     479.1902
   1425.93567     570.0527     480.0582   1425.93567     570.0527     480.0582
   1425.92041     571.2466     481.9862   1425.92041     571.2466     481.9862
   1425.90515     573.5363     484.0485   1425.90515     573.5363     484.0485
   1425.88989     575.2514     484.8964   1425.88989     575.2514     484.8964
   1425.87463     576.7241     486.5668   1425.87463     576.7241     486.5668
   1425.85938     578.4061     488.4915   1425.85938     578.4061     488.4915
   1425.84412     580.8698     490.2634   1425.84412     580.8698     490.2634
   1425.82886     582.7614     491.2674   1425.82886     582.7614     491.2674
   1425.81360     584.4838     492.6735   1425.81360     584.4838     492.6735
   1425.79834     585.9283     494.5345   1425.79834     585.9283     494.5345
   1425.78308     586.9567     496.4174   1425.78308     586.9567     496.4174
   1425.76782     588.5869     497.9642   1425.76782     588.5869     497.9642
   1425.75256     590.5559     499.6946   1425.75256     590.5559     499.6946
   1425.73730     592.2923     500.4850   1425.73730     592.2923     500.4850
   1425.72205     594.6396     501.9823   1425.72205     594.6396     501.9823
   1425.70679     595.2462     504.1928   1425.70679     595.2462     504.1928
   1425.69153     596.6725     505.4322   1425.69153     596.6725     505.4322
   1425.67627     598.6876     506.8697   1425.67627     598.6876     506.8697
   1425.66101     599.2590     507.8545   1425.66101     599.2590     507.8545
   1425.64575     601.5494     510.0354   1425.64575     601.5494     510.0354
   1425.63049     602.6407     510.2380   1425.63049     602.6407     510.2380
   1425.61523     603.9437     511.2672   1425.61523     603.9437     511.2672
   1425.59998     604.9532     513.5406   1425.59998     604.9532     513.5406
   1425.58472     605.7374     514.2245   1425.58472     605.7374     514.2245
   1425.56946     607.7319     516.2636   1425.56946     607.7319     516.2636
   1425.55420     608.7192     517.5890   1425.55420     608.7192     517.5890
   1425.53894     609.7740     517.7065   1425.53894     609.7740     517.7065
   1425.52368     610.5088     519.9440   1425.52368     610.5088     519.9440
   1425.50842     612.1698     521.3442   1425.50842     612.1698     521.3442
   1425.49316     613.6525     522.8022   1425.49316     613.6525     522.8022
   1425.47791     615.7737     523.5125   1425.47791     615.7737     523.5125
   1425.46265     616.9382     524.5803   1425.46265     616.9382     524.5803
   1425.44739     617.7047     526.3468   1425.44739     617.7047     526.3468
   1425.43213     618.6849     526.7678   1425.43213     618.6849     526.7678
   1425.41687     619.7065     528.3486   1425.41687     619.7065     528.3486
   1425.40161     619.9919     529.7294   1425.40161     619.9919     529.7294
   1425.38635     621.7327     530.9391   1425.38635     621.7327     530.9391
   1425.37109     621.8638     532.0066   1425.37109     621.8638     532.0066
   1425.35583     623.3683     532.5953   1425.35583     623.3683     532.5953
   1425.34058     624.2607     533.6395   1425.34058     624.2607     533.6395
   1425.32532     625.0231     535.4451   1425.32532     625.0231     535.4451
   1425.31006     626.8404     536.7950   1425.31006     626.8404     536.7950
   1425.29480     626.3904     538.0530   1425.29480     626.3904     538.0530
   1425.27954     627.3823     538.6960   1425.27954     627.3823     538.6960
   1425.26428     629.0132     539.9682   1425.26428     629.0132     539.9682
   1425.24902     628.9427     540.5004   1425.24902     628.9427     540.5004
   1425.23376     630.0148     541.8660   1425.23376     630.0148     541.8660
   1425.21851     631.1848     542.7728   1425.21851     631.1848     542.7728
   1425.20325     631.8456     543.6680   1425.20325     631.8456     543.6680
   1425.18799     631.8198     544.5186   1425.18799     631.8198     544.5186
   1425.17273     633.8922     544.5755   1425.17273     633.8922     544.5755
   1425.15747     633.3848     545.8362   1425.15747     633.3848     545.8362
   1425.14221     633.4467     546.4565   1425.14221     633.4467     546.4565
   1425.12695     634.5173     548.1524   1425.12695     634.5173     548.1524
   1425.11169     634.3956     548.9026   1425.11169     634.3956     548.9026
   1425.09644     634.9981     550.2047   1425.09644     634.9981     550.2047
   1425.08118     635.6354     551.0602   1425.08118     635.6354     551.0602
   1425.06592     636.9039     551.4745   1425.06592     636.9039     551.4745
   1425.05066     637.1826     552.9869   1425.05066     637.1826     552.9869
   1425.03540     638.2396     554.0702   1425.03540     638.2396     554.0702
   1425.02014     638.2631     555.1897   1425.02014     638.2631     555.1897
   1425.00488     638.3538     555.1873   1425.00488     638.3538     555.1873
   1424.98962     639.1285     555.6310   1424.98962     639.1285     555.6310
   1424.97437     639.1465     557.1777   1424.97437     639.1465     557.1777
   1424.95911     640.0425     557.6696   1424.95911     640.0425     557.6696
   1424.94385     641.1865     558.7523   1424.94385     641.1865     558.7523
   1424.92859     641.3915     559.7391   1424.92859     641.3915     559.7391
   1424.91333     642.4036     560.9963   1424.91333     642.4036     560.9963
   1424.89807     642.8679     561.0839   1424.89807     642.8679     561.0839
   1424.88281     643.7301     563.3229   1424.88281     643.7301     563.3229
   1424.86755     642.7139     563.0388   1424.86755     642.7139     563.0388
   1424.85229     642.6982     563.8857   1424.85229     642.6982     563.8857
   1424.83704     642.8715     565.6692   1424.83704     642.8715     565.6692
   1424.82178     642.9122     564.8839   1424.82178     642.9122     564.8839
   1424.80652     643.0765     565.7196   1424.80652     643.0765     565.7196
   1424.79126     643.0938     565.8317   1424.79126     643.0938     565.8317
   1424.77600     643.1089     566.1935   1424.77600     643.1089     566.1935
   1424.76074     643.8273     567.5182   1424.76074     643.8273     567.5182
   1424.74548     643.4666     568.3035   1424.74548     643.4666     568.3035
   1424.73022     643.9066     568.8353   1424.73022     643.9066     568.8353
   1424.71497     644.3937     569.5963   1424.71497     644.3937     569.5963
   1424.69971     643.8983     571.2215   1424.69971     643.8983     571.2215
   1424.68445     643.9146     571.9485   1424.68445     643.9146     571.9485
   1424.66919     644.7333     571.3620   1424.66919     644.7333     571.3620
   1424.65393     644.9941     572.3769   1424.65393     644.9941     572.3769
   1424.63867     645.3951     572.3248   1424.63867     645.3951     572.3248
   1424.62341     645.4846     573.9739   1424.62341     645.4846     573.9739
   1424.60815     644.7238     573.6185   1424.60815     644.7238     573.6185
   1424.59290     644.8101     575.0567   1424.59290     644.8101     575.0567
   1424.57764     645.4543     575.4095   1424.57764     645.4543     575.4095
   1424.56238     645.5034     576.6873   1424.56238     645.5034     576.6873
   1424.54712     646.1952     576.0150   1424.54712     646.1952     576.0150
   1424.53186     645.5770     576.5470   1424.53186     645.5770     576.5470
   1424.51660     644.5288     577.7190   1424.51660     644.5288     577.7190
   1424.50134     645.3333     579.0419   1424.50134     645.3333     579.0419
   1424.48608     645.9290     579.0587   1424.48608     645.9290     579.0587
   1424.47083     645.8434     580.0229   1424.47083     645.8434     580.0229
   1424.45557     645.5594     580.2005   1424.45557     645.5594     580.2005
   1424.44031     645.8870     580.8981   1424.44031     645.8870     580.8981
   1424.42505     645.4600     582.1908   1424.42505     645.4600     582.1908
   1424.40979     646.8102     582.2890   1424.40979     646.8102     582.2890
   1424.39453     645.9071     582.6062   1424.39453     645.9071     582.6062
   1424.37927     645.6616     582.1947   1424.37927     645.6616     582.1947
   1424.36401     644.9349     583.2543   1424.36401     644.9349     583.2543
   1424.34875     644.6653     583.6450   1424.34875     644.6653     583.6450
   1424.33350     644.9735     584.0678   1424.33350     644.9735     584.0678
   1424.31824     644.9050     585.2236   1424.31824     644.9050     585.2236
   1424.30298     645.9052     584.5776   1424.30298     645.9052     584.5776
   1424.28772     645.6188     585.4756   1424.28772     645.6188     585.4756
   1424.27246     645.0403     585.7031   1424.27246     645.0403     585.7031
   1424.25720     645.2588     586.4669   1424.25720     645.2588     586.4669
   1424.24194     644.4260     585.6734   1424.24194     644.4260     585.6734
   1424.22668     645.3864     586.2800   1424.22668     645.3864     586.2800
   1424.21143     644.9134     586.7253   1424.21143     644.9134     586.7253
   1424.19617     644.9822     587.8880   1424.19617     644.9822     587.8880
   1424.18091     644.6053     588.6967   1424.18091     644.6053     588.6967
   1424.16565     644.3013     589.2786   1424.16565     644.3013     589.2786
   1424.15039     644.9077     589.0886   1424.15039     644.9077     589.0886
   1424.13513     643.2272     589.3220   1424.13513     643.2272     589.3220
   1424.11987     643.4857     589.2507   1424.11987     643.4857     589.2507
   1424.10461     644.1948     590.3021   1424.10461     644.1948     590.3021
   1424.08936     644.0667     592.0577   1424.08936     644.0667     592.0577
   1424.07410     644.5705     592.3431   1424.07410     644.5705     592.3431
   1424.05884     643.2363     590.8992   1424.05884     643.2363     590.8992
   1424.04358     644.2256     591.9531   1424.04358     644.2256     591.9531
   1424.02832     643.8276     593.2757   1424.02832     643.8276     593.2757
   1424.01306     644.1451     592.6752   1424.01306     644.1451     592.6752
   1423.99780     642.4305     592.8413   1423.99780     642.4305     592.8413
   1423.98254     642.3019     592.4518   1423.98254     642.3019     592.4518
   1423.96729     643.4097     592.6123   1423.96729     643.4097     592.6123
   1423.95203     640.9319     593.0409   1423.95203     640.9319     593.0409
   1423.93677     641.6981     593.3452   1423.93677     641.6981     593.3452
   1423.92151     642.9625     593.7812   1423.92151     642.9625     593.7812
   1423.90625     641.7062     594.2841   1423.90625     641.7062     594.2841
   1423.89099     641.5106     594.0811   1423.89099     641.5106     594.0811
   1423.87573     641.4200     595.2994   1423.87573     641.4200     595.2994
   1423.86047     640.6266     595.0959   1423.86047     640.6266     595.0959
   1423.84521     641.3764     594.7768   1423.84521     641.3764     594.7768
   1423.82996     641.2732     595.4701   1423.82996     641.2732     595.4701
   1423.81470     642.1562     594.7100   1423.81470     642.1562     594.7100
   1423.79944     641.1636     595.1932   1423.79944     641.1636     595.1932
   1423.78418     640.8759     596.0156   1423.78418     640.8759     596.0156
   1423.76892     640.9777     595.9091   1423.76892     640.9777     595.9091
   1423.75366     641.7341     597.0621   1423.75366     641.7341     597.0621
   1423.73840     640.0423     596.7181   1423.73840     640.0423     596.7181
   1423.72314     640.5903     595.7326   1423.72314     640.5903     595.7326
   1423.70789     640.1876     597.0361   1423.70789     640.1876     597.0361
   1423.69263     639.3627     596.8492   1423.69263     639.3627     596.8492
   1423.67737     638.9920     596.4431   1423.67737     638.9920     596.4431
   1423.66211     639.7134     595.9046   1423.66211     639.7134     595.9046
   1423.64685     639.0355     595.9972   1423.64685     639.0355     595.9972
   1423.63159     639.7413     597.2603   1423.63159     639.7413     597.2603
   1423.61633     639.0555     597.4592   1423.61633     639.0555     597.4592
   1423.60107     639.4317     596.7996   1423.60107     639.4317     596.7996
   1423.58582     639.7943     597.6054   1423.58582     639.7943     597.6054
   1423.57056     638.3621     596.4094   1423.57056     638.3621     596.4094
   1423.55530     638.1768     597.0844   1423.55530     638.1768     597.0844
   1423.54004     636.7234     596.9147   1423.54004     636.7234     596.9147
   1423.52478     637.5465     596.2185   1423.52478     637.5465     596.2185
   1423.50952     638.1561     596.4054   1423.50952     638.1561     596.4054
   1423.49426     636.4758     595.2545   1423.49426     636.4758     595.2545
   1423.47900     636.6190     596.8731   1423.47900     636.6190     596.8731
   1423.46375     638.1152     596.7834   1423.46375     638.1152     596.7834
   1423.44849     636.9528     596.0148   1423.44849     636.9528     596.0148
   1423.43323     636.4936     596.2804   1423.43323     636.4936     596.2804
   1423.41797     636.9583     595.9623   1423.41797     636.9583     595.9623
   1423.40271     635.9537     596.1979   1423.40271     635.9537     596.1979
   1423.38745     635.9099     595.5119   1423.38745     635.9099     595.5119
   1423.37219     636.9313     595.7358   1423.37219     636.9313     595.7358
   1423.35693     636.4820     595.7349   1423.35693     636.4820     595.7349
   1423.34167     635.6812     595.6826   1423.34167     635.6812     595.6826
   1423.32642     635.0056     595.3521   1423.32642     635.0056     595.3521
   1423.31116     634.4703     595.4810   1423.31116     634.4703     595.4810
   1423.29590     635.3516     595.2048   1423.29590     635.3516     595.2048
   1423.28064     635.6909     594.8646   1423.28064     635.6909     594.8646
   1423.26538     634.9341     594.7416   1423.26538     634.9341     594.7416
   1423.25012     634.6371     594.0645   1423.25012     634.6371     594.0645
   1423.23486     634.4922     594.4503   1423.23486     634.4922     594.4503
   1423.21960     634.6573     593.8832   1423.21960     634.6573     593.8832
   1423.20435     633.6501     592.8873   1423.20435     633.6501     592.8873
   1423.18909     634.3638     592.9863   1423.18909     634.3638     592.9863
   1423.17383     633.5249     592.5445   1423.17383     633.5249     592.5445
   1423.15857     633.5554     592.6348   1423.15857     633.5554     592.6348
   1423.14331     633.4794     592.5139   1423.14331     633.4794     592.5139
   1423.12805     633.2999     591.0606   1423.12805     633.2999     591.0606
   1423.11279     633.7821     590.9036   1423.11279     633.7821     590.9036
   1423.09753     633.3599     590.7725   1423.09753     633.3599     590.7725
   1423.08228     633.4160     590.8456   1423.08228     633.4160     590.8456
   1423.06702     632.6738     589.8069   1423.06702     632.6738     589.8069
   1423.05176     632.6290     589.1625   1423.05176     632.6290     589.1625
   1423.03650     632.3419     588.9438   1423.03650     632.3419     588.9438
   1423.02124     631.3395     587.8178   1423.02124     631.3395     587.8178
   1423.00598     631.7654     587.9096   1423.00598     631.7654     587.9096
   1422.99072     631.8136     586.5427   1422.99072     631.8136     586.5427
   1422.97546     631.2821     586.9998   1422.97546     631.2821     586.9998
   1422.96021     631.5200     585.9452   1422.96021     631.5200     585.9452
   1422.94495     631.7972     585.9362   1422.94495     631.7972     585.9362
   1422.92969     631.3431     584.8693   1422.92969     631.3431     584.8693
   1422.91443     629.4771     584.9916   1422.91443     629.4771     584.9916
   1422.89917     630.1058     584.2266   1422.89917     630.1058     584.2266
   1422.88391     629.1927     583.3375   1422.88391     629.1927     583.3375
   1422.86865     631.2494     582.1090   1422.86865     631.2494     582.1090
   1422.85339     630.4882     582.1155   1422.85339     630.4882     582.1155
   1422.83813     629.8826     580.7429   1422.83813     629.8826     580.7429
   1422.82288     628.7331     580.6076   1422.82288     628.7331     580.6076
   1422.80762     629.2887     580.6923   1422.80762     629.2887     580.6923
   1422.79236     629.0167     579.7925   1422.79236     629.0167     579.7925
   1422.77710     629.3947     578.6453   1422.77710     629.3947     578.6453
   1422.76184     628.8956     577.5322   1422.76184     628.8956     577.5322
   1422.74658     628.9604     578.3608   1422.74658     628.9604     578.3608
   1422.73132     628.2257     576.6440   1422.73132     628.2257     576.6440
   1422.71606     627.7708     575.1381   1422.71606     627.7708     575.1381
   1422.70081     627.6345     575.0563   1422.70081     627.6345     575.0563
   1422.68555     628.1257     574.9639   1422.68555     628.1257     574.9639
   1422.67029     627.6856     572.8066   1422.67029     627.6856     572.8066
   1422.65503     628.3712     572.7541   1422.65503     628.3712     572.7541
   1422.63977     627.2107     572.3491   1422.63977     627.2107     572.3491
   1422.62451     626.8859     570.2947   1422.62451     626.8859     570.2947
   1422.60925     627.1498     570.8214   1422.60925     627.1498     570.8214
   1422.59399     627.6520     569.9787   1422.59399     627.6520     569.9787
   1422.57874     626.8340     568.0223   1422.57874     626.8340     568.0223
   1422.56348     626.6948     566.6338   1422.56348     626.6948     566.6338
   1422.54822     626.5097     566.0320   1422.54822     626.5097     566.0320
   1422.53296     625.9140     566.1253   1422.53296     625.9140     566.1253
   1422.51770     625.8500     565.0053   1422.51770     625.8500     565.0053
   1422.50244     625.7002     563.3483   1422.50244     625.7002     563.3483
   1422.48718     625.4729     562.8883   1422.48718     625.4729     562.8883
   1422.47192     624.6913     562.5333   1422.47192     624.6913     562.5333
   1422.45667     625.7712     561.3997   1422.45667     625.7712     561.3997
   1422.44141     624.4554     559.9269   1422.44141     624.4554     559.9269
   1422.42615     625.5411     558.6758   1422.42615     625.5411     558.6758
   1422.41089     624.5107     558.3880   1422.41089     624.5107     558.3880
   1422.39563     624.3386     557.8367   1422.39563     624.3386     557.8367
   1422.38037     623.7070     555.5679   1422.38037     623.7070     555.5679
   1422.36511     623.9412     555.2005   1422.36511     623.9412     555.2005
   1422.34985     623.7624     553.4950   1422.34985     623.7624     553.4950
   1422.33459     623.0744     553.3108   1422.33459     623.0744     553.3108
   1422.31934     622.8979     551.2278   1422.31934     622.8979     551.2278
   1422.30408     624.0131     550.9364   1422.30408     624.0131     550.9364
   1422.28882     623.3939     550.5332   1422.28882     623.3939     550.5332
   1422.27356     623.6823     549.1614   1422.27356     623.6823     549.1614
   1422.25830     622.7719     547.5564   1422.25830     622.7719     547.5564
   1422.24304     621.9832     547.5334   1422.24304     621.9832     547.5334
   1422.22778     622.9506     546.4424   1422.22778     622.9506     546.4424
   1422.21252     622.4651     543.4827   1422.21252     622.4651     543.4827
   1422.19727     622.3780     543.0474   1422.19727     622.3780     543.0474
   1422.18201     621.5721     542.4573   1422.18201     621.5721     542.4573
   1422.16675     622.2127     540.2205   1422.16675     622.2127     540.2205
   1422.15149     621.9089     539.9561   1422.15149     621.9089     539.9561
   1422.13623     621.6749     539.0717   1422.13623     621.6749     539.0717
   1422.12097     620.8548     538.3841   1422.12097     620.8548     538.3841
   1422.10571     620.1089     536.7385   1422.10571     620.1089     536.7385
   1422.09045     621.0723     536.4028   1422.09045     621.0723     536.4028
   1422.07520     620.9904     534.5182   1422.07520     620.9904     534.5182
   1422.05994     620.5069     533.2084   1422.05994     620.5069     533.2084
   1422.04468     620.3796     531.0545   1422.04468     620.3796     531.0545
   1422.02942     620.2405     530.3952   1422.02942     620.2405     530.3952
   1422.01416     619.3459     529.3806   1422.01416     619.3459     529.3806
   1421.99890     620.5729     528.4162   1421.99890     620.5729     528.4162
   1421.98364     619.8977     527.9655   1421.98364     619.8977     527.9655
   1421.96838     619.8984     526.2847   1421.96838     619.8984     526.2847
   1421.95312     619.4507     525.1445   1421.95312     619.4507     525.1445
   1421.93787     619.5292     523.5604   1421.93787     619.5292     523.5604
   1421.92261     619.7123     521.3271   1421.92261     619.7123     521.3271
   1421.90735     619.3700     521.3580   1421.90735     619.3700     521.3580
   1421.89209     619.0587     520.3273   1421.89209     619.0587     520.3273
   1421.87683     617.6641     519.3452   1421.87683     617.6641     519.3452
   1421.86157     618.5818     518.1950   1421.86157     618.5818     518.1950
   1421.84631     617.9991     515.6280   1421.84631     617.9991     515.6280
   1421.83105     619.0209     515.1832   1421.83105     619.0209     515.1832
   1421.81580     618.1346     513.9257   1421.81580     618.1346     513.9257
   1421.80054     617.8558     512.6177   1421.80054     617.8558     512.6177
   1421.78528     617.4020     511.4784   1421.78528     617.4020     511.4784
   1421.77002     617.1063     510.6447   1421.77002     617.1063     510.6447
   1421.75476     617.4849     509.7349   1421.75476     617.4849     509.7349
   1421.73950     616.9045     508.5717   1421.73950     616.9045     508.5717
   1421.72424     616.3943     506.6011   1421.72424     616.3943     506.6011
   1421.70898     616.9943     505.4861   1421.70898     616.9943     505.4861
   1421.69373     616.5735     504.5648   1421.69373     616.5735     504.5648
   1421.67847     615.9957     504.1950   1421.67847     615.9957     504.1950
   1421.66321     616.7087     501.6915   1421.66321     616.7087     501.6915
   1421.64795     616.2838     500.4930   1421.64795     616.2838     500.4930
   1421.63269     615.5933     499.4197   1421.63269     615.5933     499.4197
   1421.61743     617.1909     498.0393   1421.61743     617.1909     498.0393
   1421.60217     616.1581     496.4596   1421.60217     616.1581     496.4596
   1421.58691     615.4020     496.0469   1421.58691     615.4020     496.0469
   1421.57166     615.4871     494.5921   1421.57166     615.4871     494.5921
   1421.55640     616.0048     492.5033   1421.55640     616.0048     492.5033
   1421.54114     615.4966     491.5499   1421.54114     615.4966     491.5499
   1421.52588     615.6856     490.7824   1421.52588     615.6856     490.7824
   1421.51062     615.3022     489.0125   1421.51062     615.3022     489.0125
   1421.49536     615.8306     488.7374   1421.49536     615.8306     488.7374
   1421.48010     615.1401     487.6823   1421.48010     615.1401     487.6823
   1421.46484     614.1186     485.9370   1421.46484     614.1186     485.9370
   1421.44958     614.5145     484.2766   1421.44958     614.5145     484.2766
   1421.43433     614.4332     483.7555   1421.43433     614.4332     483.7555
   1421.41907     615.1176     482.3992   1421.41907     615.1176     482.3992
   1421.40381     614.0807     481.4003   1421.40381     614.0807     481.4003
   1421.38855     614.3090     480.2285   1421.38855     614.3090     480.2285
   1421.37329     613.6736     479.1514   1421.37329     613.6736     479.1514
   1421.35803     614.4669     477.5815   1421.35803     614.4669     477.5815
   1421.34277     613.6902     475.8989   1421.34277     613.6902     475.8989
   1421.32751     613.6283     474.5678   1421.32751     613.6283     474.5678
   1421.31226     613.6691     473.3052   1421.31226     613.6691     473.3052
   1421.29700     612.7267     472.8609   1421.29700     612.7267     472.8609
   1421.28174     614.1614     472.5527   1421.28174     614.1614     472.5527
   1421.26648     613.5980     471.3672   1421.26648     613.5980     471.3672
   1421.25122     615.5787     469.6546   1421.25122     615.5787     469.6546
   1421.23596     613.9223     469.9055   1421.23596     613.9223     469.9055
   1421.22070     615.5812     468.1939   1421.22070     615.5812     468.1939
   1421.20544     617.3079     468.8781   1421.20544     617.3079     468.8781
   1421.19019     618.5720     468.5162   1421.19019     618.5720     468.5162
   1421.17493     620.4430     468.3113   1421.17493     620.4430     468.3113
   1421.15967     620.7208     468.3494   1421.15967     620.7208     468.3494
   1421.14441     623.2852     468.5714   1421.14441     623.2852     468.5714
   1421.12915     624.9039     468.5192   1421.12915     624.9039     468.5192
   1421.11389     627.8874     470.1781   1421.11389     627.8874     470.1781
   1421.09863     631.7298     473.0798   1421.09863     631.7298     473.0798
   1421.08337     638.6547     475.6236   1421.08337     638.6547     475.6236
   1421.06812     647.1547     481.1790   1421.06812     647.1547     481.1790
   1421.05286     659.0613     488.9766   1421.05286     659.0613     488.9766
   1421.03760     678.6580     500.5067   1421.03760     678.6580     500.5067
   1421.02234     709.8278     521.3618   1421.02234     709.8278     521.3618
   1421.00708     753.2594     551.5818   1421.00708     753.2594     551.5818
   1420.99182     816.2192     596.4830   1420.99182     816.2192     596.4830
   1420.97656     896.1532     651.8029   1420.97656     896.1532     651.8029
   1420.96130     979.2480     709.2064   1420.96130     979.2480     709.2064
   1420.94604    1076.0389     776.1194   1420.94604    1076.0389     776.1194
   1420.93079    1267.6194     910.2977   1420.93079    1267.6194     910.2977
   1420.91553    1376.7670     987.7311   1420.91553    1376.7670     987.7311
   1420.90027    1402.6385    1001.0865   1420.90027    1402.6385    1001.0865
   1420.88501    1417.0016    1008.1548   1420.88501    1417.0016    1008.1548
   1420.86975    1332.5354     948.8358   1420.86975    1332.5354     948.8358
   1420.85449    1126.0411     800.5399   1420.85449    1126.0411     800.5399
   1420.83923     959.3014     681.5702   1420.83923     959.3014     681.5702
   1420.82397     953.7844     676.9504   1420.82397     953.7844     676.9504
   1420.80872    1128.1384     795.8678   1420.80872    1128.1384     795.8678
   1420.79346    1352.8339     950.7681   1420.79346    1352.8339     950.7681
   1420.77820    1467.8401    1028.3583   1420.77820    1467.8401    1028.3583
   1420.76294    1518.9692    1058.0902   1420.76294    1518.9692    1058.0902
   1420.74768    1637.2656    1138.4705   1420.74768    1637.2656    1138.4705
   1420.73242    1507.4116    1043.3450   1420.73242    1507.4116    1043.3450
   1420.71716    1200.2747     830.9799   1420.71716    1200.2747     830.9799
   1420.70190    1034.9763     716.3102   1420.70190    1034.9763     716.3102
   1420.68665     994.7466     688.0753   1420.68665     994.7466     688.0753
   1420.67139     975.0220     675.6813   1420.67139     975.0220     675.6813
   1420.65613    1106.8231     763.6824   1420.65613    1106.8231     763.6824
   1420.64087    1394.5889     957.3571   1420.64087    1394.5889     957.3571
   1420.62561    1596.8466    1090.9491   1420.62561    1596.8466    1090.9491
   1420.61035    1618.5363    1105.3651   1420.61035    1618.5363    1105.3651
   1420.59509    1523.5864    1038.9274   1420.59509    1523.5864    1038.9274
   1420.57983    1393.6812     947.7171   1420.57983    1393.6812     947.7171
   1420.56458    1389.0634     941.2664   1420.56458    1389.0634     941.2664
   1420.54932    1441.4268     975.8987   1420.54932    1441.4268     975.8987
   1420.53406    1512.7456    1020.5348   1420.53406    1512.7456    1020.5348
   1420.51880    1503.3130    1011.9680   1420.51880    1503.3130    1011.9680
   1420.50354    1412.7969     950.9107   1420.50354    1412.7969     950.9107
   1420.48828    1098.7803     740.4650   1420.48828    1098.7803     740.4650
   1420.47302     819.5999     555.0800   1420.47302     819.5999     555.0800
   1420.45776     718.4518     487.7263   1420.45776     718.4518     487.7263
   1420.44250     674.6730     458.3382   1420.44250     674.6730     458.3382
   1420.42725     650.8135     440.6873   1420.42725     650.8135     440.6873
   1420.41199     633.8170     430.3122   1420.41199     633.8170     430.3122
   1420.39673     625.3262     424.1415   1420.39673     625.3262     424.1415
   1420.38147     622.1838     419.3010   1420.38147     622.1838     419.3010
   1420.36621     617.7461     416.2545   1420.36621     617.7461     416.2545
   1420.35095     616.9052     414.2608   1420.35095     616.9052     414.2608
   1420.33569     616.9198     413.5520   1420.33569     616.9198     413.5520
   1420.32043     615.1938     411.7210   1420.32043     615.1938     411.7210
   1420.30518     615.3720     410.8229   1420.30518     615.3720     410.8229
   1420.28992     616.2853     410.1035   1420.28992     616.2853     410.1035
   1420.27466     615.3564     409.8051   1420.27466     615.3564     409.8051
   1420.25940     615.6646     408.0612   1420.25940     615.6646     408.0612
   1420.24414     615.5948     408.1184   1420.24414     615.5948     408.1184
   1420.22888     615.8241     407.2733   1420.22888     615.8241     407.2733
   1420.21362     613.6436     405.7429   1420.21362     613.6436     405.7429
   1420.19836     612.2331     404.2972   1420.19836     612.2331     404.2972
   1420.18311     611.5962     402.9985   1420.18311     611.5962     402.9985
   1420.16785     611.2341     401.6099   1420.16785     611.2341     401.6099
   1420.15259     610.4412     401.2775   1420.15259     610.4412     401.2775
   1420.13733     609.6965     399.9104   1420.13733     609.6965     399.9104
   1420.12207     610.1038     398.7834   1420.12207     610.1038     398.7834
   1420.10681     608.6744     397.6264   1420.10681     608.6744     397.6264
   1420.09155     609.0571     396.9741   1420.09155     609.0571     396.9741
   1420.07629     608.3198     397.2591   1420.07629     608.3198     397.2591
   1420.06104     608.3839     395.8286   1420.06104     608.3839     395.8286
   1420.04578     607.7628     395.1810   1420.04578     607.7628     395.1810
   1420.03052     607.5955     394.3322   1420.03052     607.5955     394.3322
   1420.01526     608.8060     394.2368   1420.01526     608.8060     394.2368
   1420.00000     609.4279     395.1242   1420.00000     609.4279     395.1242
   1419.98474     610.0499     396.0114   1419.98474     610.0499     396.0114
   1419.96948     610.3482     393.1497   1419.96948     610.3482     393.1497
   1419.95422     608.1901     391.4862   1419.95422     608.1901     391.4862
   1419.93896     608.2048     390.8471   1419.93896     608.2048     390.8471
   1419.92371     608.2483     390.2803   1419.92371     608.2483     390.2803
   1419.90845     608.6472     389.7931   1419.90845     608.6472     389.7931
   1419.89319     608.8848     389.2553   1419.89319     608.8848     389.2553
   1419.87793     609.5986     388.9053   1419.87793     609.5986     388.9053
   1419.86267     609.8887     388.5106   1419.86267     609.8887     388.5106
   1419.84741     609.5043     388.7387   1419.84741     609.5043     388.7387
   1419.83215     609.3186     387.9476   1419.83215     609.3186     387.9476
   1419.81689     610.2693     387.1690   1419.81689     610.2693     387.1690
   1419.80164     610.6989     386.9408   1419.80164     610.6989     386.9408
   1419.78638     610.4146     386.3959   1419.78638     610.4146     386.3959
   1419.77112     610.0629     386.1576   1419.77112     610.0629     386.1576
   1419.75586     611.2728     385.6424   1419.75586     611.2728     385.6424
   1419.74060     610.9972     385.5502   1419.74060     610.9972     385.5502
   1419.72534     611.6978     385.8911   1419.72534     611.6978     385.8911
   1419.71008     611.3616     385.6292   1419.71008     611.3616     385.6292
   1419.69482     612.0271     384.6730   1419.69482     612.0271     384.6730
   1419.67957     612.2062     384.0724   1419.67957     612.2062     384.0724
   1419.66431     613.4313     383.9946   1419.66431     613.4313     383.9946
   1419.64905     613.7489     384.0628   1419.64905     613.7489     384.0628
   1419.63379     613.8205     383.8840   1419.63379     613.8205     383.8840
   1419.61853     613.2286     383.0660   1419.61853     613.2286     383.0660
   1419.60327     613.1177     383.3413   1419.60327     613.1177     383.3413
   1419.58801     614.5123     383.2265   1419.58801     614.5123     383.2265
   1419.57275     616.2877     383.3763   1419.57275     616.2877     383.3763
   1419.55750     614.4667     383.0017   1419.55750     614.4667     383.0017
   1419.54224     614.8716     382.6314   1419.54224     614.8716     382.6314
   1419.52698     615.0148     382.4578   1419.52698     615.0148     382.4578
   1419.51172     615.7381     382.4014   1419.51172     615.7381     382.4014
   1419.49646     615.8187     382.1618   1419.49646     615.8187     382.1618
   1419.48120     616.7121     381.6424   1419.48120     616.7121     381.6424
   1419.46594     616.6071     382.0848   1419.46594     616.6071     382.0848
   1419.45068     617.7903     381.2922   1419.45068     617.7903     381.2922
   1419.43542     617.1378     381.4293   1419.43542     617.1378     381.4293
   1419.42017     617.6527     382.0340   1419.42017     617.6527     382.0340
   1419.40491     617.5625     381.5309   1419.40491     617.5625     381.5309
   1419.38965     618.5785     381.2318   1419.38965     618.5785     381.2318
   1419.37439     617.6341     381.2124   1419.37439     617.6341     381.2124
   1419.35913     618.9018     380.8885   1419.35913     618.9018     380.8885
   1419.34387     618.6876     381.1132   1419.34387     618.6876     381.1132
   1419.32861     619.8832     380.6956   1419.32861     619.8832     380.6956
   1419.31335     619.7800     380.9365   1419.31335     619.7800     380.9365
   1419.29810     620.9799     381.0287   1419.29810     620.9799     381.0287
   1419.28284     621.2430     381.4879   1419.28284     621.2430     381.4879
   1419.26758     622.4479     381.1780   1419.26758     622.4479     381.1780
   1419.25232     621.5709     380.3432   1419.25232     621.5709     380.3432
   1419.23706     622.7772     381.4109   1419.23706     622.7772     381.4109
   1419.22180     622.8051     381.0175   1419.22180     622.8051     381.0175
   1419.20654     623.3644     380.6035   1419.20654     623.3644     380.6035
   1419.19128     624.1743     380.9665   1419.19128     624.1743     380.9665
   1419.17603     623.0101     381.0150   1419.17603     623.0101     381.0150
   1419.16077     625.4036     380.8107   1419.16077     625.4036     380.8107
   1419.14551     624.6392     380.8296   1419.14551     624.6392     380.8296
   1419.13025     625.5474     381.1561   1419.13025     625.5474     381.1561
   1419.11499     626.0712     381.5357   1419.11499     626.0712     381.5357
   1419.09973     626.2714     381.4006   1419.09973     626.2714     381.4006
   1419.08447     627.0720     381.9063   1419.08447     627.0720     381.9063
   1419.06921     627.1042     381.2995   1419.06921     627.1042     381.2995
   1419.05396     627.9628     381.3701   1419.05396     627.9628     381.3701
   1419.03870     629.2593     382.2657   1419.03870     629.2593     382.2657
   1419.02344     628.4744     381.7002   1419.02344     628.4744     381.7002
   1419.00818     629.2185     381.4600   1419.00818     629.2185     381.4600
   1418.99292     630.0384     382.4933   1418.99292     630.0384     382.4933
   1418.97766     630.4923     382.0605   1418.97766     630.4923     382.0605
   1418.96240     630.3303     382.5358   1418.96240     630.3303     382.5358
   1418.94714     632.2833     383.3657   1418.94714     632.2833     383.3657
   1418.93188     631.6855     383.1167   1418.93188     631.6855     383.1167
   1418.91663     632.1309     382.8872   1418.91663     632.1309     382.8872
   1418.90137     632.8942     383.3507   1418.90137     632.8942     383.3507
   1418.88611     632.4858     383.2653   1418.88611     632.4858     383.2653
   1418.87085     632.7065     384.4410   1418.87085     632.7065     384.4410
   1418.85559     634.0000     383.7923   1418.85559     634.0000     383.7923
   1418.84033     634.8193     383.8539   1418.84033     634.8193     383.8539
   1418.82507     635.8928     384.4515   1418.82507     635.8928     384.4515
   1418.80981     636.9708     384.8254   1418.80981     636.9708     384.8254
   1418.79456     637.2596     385.2232   1418.79456     637.2596     385.2232
   1418.77930     637.2487     384.9455   1418.77930     637.2487     384.9455
   1418.76404     637.8802     385.1194   1418.76404     637.8802     385.1194
   1418.74878     637.7776     385.2996   1418.74878     637.7776     385.2996
   1418.73352     638.7269     386.0908   1418.73352     638.7269     386.0908
   1418.71826     638.8489     386.4442   1418.71826     638.8489     386.4442
   1418.70300     639.2735     386.6791   1418.70300     639.2735     386.6791
   1418.68774     640.4197     386.8801   1418.68774     640.4197     386.8801
   1418.67249     640.6537     387.3852   1418.67249     640.6537     387.3852
   1418.65723     642.0790     387.5289   1418.65723     642.0790     387.5289
   1418.64197     642.7568     387.5759   1418.64197     642.7568     387.5759
   1418.62671     642.7452     388.4234   1418.62671     642.7452     388.4234
   1418.61145     643.8527     389.0677   1418.61145     643.8527     389.0677
   1418.59619     644.8781     388.4182   1418.59619     644.8781     388.4182
   1418.58093     644.6879     389.2512   1418.58093     644.6879     389.2512
   1418.56567     645.2160     389.9373   1418.56567     645.2160     389.9373
   1418.55042     645.9877     389.4964   1418.55042     645.9877     389.4964
   1418.53516     646.3471     390.6503   1418.53516     646.3471     390.6503
   1418.51990     646.4219     391.0194   1418.51990     646.4219     391.0194
   1418.50464     647.7085     391.7899   1418.50464     647.7085     391.7899
   1418.48938     648.1381     392.0150   1418.48938     648.1381     392.0150
   1418.47412     649.1486     392.5194   1418.47412     649.1486     392.5194
   1418.45886     649.6258     392.4172   1418.45886     649.6258     392.4172
   1418.44360     651.1373     393.0542   1418.44360     651.1373     393.0542
   1418.42834     650.5909     393.8927   1418.42834     650.5909     393.8927
   1418.41309     651.9919     393.3941   1418.41309     651.9919     393.3941
   1418.39783     652.4896     393.8725   1418.39783     652.4896     393.8725
   1418.38257     652.3752     394.8583   1418.38257     652.3752     394.8583
   1418.36731     654.0941     395.2371   1418.36731     654.0941     395.2371
   1418.35205     654.7535     395.6943   1418.35205     654.7535     395.6943
   1418.33679     656.5283     395.8843   1418.33679     656.5283     395.8843
   1418.32153     655.8998     396.6730   1418.32153     655.8998     396.6730
   1418.30627     656.4446     397.0467   1418.30627     656.4446     397.0467
   1418.29102     658.0562     397.1275   1418.29102     658.0562     397.1275
   1418.27576     658.4472     397.9094   1418.27576     658.4472     397.9094
   1418.26050     658.2911     398.2519   1418.26050     658.2911     398.2519
   1418.24524     659.8855     399.2809   1418.24524     659.8855     399.2809
   1418.22998     660.1887     399.4949   1418.22998     660.1887     399.4949
   1418.21472     660.4543     399.8735   1418.21472     660.4543     399.8735
   1418.19946     661.5512     400.3355   1418.19946     661.5512     400.3355
   1418.18420     662.4495     401.6263   1418.18420     662.4495     401.6263
   1418.16895     662.8044     401.3284   1418.16895     662.8044     401.3284
   1418.15369     663.5605     400.7986   1418.15369     663.5605     400.7986
   1418.13843     665.4963     402.0348   1418.13843     665.4963     402.0348
   1418.12317     665.5012     402.9901   1418.12317     665.5012     402.9901
   1418.10791     665.2657     402.9740   1418.10791     665.2657     402.9740
   1418.09265     666.8003     404.0036   1418.09265     666.8003     404.0036
   1418.07739     668.6920     404.5069   1418.07739     668.6920     404.5069
   1418.06213     669.2054     405.3887   1418.06213     669.2054     405.3887
   1418.04688     669.4232     405.6794   1418.04688     669.4232     405.6794
   1418.03162     670.2653     405.8668   1418.03162     670.2653     405.8668
   1418.01636     671.4992     406.4436   1418.01636     671.4992     406.4436
   1418.00110     672.4818     407.2813   1418.00110     672.4818     407.2813
   1417.98584     672.4358     408.3675   1417.98584     672.4358     408.3675
   1417.97058     672.1008     408.8951   1417.97058     672.1008     408.8951
   1417.95532     674.0626     409.0265   1417.95532     674.0626     409.0265
   1417.94006     674.9938     409.2009   1417.94006     674.9938     409.2009
   1417.92480     675.7762     410.2941   1417.92480     675.7762     410.2941
   1417.90955     675.8246     410.4777   1417.90955     675.8246     410.4777
   1417.89429     677.9387     411.4919   1417.89429     677.9387     411.4919
   1417.87903     678.8356     412.5054   1417.87903     678.8356     412.5054
   1417.86377     678.8458     412.3935   1417.86377     678.8458     412.3935
   1417.84851     678.7144     413.3096   1417.84851     678.7144     413.3096
   1417.83325     680.6321     414.5022   1417.83325     680.6321     414.5022
   1417.81799     682.2517     413.8358   1417.81799     682.2517     413.8358
   1417.80273     681.9561     415.0171   1417.80273     681.9561     415.0171
   1417.78748     684.2650     416.3298   1417.78748     684.2650     416.3298
   1417.77222     683.7540     416.1519   1417.77222     683.7540     416.1519
   1417.75696     684.9189     417.2406   1417.75696     684.9189     417.2406
   1417.74170     686.3087     417.2279   1417.74170     686.3087     417.2279
   1417.72644     686.1209     417.8720   1417.72644     686.1209     417.8720
   1417.71118     687.9108     418.9444   1417.71118     687.9108     418.9444
   1417.69592     688.4335     419.2488   1417.69592     688.4335     419.2488
   1417.68066     689.2523     419.7020   1417.68066     689.2523     419.7020
   1417.66541     689.4660     420.6711   1417.66541     689.4660     420.6711
   1417.65015     691.7372     421.2991   1417.65015     691.7372     421.2991
   1417.63489     691.0148     421.5079   1417.63489     691.0148     421.5079
   1417.61963     691.8700     421.7529   1417.61963     691.8700     421.7529
   1417.60437     693.9942     422.6136   1417.60437     693.9942     422.6136
   1417.58911     694.6622     423.5294   1417.58911     694.6622     423.5294
   1417.57385     695.2383     423.6221   1417.57385     695.2383     423.6221
   1417.55859     696.0777     423.8005   1417.55859     696.0777     423.8005
   1417.54333     696.7626     425.3873   1417.54333     696.7626     425.3873
   1417.52808     696.6327     425.4937   1417.52808     696.6327     425.4937
   1417.51282     699.1813     426.8607   1417.51282     699.1813     426.8607
   1417.49756     699.6735     427.8703   1417.49756     699.6735     427.8703
   1417.48230     700.4594     428.2757   1417.48230     700.4594     428.2757
   1417.46704     701.6433     428.4254   1417.46704     701.6433     428.4254
   1417.45178     701.9401     429.1858   1417.45178     701.9401     429.1858
   1417.43652     702.2500     429.5865   1417.43652     702.2500     429.5865
   1417.42126     703.3606     430.1775   1417.42126     703.3606     430.1775
   1417.40601     704.3909     431.1162   1417.40601     704.3909     431.1162
   1417.39075     705.5154     431.2183   1417.39075     705.5154     431.2183
   1417.37549     705.8541     432.2325   1417.37549     705.8541     432.2325
   1417.36023     706.9600     432.3118   1417.36023     706.9600     432.3118
   1417.34497     708.7184     433.2472   1417.34497     708.7184     433.2472
   1417.32971     708.8443     433.7819   1417.32971     708.8443     433.7819
   1417.31445     708.8222     434.5565   1417.31445     708.8222     434.5565
   1417.29919     710.8900     436.0667   1417.29919     710.8900     436.0667
   1417.28394     711.5056     435.2832   1417.28394     711.5056     435.2832
   1417.26868     712.4012     437.3181   1417.26868     712.4012     437.3181
   1417.25342     713.4008     436.7484   1417.25342     713.4008     436.7484
   1417.23816     713.5788     437.1977   1417.23816     713.5788     437.1977
   1417.22290     714.4858     438.7394   1417.22290     714.4858     438.7394
   1417.20764     714.3141     438.5889   1417.20764     714.3141     438.5889
   1417.19238     716.0172     439.2911   1417.19238     716.0172     439.2911
   1417.17712     716.4216     439.7843   1417.17712     716.4216     439.7843
   1417.16187     717.9589     440.7433   1417.16187     717.9589     440.7433
   1417.14661     719.4570     440.4698   1417.14661     719.4570     440.4698
   1417.13135     719.0497     441.5664   1417.13135     719.0497     441.5664
   1417.11609     719.8868     442.0023   1417.11609     719.8868     442.0023
   1417.10083     719.7111     442.7306   1417.10083     719.7111     442.7306
   1417.08557     721.0200     443.1702   1417.08557     721.0200     443.1702
   1417.07031     721.8607     443.3649   1417.07031     721.8607     443.3649
   1417.05505     722.6357     444.5728   1417.05505     722.6357     444.5728
   1417.03979     722.9296     444.3586   1417.03979     722.9296     444.3586
   1417.02454     723.8138     445.4402   1417.02454     723.8138     445.4402
   1417.00928     724.9125     445.7998   1417.00928     724.9125     445.7998
   1416.99402     724.1393     445.8071   1416.99402     724.1393     445.8071
   1416.97876     725.1602     447.0842   1416.97876     725.1602     447.0842
   1416.96350     725.2184     447.4297   1416.96350     725.2184     447.4297
   1416.94824     727.7659     448.1245   1416.94824     727.7659     448.1245
   1416.93298     727.0076     447.7766   1416.93298     727.0076     447.7766
   1416.91772     728.5839     448.1032   1416.91772     728.5839     448.1032
   1416.90247     728.4513     448.9610   1416.90247     728.4513     448.9610
   1416.88721     728.8005     449.5249   1416.88721     728.8005     449.5249
   1416.87195     728.4778     449.5189   1416.87195     728.4778     449.5189
   1416.85669     728.9445     449.6908   1416.85669     728.9445     449.6908
   1416.84143     730.4953     450.9007   1416.84143     730.4953     450.9007
   1416.82617     729.9890     450.9962   1416.82617     729.9890     450.9962
   1416.81091     732.0043     451.1615   1416.81091     732.0043     451.1615
   1416.79565     731.6981     451.9521   1416.79565     731.6981     451.9521
   1416.78040     732.7889     452.1691   1416.78040     732.7889     452.1691
   1416.76514     732.2880     451.5720   1416.76514     732.2880     451.5720
   1416.74988     731.8078     453.3761   1416.74988     731.8078     453.3761
   1416.73462     734.2485     453.4854   1416.73462     734.2485     453.4854
   1416.71936     733.9631     453.6232   1416.71936     733.9631     453.6232
   1416.70410     733.9052     453.6417   1416.70410     733.9052     453.6417
   1416.68884     733.9861     454.3074   1416.68884     733.9861     454.3074
   1416.67358     734.6781     453.4580   1416.67358     734.6781     453.4580
   1416.65833     735.7198     454.9931   1416.65833     735.7198     454.9931
   1416.64307     734.6705     454.8198   1416.64307     734.6705     454.8198
   1416.62781     735.0895     454.7928   1416.62781     735.0895     454.7928
   1416.61255     735.3743     455.0461   1416.61255     735.3743     455.0461
   1416.59729     735.9713     455.2832   1416.59729     735.9713     455.2832
   1416.58203     736.9999     455.7096   1416.58203     736.9999     455.7096
   1416.56677     735.9054     456.1321   1416.56677     735.9054     456.1321
   1416.55151     736.2626     456.1541   1416.55151     736.2626     456.1541
   1416.53625     736.9084     456.1593   1416.53625     736.9084     456.1593
   1416.52100     736.8031     456.7029   1416.52100     736.8031     456.7029
   1416.50574     735.8525     456.6771   1416.50574     735.8525     456.6771
   1416.49048     737.1891     457.1840   1416.49048     737.1891     457.1840
   1416.47522     736.9420     457.0924   1416.47522     736.9420     457.0924
   1416.45996     738.0809     457.0958   1416.45996     738.0809     457.0958
   1416.44470     736.7177     456.8470   1416.44470     736.7177     456.8470
   1416.42944     737.4389     457.5461   1416.42944     737.4389     457.5461
   1416.41418     736.8999     457.6773   1416.41418     736.8999     457.6773
   1416.39893     737.5352     457.0562   1416.39893     737.5352     457.0562
   1416.38367     737.8051     457.4657   1416.38367     737.8051     457.4657
   1416.36841     738.2122     457.8136   1416.36841     738.2122     457.8136
   1416.35315     736.8571     456.8374   1416.35315     736.8571     456.8374
   1416.33789     736.8163     457.2521   1416.33789     736.8163     457.2521
   1416.32263     737.3884     457.5173   1416.32263     737.3884     457.5173
   1416.30737     736.1085     457.5631   1416.30737     736.1085     457.5631
   1416.29211     737.2543     456.9548   1416.29211     737.2543     456.9548
   1416.27686     736.0074     457.0436   1416.27686     736.0074     457.0436
   1416.26160     735.8489     457.5002   1416.26160     735.8489     457.5002
   1416.24634     735.8027     457.4155   1416.24634     735.8027     457.4155
   1416.23108     735.4626     456.9659   1416.23108     735.4626     456.9659
   1416.21582     734.9296     457.3194   1416.21582     734.9296     457.3194
   1416.20056     734.5572     457.5341   1416.20056     734.5572     457.5341
   1416.18530     734.2874     457.2575   1416.18530     734.2874     457.2575
   1416.17004     733.6817     456.3176   1416.17004     733.6817     456.3176
   1416.15479     733.9254     456.4480   1416.15479     733.9254     456.4480
   1416.13953     733.6404     456.1316   1416.13953     733.6404     456.1316
   1416.12427     733.7626     455.9571   1416.12427     733.7626     455.9571
   1416.10901     733.2334     456.9109   1416.10901     733.2334     456.9109
   1416.09375     732.1329     456.4023   1416.09375     732.1329     456.4023
   1416.07849     732.3145     456.1277   1416.07849     732.3145     456.1277
   1416.06323     732.9412     456.5645   1416.06323     732.9412     456.5645
   1416.04797     732.1692     456.6710   1416.04797     732.1692     456.6710
   1416.03271     730.5943     455.7595   1416.03271     730.5943     455.7595
   1416.01746     730.5441     455.3661   1416.01746     730.5441     455.3661
   1416.00220     729.8711     455.0943   1416.00220     729.8711     455.0943
   1415.98694     729.2900     455.2849   1415.98694     729.2900     455.2849
   1415.97168     729.0352     455.1701   1415.97168     729.0352     455.1701
   1415.95642     727.5331     455.1327   1415.95642     727.5331     455.1327
   1415.94116     729.0867     455.0097   1415.94116     729.0867     455.0097
   1415.92590     727.6853     454.7107   1415.92590     727.6853     454.7107
   1415.91064     726.9976     454.3709   1415.91064     726.9976     454.3709
   1415.89539     726.1426     454.9757   1415.89539     726.1426     454.9757
   1415.88013     726.0369     454.1855   1415.88013     726.0369     454.1855
   1415.86487     725.5835     453.7307   1415.86487     725.5835     453.7307
   1415.84961     726.0287     454.2447   1415.84961     726.0287     454.2447
   1415.83435     723.7512     453.5465   1415.83435     723.7512     453.5465
   1415.81909     723.8495     453.6198   1415.81909     723.8495     453.6198
   1415.80383     722.5624     452.9982   1415.80383     722.5624     452.9982
   1415.78857     722.2665     452.7944   1415.78857     722.2665     452.7944
   1415.77332     722.3369     452.3898   1415.77332     722.3369     452.3898
   1415.75806     721.8878     452.7057   1415.75806     721.8878     452.7057
   1415.74280     721.0706     452.7175   1415.74280     721.0706     452.7175
   1415.72754     719.2509     451.6712   1415.72754     719.2509     451.6712
   1415.71228     718.7751     451.5934   1415.71228     718.7751     451.5934
   1415.69702     717.6110     450.9118   1415.69702     717.6110     450.9118
   1415.68176     717.2703     450.7231   1415.68176     717.2703     450.7231
   1415.66650     716.6651     451.2877   1415.66650     716.6651     451.2877
   1415.65125     716.3314     450.2465   1415.65125     716.3314     450.2465
   1415.63599     715.2696     449.8824   1415.63599     715.2696     449.8824
   1415.62073     715.2216     449.3718   1415.62073     715.2216     449.3718
   1415.60547     713.7611     449.6101   1415.60547     713.7611     449.6101
   1415.59021     713.6132     449.0232   1415.59021     713.6132     449.0232
   1415.57495     712.9216     449.2299   1415.57495     712.9216     449.2299
   1415.55969     711.5913     448.8103   1415.55969     711.5913     448.8103
   1415.54443     711.7536     448.5981   1415.54443     711.7536     448.5981
   1415.52917     709.8981     448.5473   1415.52917     709.8981     448.5473
   1415.51392     709.2149     448.1315   1415.51392     709.2149     448.1315
   1415.49866     707.5207     447.9336   1415.49866     707.5207     447.9336
   1415.48340     707.3937     446.9955   1415.48340     707.3937     446.9955
   1415.46814     706.0482     446.8900   1415.46814     706.0482     446.8900
   1415.45288     705.1623     447.0924   1415.45288     705.1623     447.0924
   1415.43762     705.5367     447.0402   1415.43762     705.5367     447.0402
   1415.42236     702.3339     445.8142   1415.42236     702.3339     445.8142
   1415.40710     702.2084     445.5937   1415.40710     702.2084     445.5937
   1415.39185     702.0388     444.7922   1415.39185     702.0388     444.7922
   1415.37659     700.2143     443.8479   1415.37659     700.2143     443.8479
   1415.36133     698.1588     444.9207   1415.36133     698.1588     444.9207
   1415.34607     698.0779     444.4472   1415.34607     698.0779     444.4472
   1415.33081     696.5342     443.3576   1415.33081     696.5342     443.3576
   1415.31555     696.3538     443.9427   1415.31555     696.3538     443.9427
   1415.30029     695.8602     443.0146   1415.30029     695.8602     443.0146
   1415.28503     694.1281     442.4589   1415.28503     694.1281     442.4589
   1415.26978     693.7167     442.8511   1415.26978     693.7167     442.8511
   1415.25452     692.5600     441.6096   1415.25452     692.5600     441.6096
   1415.23926     690.1858     441.9561   1415.23926     690.1858     441.9561
   1415.22400     688.3021     440.9330   1415.22400     688.3021     440.9330
   1415.20874     688.2191     440.6267   1415.20874     688.2191     440.6267
   1415.19348     687.9567     440.1812   1415.19348     687.9567     440.1812
   1415.17822     685.9369     439.8494   1415.17822     685.9369     439.8494
   1415.16296     684.4667     438.9697   1415.16296     684.4667     438.9697
   1415.14771     683.2017     439.0989   1415.14771     683.2017     439.0989
   1415.13245     682.1697     438.9557   1415.13245     682.1697     438.9557
   1415.11719     680.1396     438.3686   1415.11719     680.1396     438.3686
   1415.10193     679.0812     437.2905   1415.10193     679.0812     437.2905
   1415.08667     678.0796     436.8493   1415.08667     678.0796     436.8493
   1415.07141     675.7055     436.9089   1415.07141     675.7055     436.9089
   1415.05615     674.4879     435.8896   1415.05615     674.4879     435.8896
   1415.04089     673.0743     435.7308   1415.04089     673.0743     435.7308
   1415.02563     673.1523     434.5096   1415.02563     673.1523     434.5096
   1415.01038     670.2869     434.6146   1415.01038     670.2869     434.6146
   1414.99512     668.9767     433.6194   1414.99512     668.9767     433.6194
   1414.97986     667.5140     433.8279   1414.97986     667.5140     433.8279
   1414.96460     664.7400     432.7229   1414.96460     664.7400     432.7229
   1414.94934     664.0680     431.3605   1414.94934     664.0680     431.3605
   1414.93408     661.0129     431.4568   1414.93408     661.0129     431.4568
   1414.91882     662.4418     430.7952   1414.91882     662.4418     430.7952
   1414.90356     659.8853     430.3956   1414.90356     659.8853     430.3956
   1414.88831     658.3072     429.4269   1414.88831     658.3072     429.4269
   1414.87305     656.2741     429.5974   1414.87305     656.2741     429.5974
   1414.85779     655.0590     428.4391   1414.85779     655.0590     428.4391
   1414.84253     652.3574     427.6099   1414.84253     652.3574     427.6099
   1414.82727     652.4904     427.1506   1414.82727     652.4904     427.1506
   1414.81201     649.8243     426.5966   1414.81201     649.8243     426.5966
   1414.79675     647.5956     425.6246   1414.79675     647.5956     425.6246
   1414.78149     646.0982     425.5572   1414.78149     646.0982     425.5572
   1414.76624     644.2975     424.3786   1414.76624     644.2975     424.3786
   1414.75098     642.3046     423.4019   1414.75098     642.3046     423.4019
   1414.73572     639.4225     423.3444   1414.73572     639.4225     423.3444
   1414.72046     638.6136     422.5780   1414.72046     638.6136     422.5780
   1414.70520     636.4518     421.8237   1414.70520     636.4518     421.8237
   1414.68994     634.9589     420.3438   1414.68994     634.9589     420.3438
   1414.67468     632.9009     419.6494   1414.67468     632.9009     419.6494
   1414.65942     631.3903     418.9015   1414.65942     631.3903     418.9015
   1414.64417     628.2084     418.8627   1414.64417     628.2084     418.8627
   1414.62891     626.8599     417.3020   1414.62891     626.8599     417.3020
   1414.61365     624.6752     417.2628   1414.61365     624.6752     417.2628
   1414.59839     622.7504     415.7116   1414.59839     622.7504     415.7116
   1414.58313     619.8660     414.7762   1414.58313     619.8660     414.7762
   1414.56787     618.7737     414.6367   1414.56787     618.7737     414.6367
   1414.55261     617.3344     413.9076   1414.55261     617.3344     413.9076
   1414.53735     614.1506     411.8098   1414.53735     614.1506     411.8098
   1414.52209     613.3256     411.4939   1414.52209     613.3256     411.4939
   1414.50684     610.3079     410.4607   1414.50684     610.3079     410.4607
   1414.49158     607.4592     409.4185   1414.49158     607.4592     409.4185
   1414.47632     605.2076     408.5770   1414.47632     605.2076     408.5770
   1414.46106     603.3636     408.6642   1414.46106     603.3636     408.6642
   1414.44580     602.1603     407.3096   1414.44580     602.1603     407.3096
   1414.43054     599.1906     406.1534   1414.43054     599.1906     406.1534
   1414.41528     597.4549     405.7177   1414.41528     597.4549     405.7177
   1414.40002     594.2155     404.3155   1414.40002     594.2155     404.3155
   1414.38477     591.7785     403.7340   1414.38477     591.7785     403.7340
   1414.36951     589.6416     402.4812   1414.36951     589.6416     402.4812
   1414.35425     587.1862     401.1371   1414.35425     587.1862     401.1371
   1414.33899     584.2483     401.1660   1414.33899     584.2483     401.1660
   1414.32373     581.9180     399.5477   1414.32373     581.9180     399.5477
   1414.30847     580.2422     398.2666   1414.30847     580.2422     398.2666
   1414.29321     577.5009     396.7426   1414.29321     577.5009     396.7426
   1414.27795     575.1108     395.5835   1414.27795     575.1108     395.5835
   1414.26270     572.2911     394.7236   1414.26270     572.2911     394.7236
   1414.24744     570.4222     393.8611   1414.24744     570.4222     393.8611
   1414.23218     568.0160     392.5503   1414.23218     568.0160     392.5503
   1414.21692     565.1746     392.0290   1414.21692     565.1746     392.0290
   1414.20166     562.6113     390.1881   1414.20166     562.6113     390.1881
   1414.18640     559.5173     389.6631   1414.18640     559.5173     389.6631
   1414.17114     557.5469     388.7745   1414.17114     557.5469     388.7745
   1414.15588     554.4491     386.9001   1414.15588     554.4491     386.9001
   1414.14062     551.9454     385.3688   1414.14062     551.9454     385.3688
   1414.12537     549.1696     385.0197   1414.12537     549.1696     385.0197
   1414.11011     547.7539     384.1250   1414.11011     547.7539     384.1250
   1414.09485     544.8846     382.3993   1414.09485     544.8846     382.3993
   1414.07959     542.0153     380.7711   1414.07959     542.0153     380.7711
   1414.06433     539.3781     379.4382   1414.06433     539.3781     379.4382
   1414.04907     536.6281     379.0984   1414.04907     536.6281     379.0984
   1414.03381     533.6378     377.6212   1414.03381     533.6378     377.6212
   1414.01855     532.3138     376.2607   1414.01855     532.3138     376.2607
   1414.00330     557.5929     385.2427   1414.00330     557.5929     385.2427
   1413.98804     527.0779     373.9450   1413.98804     527.0779     373.9450
   1413.97278     523.0897     372.4451   1413.97278     523.0897     372.4451
   1413.95752     519.4247     371.0118   1413.95752     519.4247     371.0118
   1413.94226     517.9413     369.5346   1413.94226     517.9413     369.5346
   1413.92700     515.1368     367.6326   1413.92700     515.1368     367.6326
   1413.91174     512.2413     367.0155   1413.91174     512.2413     367.0155
   1413.89648     509.2403     365.5460   1413.89648     509.2403     365.5460
   1413.88123     506.1008     364.3902   1413.88123     506.1008     364.3902
   1413.86597     503.8976     362.7644   1413.86597     503.8976     362.7644
   1413.85071     500.4568     362.0818   1413.85071     500.4568     362.0818
   1413.83545     498.2398     360.1037   1413.83545     498.2398     360.1037
   1413.82019     495.5202     359.0652   1413.82019     495.5202     359.0652
   1413.80493     492.5464     357.6264   1413.80493     492.5464     357.6264
   1413.78967     489.9160     356.1251   1413.78967     489.9160     356.1251
   1413.77441     486.6232     355.1526   1413.77441     486.6232     355.1526
   1413.75916     483.3131     353.4393   1413.75916     483.3131     353.4393
   1413.74390     481.3654     351.9240   1413.74390     481.3654     351.9240
   1413.72864     478.2615     350.8353   1413.72864     478.2615     350.8353
   1413.71338     475.5089     348.5262   1413.71338     475.5089     348.5262
   1413.69812     472.3661     347.8083   1413.69812     472.3661     347.8083
   1413.68286     470.1172     346.5722   1413.68286     470.1172     346.5722
   1413.66760     467.6399     344.6271   1413.66760     467.6399     344.6271
   1413.65234     463.9462     343.0002   1413.65234     463.9462     343.0002
   1413.63708     461.6605     341.5071   1413.63708     461.6605     341.5071
   1413.62183     459.4707     340.6629   1413.62183     459.4707     340.6629
   1413.60657     456.5952     339.1834   1413.60657     456.5952     339.1834
   1413.59131     452.9691     338.1082   1413.59131     452.9691     338.1082
   1413.57605     450.4362     336.6111   1413.57605     450.4362     336.6111
   1413.56079     448.2248     334.3819   1413.56079     448.2248     334.3819
   1413.54553     444.9265     333.3971   1413.54553     444.9265     333.3971
   1413.53027     443.0584     331.1715   1413.53027     443.0584     331.1715
   1413.51501     440.1026     329.9944   1413.51501     440.1026     329.9944
   1413.49976     437.0091     328.8607   1413.49976     437.0091     328.8607
   1413.48450     434.5417     327.5645   1413.48450     434.5417     327.5645
   1413.46924     431.4735     326.2942   1413.46924     431.4735     326.2942
   1413.45398     428.6812     324.1779   1413.45398     428.6812     324.1779
   1413.43872     426.5132     323.2501   1413.43872     426.5132     323.2501
   1413.42346     423.3004     321.4257   1413.42346     423.3004     321.4257
   1413.40820     420.7496     320.2584   1413.40820     420.7496     320.2584
   1413.39294     418.5345     318.6652   1413.39294     418.5345     318.6652
   1413.37769     415.7780     317.5616   1413.37769     415.7780     317.5616
   1413.36243     412.4360     316.0001   1413.36243     412.4360     316.0001
   1413.34717     410.0496     314.5604   1413.34717     410.0496     314.5604
   1413.33191     407.6740     312.3351   1413.33191     407.6740     312.3351
   1413.31665     405.5950     311.9217   1413.31665     405.5950     311.9217
   1413.30139     402.9271     310.5770   1413.30139     402.9271     310.5770
   1413.28613     400.3889     308.5879   1413.28613     400.3889     308.5879
   1413.27087     398.2885     307.3806   1413.27087     398.2885     307.3806
   1413.25562     395.4709     306.0317   1413.25562     395.4709     306.0317
   1413.24036     393.3731     304.5022   1413.24036     393.3731     304.5022
   1413.22510     390.8159     303.4331   1413.22510     390.8159     303.4331
   1413.20984     388.1194     301.5105   1413.20984     388.1194     301.5105
   1413.19458     386.3140     300.0952   1413.19458     386.3140     300.0952
   1413.17932     383.8943     299.0996   1413.17932     383.8943     299.0996
   1413.16406     381.1391     297.6275   1413.16406     381.1391     297.6275
   1413.14880     379.4863     296.4092   1413.14880     379.4863     296.4092
   1413.13354     377.6886     295.7535   1413.13354     377.6886     295.7535
   1413.11829     374.8599     294.2452   1413.11829     374.8599     294.2452
   1413.10303     372.8615     292.3943   1413.10303     372.8615     292.3943
   1413.08777     370.9612     291.4241   1413.08777     370.9612     291.4241
   1413.07251     368.8970     290.3414   1413.07251     368.8970     290.3414
   1413.05725     366.4278     288.4464   1413.05725     366.4278     288.4464
   1413.04199     364.7804     287.6832   1413.04199     364.7804     287.6832
   1413.02673     362.6568     286.3690   1413.02673     362.6568     286.3690
   1413.01147     360.1364     285.3320   1413.01147     360.1364     285.3320
   1412.99622     358.4731     283.8596   1412.99622     358.4731     283.8596
   1412.98096     356.3230     283.0024   1412.98096     356.3230     283.0024
   1412.96570     354.6408     281.8413   1412.96570     354.6408     281.8413
   1412.95044     352.8616     280.7024   1412.95044     352.8616     280.7024
   1412.93518     351.3664     279.3617   1412.93518     351.3664     279.3617
   1412.91992     349.1208     278.4844   1412.91992     349.1208     278.4844
   1412.90466     347.7491     277.0674   1412.90466     347.7491     277.0674
   1412.88940     346.0976     275.9319   1412.88940     346.0976     275.9319
   1412.87415     344.3284     274.9466   1412.87415     344.3284     274.9466
   1412.85889     342.6422     274.4378   1412.85889     342.6422     274.4378
   1412.84363     340.8854     273.6871   1412.84363     340.8854     273.6871
   1412.82837     339.7189     272.6707   1412.82837     339.7189     272.6707
   1412.81311     338.1950     271.3916   1412.81311     338.1950     271.3916
   1412.79785     336.7610     270.9606   1412.79785     336.7610     270.9606
   1412.78259     335.4500     270.5497   1412.78259     335.4500     270.5497
   1412.76733     334.7527     269.3919   1412.76733     334.7527     269.3919
   1412.75208     332.4700     268.2814   1412.75208     332.4700     268.2814
   1412.73682     331.6751     267.5954   1412.73682     331.6751     267.5954
   1412.72156     330.3735     266.9444   1412.72156     330.3735     266.9444
   1412.70630     328.9628     265.6382   1412.70630     328.9628     265.6382
   1412.69104     327.8252     265.4244   1412.69104     327.8252     265.4244
   1412.67578     326.8721     264.7519   1412.67578     326.8721     264.7519
   1412.66052     325.3270     263.6496   1412.66052     325.3270     263.6496
   1412.64526     324.6080     263.5929   1412.64526     324.6080     263.5929
   1412.63000     323.9516     262.8729   1412.63000     323.9516     262.8729
   1412.61475     323.0183     262.0351   1412.61475     323.0183     262.0351
   1412.59949     322.0259     261.4637   1412.59949     322.0259     261.4637
   1412.58423     321.4201     261.3457   1412.58423     321.4201     261.3457
   1412.56897     320.3196     260.9702   1412.56897     320.3196     260.9702
   1412.55371     319.5936     260.9134   1412.55371     319.5936     260.9134
   1412.53845     319.1869     260.1196   1412.53845     319.1869     260.1196
   1412.52319     318.5504     260.2997   1412.52319     318.5504     260.2997
   1412.50793     318.1209     259.7664   1412.50793     318.1209     259.7664
   1412.49268     317.4702     259.1053   1412.49268     317.4702     259.1053
   1412.47742     316.6737     259.2066   1412.47742     316.6737     259.2066
   1412.46216     316.4024     258.9661   1412.46216     316.4024     258.9661
   1412.44690     316.4734     258.4808   1412.44690     316.4734     258.4808
   1412.43164     315.8392     258.6027   1412.43164     315.8392     258.6027
   1412.41638     315.4796     258.3932   1412.41638     315.4796     258.3932
   1412.40112     316.0049     258.1525   1412.40112     316.0049     258.1525
   1412.38586     315.4680     258.6263   1412.38586     315.4680     258.6263
   1412.37061     314.9133     258.2183   1412.37061     314.9133     258.2183
   1412.35535     315.3113     258.6150   1412.35535     315.3113     258.6150
   1412.34009     315.0358     258.6187   1412.34009     315.0358     258.6187
   1412.32483     315.5822     258.2838   1412.32483     315.5822     258.2838
   1412.30957     314.9506     258.9490   1412.30957     314.9506     258.9490
   1412.29431     315.5666     259.0906   1412.29431     315.5666     259.0906
   1412.27905     315.5197     259.6489   1412.27905     315.5197     259.6489
   1412.26379     315.3418     259.7632   1412.26379     315.3418     259.7632
   1412.24854     316.1120     260.0358   1412.24854     316.1120     260.0358
   1412.23328     316.1746     260.2556   1412.23328     316.1746     260.2556
   1412.21802     316.3386     260.3789   1412.21802     316.3386     260.3789
   1412.20276     316.8131     261.3980   1412.20276     316.8131     261.3980