#     FILENAME=!Skynet_57528_lach-hhg-131_20433_20955.cyb.fits
#     BASENAME=Skynet_57528_lach-hhg-131_20433_20955
#     SRC_NAME=lach-hhg-131
#     OBSERVER=hhgmadison16_9500
#     DATE_OBS=2016-05-20T16:59:31.500
#        OBSID=20433
#      SCANNUM=20955
#          MJD=57528.7090
#          UTC=61259
#     SCANTYPE=track
#     DATAMODE=HIRES
#     TUNEFREQ=1420.0000
# Actual_FREQ1=1420.0000
# Actual_FREQ2=1420.0000
#    LO1Tuning=6870.000
#     RFFILTER=1355_1435
#        OBSBW=-15.6250
#        NCHAN=1024 
#        FOCUS=37.0709
#           RA=02:00:30.97
#          DEC=61:47:08.94
#      RA(hrs)=2.008600
#     DEC(deg)=61.785800
#    AZIM(deg)=335.524
#    ELEV(deg)=62.419
#     IFattens=10.00, 9.00
#      WARNING=None
#    TCAL_XL1=7.9635
#    TCAL_YR1=9.1340
#    TCAL_XL2=7.9635
#    TCAL_YR2=9.1340
#     TRX_XL1=11.7060
#     TRX_YR1=11.7060
#     TRX_XL2=11.7060
#     TRX_YR2=11.7060
#        TAVE=1.0000
#Freq1(MHz)          XL1          YR1  Freq2(MHz)          XL2          YR2 

   1427.81250     379.3128     290.8332   1427.81250     379.3128     290.8332
   1427.79724     379.6131     292.1688   1427.79724     379.6131     292.1688
   1427.78198     380.3294     292.7680   1427.78198     380.3294     292.7680
   1427.76672     380.6787     294.2086   1427.76672     380.6787     294.2086
   1427.75146     381.8813     295.1376   1427.75146     381.8813     295.1376
   1427.73621     383.2360     296.1819   1427.73621     383.2360     296.1819
   1427.72095     382.8395     297.5674   1427.72095     382.8395     297.5674
   1427.70569     384.6151     298.4057   1427.70569     384.6151     298.4057
   1427.69043     385.8163     299.5294   1427.69043     385.8163     299.5294
   1427.67517     386.6824     300.9940   1427.67517     386.6824     300.9940
   1427.65991     387.9143     302.5754   1427.65991     387.9143     302.5754
   1427.64465     389.0359     303.8273   1427.64465     389.0359     303.8273
   1427.62939     390.1378     305.9000   1427.62939     390.1378     305.9000
   1427.61414     391.5943     306.3978   1427.61414     391.5943     306.3978
   1427.59888     393.7211     307.6577   1427.59888     393.7211     307.6577
   1427.58362     394.4194     310.0997   1427.58362     394.4194     310.0997
   1427.56836     396.3069     310.8457   1427.56836     396.3069     310.8457
   1427.55310     397.9883     312.8817   1427.55310     397.9883     312.8817
   1427.53784     399.0852     314.3776   1427.53784     399.0852     314.3776
   1427.52258     401.5948     315.9886   1427.52258     401.5948     315.9886
   1427.50732     403.4525     317.8919   1427.50732     403.4525     317.8919
   1427.49207     404.2940     319.3469   1427.49207     404.2940     319.3469
   1427.47681     405.9352     321.3866   1427.47681     405.9352     321.3866
   1427.46155     407.8365     323.3054   1427.46155     407.8365     323.3054
   1427.44629     410.0780     325.1048   1427.44629     410.0780     325.1048
   1427.43103     411.5300     326.8570   1427.43103     411.5300     326.8570
   1427.41577     413.8467     328.8343   1427.41577     413.8467     328.8343
   1427.40051     416.3408     330.6184   1427.40051     416.3408     330.6184
   1427.38525     418.0522     332.5562   1427.38525     418.0522     332.5562
   1427.37000     420.2590     334.4680   1427.37000     420.2590     334.4680
   1427.35474     422.4906     336.9835   1427.35474     422.4906     336.9835
   1427.33948     424.1171     338.2165   1427.33948     424.1171     338.2165
   1427.32422     426.1416     340.8549   1427.32422     426.1416     340.8549
   1427.30896     428.0204     342.6484   1427.30896     428.0204     342.6484
   1427.29370     431.2782     344.6681   1427.29370     431.2782     344.6681
   1427.27844     433.0688     347.0294   1427.27844     433.0688     347.0294
   1427.26318     435.9031     349.0964   1427.26318     435.9031     349.0964
   1427.24792     438.3020     351.2867   1427.24792     438.3020     351.2867
   1427.23267     440.8448     354.0586   1427.23267     440.8448     354.0586
   1427.21741     443.9001     356.3813   1427.21741     443.9001     356.3813
   1427.20215     445.6837     358.2784   1427.20215     445.6837     358.2784
   1427.18689     448.6740     361.1575   1427.18689     448.6740     361.1575
   1427.17163     451.0174     362.9849   1427.17163     451.0174     362.9849
   1427.15637     455.0764     365.7296   1427.15637     455.0764     365.7296
   1427.14111     457.2722     368.1119   1427.14111     457.2722     368.1119
   1427.12585     459.9226     369.9352   1427.12585     459.9226     369.9352
   1427.11060     462.7665     372.4267   1427.11060     462.7665     372.4267
   1427.09534     465.8903     375.4482   1427.09534     465.8903     375.4482
   1427.08008     468.3625     378.0590   1427.08008     468.3625     378.0590
   1427.06482     471.3715     380.1917   1427.06482     471.3715     380.1917
   1427.04956     474.0589     382.9219   1427.04956     474.0589     382.9219
   1427.03430     476.3523     385.0902   1427.03430     476.3523     385.0902
   1427.01904     479.9368     388.0293   1427.01904     479.9368     388.0293
   1427.00378     483.0780     389.4921   1427.00378     483.0780     389.4921
   1426.98853     485.2061     392.4099   1426.98853     485.2061     392.4099
   1426.97327     488.5117     395.4721   1426.97327     488.5117     395.4721
   1426.95801     492.1158     398.1006   1426.95801     492.1158     398.1006
   1426.94275     494.7301     400.5539   1426.94275     494.7301     400.5539
   1426.92749     497.5697     402.6591   1426.92749     497.5697     402.6591
   1426.91223     500.7522     406.1263   1426.91223     500.7522     406.1263
   1426.89697     504.3225     408.0159   1426.89697     504.3225     408.0159
   1426.88171     507.6597     411.4075   1426.88171     507.6597     411.4075
   1426.86646     510.1750     413.2717   1426.86646     510.1750     413.2717
   1426.85120     513.9016     416.0244   1426.85120     513.9016     416.0244
   1426.83594     517.8837     419.0016   1426.83594     517.8837     419.0016
   1426.82068     520.8983     421.4491   1426.82068     520.8983     421.4491
   1426.80542     523.6254     424.2125   1426.80542     523.6254     424.2125
   1426.79016     525.9265     427.1001   1426.79016     525.9265     427.1001
   1426.77490     529.5881     430.2361   1426.77490     529.5881     430.2361
   1426.75964     533.3206     432.8286   1426.75964     533.3206     432.8286
   1426.74438     536.0462     434.5757   1426.74438     536.0462     434.5757
   1426.72913     539.6819     437.3997   1426.72913     539.6819     437.3997
   1426.71387     541.9396     440.4640   1426.71387     541.9396     440.4640
   1426.69861     545.1131     443.0032   1426.69861     545.1131     443.0032
   1426.68335     549.3400     445.9520   1426.68335     549.3400     445.9520
   1426.66809     553.0146     448.8767   1426.66809     553.0146     448.8767
   1426.65283     556.3284     450.9170   1426.65283     556.3284     450.9170
   1426.63757     559.4787     454.4580   1426.63757     559.4787     454.4580
   1426.62231     563.8383     457.8625   1426.62231     563.8383     457.8625
   1426.60706     566.1580     459.5440   1426.60706     566.1580     459.5440
   1426.59180     569.0785     461.4637   1426.59180     569.0785     461.4637
   1426.57654     571.9117     464.8652   1426.57654     571.9117     464.8652
   1426.56128     575.3057     467.6026   1426.56128     575.3057     467.6026
   1426.54602     578.2540     469.7365   1426.54602     578.2540     469.7365
   1426.53076     581.9938     472.6738   1426.53076     581.9938     472.6738
   1426.51550     585.8036     475.1884   1426.51550     585.8036     475.1884
   1426.50024     588.3774     477.7032   1426.50024     588.3774     477.7032
   1426.48499     591.7987     480.4778   1426.48499     591.7987     480.4778
   1426.46973     594.6674     483.1171   1426.46973     594.6674     483.1171
   1426.45447     597.7831     484.9275   1426.45447     597.7831     484.9275
   1426.43921     600.9238     486.7762   1426.43921     600.9238     486.7762
   1426.42395     604.9254     490.3337   1426.42395     604.9254     490.3337
   1426.40869     608.1631     492.6920   1426.40869     608.1631     492.6920
   1426.39343     610.6794     494.8006   1426.39343     610.6794     494.8006
   1426.37817     614.6700     497.6874   1426.37817     614.6700     497.6874
   1426.36292     617.1963     500.1554   1426.36292     617.1963     500.1554
   1426.34766     620.3088     502.2401   1426.34766     620.3088     502.2401
   1426.33240     623.2316     505.2221   1426.33240     623.2316     505.2221
   1426.31714     626.7345     507.9380   1426.31714     626.7345     507.9380
   1426.30188     630.8587     509.8306   1426.30188     630.8587     509.8306
   1426.28662     633.3102     513.0343   1426.28662     633.3102     513.0343
   1426.27136     635.8115     514.3806   1426.27136     635.8115     514.3806
   1426.25610     638.2354     517.0077   1426.25610     638.2354     517.0077
   1426.24084     642.3655     519.1494   1426.24084     642.3655     519.1494
   1426.22559     644.7278     521.8043   1426.22559     644.7278     521.8043
   1426.21033     647.4261     523.9291   1426.21033     647.4261     523.9291
   1426.19507     651.0875     526.8943   1426.19507     651.0875     526.8943
   1426.17981     653.5316     529.7708   1426.17981     653.5316     529.7708
   1426.16455     656.4897     530.8486   1426.16455     656.4897     530.8486
   1426.14929     660.2091     532.6009   1426.14929     660.2091     532.6009
   1426.13403     661.8911     535.6275   1426.13403     661.8911     535.6275
   1426.11877     664.9323     537.5276   1426.11877     664.9323     537.5276
   1426.10352     666.9686     540.0382   1426.10352     666.9686     540.0382
   1426.08826     670.9575     541.7386   1426.08826     670.9575     541.7386
   1426.07300     673.4460     544.2376   1426.07300     673.4460     544.2376
   1426.05774     675.6401     546.6518   1426.05774     675.6401     546.6518
   1426.04248     678.4226     548.7958   1426.04248     678.4226     548.7958
   1426.02722     681.9050     550.0142   1426.02722     681.9050     550.0142
   1426.01196     683.1207     552.5193   1426.01196     683.1207     552.5193
   1425.99670     686.6627     554.9674   1425.99670     686.6627     554.9674
   1425.98145     688.6780     556.4204   1425.98145     688.6780     556.4204
   1425.96619     692.5443     558.4706   1425.96619     692.5443     558.4706
   1425.95093     693.9384     560.7526   1425.95093     693.9384     560.7526
   1425.93567     696.0249     562.1953   1425.93567     696.0249     562.1953
   1425.92041     699.0632     564.2411   1425.92041     699.0632     564.2411
   1425.90515     701.5900     565.9395   1425.90515     701.5900     565.9395
   1425.88989     704.4297     567.9618   1425.88989     704.4297     567.9618
   1425.87463     706.7288     569.7958   1425.87463     706.7288     569.7958
   1425.85938     707.0142     571.3000   1425.85938     707.0142     571.3000
   1425.84412     709.9920     573.9131   1425.84412     709.9920     573.9131
   1425.82886     713.1715     575.8224   1425.82886     713.1715     575.8224
   1425.81360     715.0658     576.8881   1425.81360     715.0658     576.8881
   1425.79834     717.8159     578.6252   1425.79834     717.8159     578.6252
   1425.78308     719.8398     580.8820   1425.78308     719.8398     580.8820
   1425.76782     721.4975     582.4183   1425.76782     721.4975     582.4183
   1425.75256     724.0671     584.0130   1425.75256     724.0671     584.0130
   1425.73730     725.0594     585.6137   1425.73730     725.0594     585.6137
   1425.72205     728.5643     586.7472   1425.72205     728.5643     586.7472
   1425.70679     730.0604     588.1882   1425.70679     730.0604     588.1882
   1425.69153     731.8724     590.1517   1425.69153     731.8724     590.1517
   1425.67627     733.7139     592.1233   1425.67627     733.7139     592.1233
   1425.66101     735.4953     593.3425   1425.66101     735.4953     593.3425
   1425.64575     737.1208     594.4377   1425.64575     737.1208     594.4377
   1425.63049     739.5616     596.3608   1425.63049     739.5616     596.3608
   1425.61523     740.8285     597.5960   1425.61523     740.8285     597.5960
   1425.59998     743.6266     598.7604   1425.59998     743.6266     598.7604
   1425.58472     744.2914     600.2387   1425.58472     744.2914     600.2387
   1425.56946     745.9833     602.5584   1425.56946     745.9833     602.5584
   1425.55420     747.5185     602.0122   1425.55420     747.5185     602.0122
   1425.53894     748.0683     605.6264   1425.53894     748.0683     605.6264
   1425.52368     752.2802     605.5600   1425.52368     752.2802     605.5600
   1425.50842     752.3010     606.7867   1425.50842     752.3010     606.7867
   1425.49316     754.8649     608.1268   1425.49316     754.8649     608.1268
   1425.47791     753.8781     610.0856   1425.47791     753.8781     610.0856
   1425.46265     756.2391     611.1431   1425.46265     756.2391     611.1431
   1425.44739     758.4276     612.3021   1425.44739     758.4276     612.3021
   1425.43213     759.7603     613.0991   1425.43213     759.7603     613.0991
   1425.41687     760.8207     614.7505   1425.41687     760.8207     614.7505
   1425.40161     762.1536     615.4252   1425.40161     762.1536     615.4252
   1425.38635     764.2125     615.4866   1425.38635     764.2125     615.4866
   1425.37109     765.1370     616.8804   1425.37109     765.1370     616.8804
   1425.35583     766.5909     618.6609   1425.35583     766.5909     618.6609
   1425.34058     765.7625     619.4153   1425.34058     765.7625     619.4153
   1425.32532     768.0856     620.5781   1425.32532     768.0856     620.5781
   1425.31006     768.6110     621.9998   1425.31006     768.6110     621.9998
   1425.29480     769.7165     622.4623   1425.29480     769.7165     622.4623
   1425.27954     771.4721     623.5589   1425.27954     771.4721     623.5589
   1425.26428     772.5667     625.7183   1425.26428     772.5667     625.7183
   1425.24902     774.2786     625.2128   1425.24902     774.2786     625.2128
   1425.23376     774.0515     625.9615   1425.23376     774.0515     625.9615
   1425.21851     775.5049     627.3022   1425.21851     775.5049     627.3022
   1425.20325     776.0561     627.8979   1425.20325     776.0561     627.8979
   1425.18799     777.0605     628.8425   1425.18799     777.0605     628.8425
   1425.17273     776.1626     629.5478   1425.17273     776.1626     629.5478
   1425.15747     777.9991     631.3594   1425.15747     777.9991     631.3594
   1425.14221     779.6599     631.7537   1425.14221     779.6599     631.7537
   1425.12695     779.7905     631.8024   1425.12695     779.7905     631.8024
   1425.11169     780.5999     632.3422   1425.11169     780.5999     632.3422
   1425.09644     781.6825     633.6661   1425.09644     781.6825     633.6661
   1425.08118     781.5393     634.3839   1425.08118     781.5393     634.3839
   1425.06592     782.4488     634.4853   1425.06592     782.4488     634.4853
   1425.05066     783.5952     635.6374   1425.05066     783.5952     635.6374
   1425.03540     784.5825     635.9437   1425.03540     784.5825     635.9437
   1425.02014     783.8011     636.9345   1425.02014     783.8011     636.9345
   1425.00488     784.5037     637.7719   1425.00488     784.5037     637.7719
   1424.98962     785.0977     638.1566   1424.98962     785.0977     638.1566
   1424.97437     784.2599     638.1277   1424.97437     784.2599     638.1277
   1424.95911     785.8356     639.2328   1424.95911     785.8356     639.2328
   1424.94385     786.5494     638.5864   1424.94385     786.5494     638.5864
   1424.92859     787.3393     640.0827   1424.92859     787.3393     640.0827
   1424.91333     785.7323     639.9788   1424.91333     785.7323     639.9788
   1424.89807     787.7255     640.8002   1424.89807     787.7255     640.8002
   1424.88281     786.9664     640.5707   1424.88281     786.9664     640.5707
   1424.86755     786.8691     641.5692   1424.86755     786.8691     641.5692
   1424.85229     787.6038     641.3990   1424.85229     787.6038     641.3990
   1424.83704     789.0575     643.8411   1424.83704     789.0575     643.8411
   1424.82178     788.5489     643.6999   1424.82178     788.5489     643.6999
   1424.80652     789.3464     643.4270   1424.80652     789.3464     643.4270
   1424.79126     788.9257     644.1768   1424.79126     788.9257     644.1768
   1424.77600     788.2561     644.1002   1424.77600     788.2561     644.1002
   1424.76074     787.6570     644.0913   1424.76074     787.6570     644.0913
   1424.74548     790.1614     644.5775   1424.74548     790.1614     644.5775
   1424.73022     788.0240     646.6205   1424.73022     788.0240     646.6205
   1424.71497     788.0500     645.0052   1424.71497     788.0500     645.0052
   1424.69971     788.8995     646.6604   1424.69971     788.8995     646.6604
   1424.68445     789.2115     646.3138   1424.68445     789.2115     646.3138
   1424.66919     789.4938     645.1703   1424.66919     789.4938     645.1703
   1424.65393     787.1577     647.1856   1424.65393     787.1577     647.1856
   1424.63867     788.9023     646.4164   1424.63867     788.9023     646.4164
   1424.62341     788.8387     647.2292   1424.62341     788.8387     647.2292
   1424.60815     788.7068     646.7330   1424.60815     788.7068     646.7330
   1424.59290     788.5842     648.1072   1424.59290     788.5842     648.1072
   1424.57764     788.8647     647.2599   1424.57764     788.8647     647.2599
   1424.56238     788.7896     647.0743   1424.56238     788.7896     647.0743
   1424.54712     787.3990     648.4164   1424.54712     787.3990     648.4164
   1424.53186     789.0084     646.9618   1424.53186     789.0084     646.9618
   1424.51660     788.4003     648.4428   1424.51660     788.4003     648.4428
   1424.50134     787.6390     647.2221   1424.50134     787.6390     647.2221
   1424.48608     788.4638     647.2017   1424.48608     788.4638     647.2017
   1424.47083     787.3020     647.5680   1424.47083     787.3020     647.5680
   1424.45557     785.9673     647.6990   1424.45557     785.9673     647.6990
   1424.44031     785.9095     647.4254   1424.44031     785.9095     647.4254
   1424.42505     786.2523     647.9260   1424.42505     786.2523     647.9260
   1424.40979     786.3626     648.7357   1424.40979     786.3626     648.7357
   1424.39453     784.3392     647.9258   1424.39453     784.3392     647.9258
   1424.37927     786.5364     647.6603   1424.37927     786.5364     647.6603
   1424.36401     783.9641     648.6724   1424.36401     783.9641     648.6724
   1424.34875     785.0756     648.5617   1424.34875     785.0756     648.5617
   1424.33350     784.0076     647.9505   1424.33350     784.0076     647.9505
   1424.31824     784.3528     647.8425   1424.31824     784.3528     647.8425
   1424.30298     783.8637     648.4017   1424.30298     783.8637     648.4017
   1424.28772     782.7377     648.7780   1424.28772     782.7377     648.7780
   1424.27246     782.5088     646.9150   1424.27246     782.5088     646.9150
   1424.25720     782.2831     647.2405   1424.25720     782.2831     647.2405
   1424.24194     781.5475     647.4066   1424.24194     781.5475     647.4066
   1424.22668     781.4755     646.5978   1424.22668     781.4755     646.5978
   1424.21143     781.7994     645.8052   1424.21143     781.7994     645.8052
   1424.19617     781.2913     647.0375   1424.19617     781.2913     647.0375
   1424.18091     780.0953     646.3544   1424.18091     780.0953     646.3544
   1424.16565     779.1889     647.6760   1424.16565     779.1889     647.6760
   1424.15039     781.4443     646.2097   1424.15039     781.4443     646.2097
   1424.13513     779.6885     646.7874   1424.13513     779.6885     646.7874
   1424.11987     778.1339     645.5255   1424.11987     778.1339     645.5255
   1424.10461     778.2177     645.8740   1424.10461     778.2177     645.8740
   1424.08936     776.5238     646.0836   1424.08936     776.5238     646.0836
   1424.07410     777.2070     645.6515   1424.07410     777.2070     645.6515
   1424.05884     777.9537     645.0029   1424.05884     777.9537     645.0029
   1424.04358     776.1445     644.4476   1424.04358     776.1445     644.4476
   1424.02832     775.4212     644.2670   1424.02832     775.4212     644.2670
   1424.01306     775.1390     643.9941   1424.01306     775.1390     643.9941
   1423.99780     775.4816     643.5980   1423.99780     775.4816     643.5980
   1423.98254     774.0368     644.2312   1423.98254     774.0368     644.2312
   1423.96729     773.4335     643.2246   1423.96729     773.4335     643.2246
   1423.95203     772.2584     643.8764   1423.95203     772.2584     643.8764
   1423.93677     772.2214     642.0639   1423.93677     772.2214     642.0639
   1423.92151     771.7475     642.8788   1423.92151     771.7475     642.8788
   1423.90625     772.1439     642.3750   1423.90625     772.1439     642.3750
   1423.89099     770.6404     642.4182   1423.89099     770.6404     642.4182
   1423.87573     770.2245     641.3160   1423.87573     770.2245     641.3160
   1423.86047     770.4015     642.1074   1423.86047     770.4015     642.1074
   1423.84521     767.3333     640.2737   1423.84521     767.3333     640.2737
   1423.82996     768.7667     640.5262   1423.82996     768.7667     640.5262
   1423.81470     768.8777     639.9877   1423.81470     768.8777     639.9877
   1423.79944     767.3668     638.5848   1423.79944     767.3668     638.5848
   1423.78418     766.9659     638.8966   1423.78418     766.9659     638.8966
   1423.76892     766.5280     638.1565   1423.76892     766.5280     638.1565
   1423.75366     766.2342     638.0289   1423.75366     766.2342     638.0289
   1423.73840     765.0216     637.4769   1423.73840     765.0216     637.4769
   1423.72314     765.4626     636.8127   1423.72314     765.4626     636.8127
   1423.70789     763.4305     636.3372   1423.70789     763.4305     636.3372
   1423.69263     763.7529     636.3230   1423.69263     763.7529     636.3230
   1423.67737     762.1229     635.9241   1423.67737     762.1229     635.9241
   1423.66211     763.7475     635.2306   1423.66211     763.7475     635.2306
   1423.64685     762.4453     634.9694   1423.64685     762.4453     634.9694
   1423.63159     761.7642     633.8096   1423.63159     761.7642     633.8096
   1423.61633     760.5045     634.4683   1423.61633     760.5045     634.4683
   1423.60107     759.8416     633.3303   1423.60107     759.8416     633.3303
   1423.58582     760.6114     632.5999   1423.58582     760.6114     632.5999
   1423.57056     759.3913     633.2396   1423.57056     759.3913     633.2396
   1423.55530     759.9406     631.6168   1423.55530     759.9406     631.6168
   1423.54004     759.5588     631.4774   1423.54004     759.5588     631.4774
   1423.52478     757.5859     630.7664   1423.52478     757.5859     630.7664
   1423.50952     757.8785     630.2514   1423.50952     757.8785     630.2514
   1423.49426     755.8906     629.5073   1423.49426     755.8906     629.5073
   1423.47900     757.3630     628.6396   1423.47900     757.3630     628.6396
   1423.46375     755.4397     628.5756   1423.46375     755.4397     628.5756
   1423.44849     755.7446     628.3799   1423.44849     755.7446     628.3799
   1423.43323     754.5767     627.3168   1423.43323     754.5767     627.3168
   1423.41797     754.5294     626.1246   1423.41797     754.5294     626.1246
   1423.40271     753.5919     626.5328   1423.40271     753.5919     626.5328
   1423.38745     754.1982     625.8418   1423.38745     754.1982     625.8418
   1423.37219     753.5249     625.3000   1423.37219     753.5249     625.3000
   1423.35693     751.5946     623.8610   1423.35693     751.5946     623.8610
   1423.34167     750.9574     623.5646   1423.34167     750.9574     623.5646
   1423.32642     751.5089     622.4255   1423.32642     751.5089     622.4255
   1423.31116     749.7537     620.3028   1423.31116     749.7537     620.3028
   1423.29590     750.5742     620.2836   1423.29590     750.5742     620.2836
   1423.28064     750.7260     619.6281   1423.28064     750.7260     619.6281
   1423.26538     749.2043     619.7309   1423.26538     749.2043     619.7309
   1423.25012     748.4622     619.4619   1423.25012     748.4622     619.4619
   1423.23486     749.0995     618.4896   1423.23486     749.0995     618.4896
   1423.21960     749.1971     617.2018   1423.21960     749.1971     617.2018
   1423.20435     746.7723     617.7546   1423.20435     746.7723     617.7546
   1423.18909     748.0842     616.6363   1423.18909     748.0842     616.6363
   1423.17383     746.7258     615.8748   1423.17383     746.7258     615.8748
   1423.15857     746.1401     614.5131   1423.15857     746.1401     614.5131
   1423.14331     745.8445     615.2504   1423.14331     745.8445     615.2504
   1423.12805     745.2588     614.5173   1423.12805     745.2588     614.5173
   1423.11279     744.6754     612.9606   1423.11279     744.6754     612.9606
   1423.09753     744.4184     612.6643   1423.09753     744.4184     612.6643
   1423.08228     743.6480     611.0031   1423.08228     743.6480     611.0031
   1423.06702     743.3217     610.0336   1423.06702     743.3217     610.0336
   1423.05176     742.7120     610.5525   1423.05176     742.7120     610.5525
   1423.03650     743.0952     610.2504   1423.03650     743.0952     610.2504
   1423.02124     742.2109     607.6125   1423.02124     742.2109     607.6125
   1423.00598     740.7272     607.5774   1423.00598     740.7272     607.5774
   1422.99072     742.3629     606.2913   1422.99072     742.3629     606.2913
   1422.97546     740.0787     606.5338   1422.97546     740.0787     606.5338
   1422.96021     740.3397     604.1930   1422.96021     740.3397     604.1930
   1422.94495     740.8987     605.1871   1422.94495     740.8987     605.1871
   1422.92969     739.6503     603.9518   1422.92969     739.6503     603.9518
   1422.91443     739.4852     602.7689   1422.91443     739.4852     602.7689
   1422.89917     738.8526     601.6002   1422.89917     738.8526     601.6002
   1422.88391     739.0039     599.8044   1422.88391     739.0039     599.8044
   1422.86865     738.1268     600.2273   1422.86865     738.1268     600.2273
   1422.85339     736.7182     599.8410   1422.85339     736.7182     599.8410
   1422.83813     736.5084     598.4003   1422.83813     736.5084     598.4003
   1422.82288     737.6760     597.4371   1422.82288     737.6760     597.4371
   1422.80762     737.1221     596.8418   1422.80762     737.1221     596.8418
   1422.79236     736.6318     595.8730   1422.79236     736.6318     595.8730
   1422.77710     735.8555     593.6683   1422.77710     735.8555     593.6683
   1422.76184     736.1871     593.7096   1422.76184     736.1871     593.7096
   1422.74658     735.3275     592.9125   1422.74658     735.3275     592.9125
   1422.73132     734.6404     591.9730   1422.73132     734.6404     591.9730
   1422.71606     734.4376     591.1187   1422.71606     734.4376     591.1187
   1422.70081     734.5535     591.3995   1422.70081     734.5535     591.3995
   1422.68555     734.3101     589.1667   1422.68555     734.3101     589.1667
   1422.67029     733.6042     588.2787   1422.67029     733.6042     588.2787
   1422.65503     733.2550     587.7128   1422.65503     733.2550     587.7128
   1422.63977     733.2145     587.4856   1422.63977     733.2145     587.4856
   1422.62451     733.4304     585.2178   1422.62451     733.4304     585.2178
   1422.60925     732.0033     584.0411   1422.60925     732.0033     584.0411
   1422.59399     731.6132     583.8372   1422.59399     731.6132     583.8372
   1422.57874     731.2816     582.1012   1422.57874     731.2816     582.1012
   1422.56348     732.4926     582.8131   1422.56348     732.4926     582.8131
   1422.54822     731.0016     581.7667   1422.54822     731.0016     581.7667
   1422.53296     730.8019     579.4472   1422.53296     730.8019     579.4472
   1422.51770     730.3563     578.5204   1422.51770     730.3563     578.5204
   1422.50244     729.8715     578.4253   1422.50244     729.8715     578.4253
   1422.48718     729.0053     578.0329   1422.48718     729.0053     578.0329
   1422.47192     729.4745     577.0974   1422.47192     729.4745     577.0974
   1422.45667     730.4813     574.1290   1422.45667     730.4813     574.1290
   1422.44141     729.8674     574.7871   1422.44141     729.8674     574.7871
   1422.42615     730.2255     573.8842   1422.42615     730.2255     573.8842
   1422.41089     729.4712     572.4617   1422.41089     729.4712     572.4617
   1422.39563     728.1369     571.3384   1422.39563     728.1369     571.3384
   1422.38037     727.0278     570.3700   1422.38037     727.0278     570.3700
   1422.36511     729.2592     569.0356   1422.36511     729.2592     569.0356
   1422.34985     728.1538     568.5060   1422.34985     728.1538     568.5060
   1422.33459     727.8688     567.3281   1422.33459     727.8688     567.3281
   1422.31934     727.6710     566.1219   1422.31934     727.6710     566.1219
   1422.30408     726.9071     565.3940   1422.30408     726.9071     565.3940
   1422.28882     727.5837     563.7026   1422.28882     727.5837     563.7026
   1422.27356     727.8793     563.6672   1422.27356     727.8793     563.6672
   1422.25830     726.6691     562.9729   1422.25830     726.6691     562.9729
   1422.24304     727.0114     563.3590   1422.24304     727.0114     563.3590
   1422.22778     725.8107     561.8266   1422.22778     725.8107     561.8266
   1422.21252     725.2467     560.5135   1422.21252     725.2467     560.5135
   1422.19727     726.4410     558.9536   1422.19727     726.4410     558.9536
   1422.18201     726.0355     557.2888   1422.18201     726.0355     557.2888
   1422.16675     725.5034     556.7450   1422.16675     725.5034     556.7450
   1422.15149     724.9277     555.7405   1422.15149     724.9277     555.7405
   1422.13623     724.1952     555.3696   1422.13623     724.1952     555.3696
   1422.12097     723.9337     554.1252   1422.12097     723.9337     554.1252
   1422.10571     725.0226     552.0712   1422.10571     725.0226     552.0712
   1422.09045     723.6276     550.7564   1422.09045     723.6276     550.7564
   1422.07520     724.3808     549.7017   1422.07520     724.3808     549.7017
   1422.05994     724.1175     549.8151   1422.05994     724.1175     549.8151
   1422.04468     723.6757     548.1013   1422.04468     723.6757     548.1013
   1422.02942     723.3693     546.9911   1422.02942     723.3693     546.9911
   1422.01416     723.2668     546.7756   1422.01416     723.2668     546.7756
   1421.99890     722.9302     545.2166   1421.99890     722.9302     545.2166
   1421.98364     722.6956     544.2404   1421.98364     722.6956     544.2404
   1421.96838     722.9888     544.1943   1421.96838     722.9888     544.1943
   1421.95312     722.3784     541.7492   1421.95312     722.3784     541.7492
   1421.93787     721.9155     541.6512   1421.93787     721.9155     541.6512
   1421.92261     722.4444     540.5488   1421.92261     722.4444     540.5488
   1421.90735     722.0002     539.1484   1421.90735     722.0002     539.1484
   1421.89209     721.4221     538.3535   1421.89209     721.4221     538.3535
   1421.87683     721.3593     536.5217   1421.87683     721.3593     536.5217
   1421.86157     721.3807     536.2923   1421.86157     721.3807     536.2923
   1421.84631     721.0611     535.2131   1421.84631     721.0611     535.2131
   1421.83105     720.4548     534.1585   1421.83105     720.4548     534.1585
   1421.81580     719.8525     533.8043   1421.81580     719.8525     533.8043
   1421.80054     720.7881     531.9684   1421.80054     720.7881     531.9684
   1421.78528     720.9420     531.4646   1421.78528     720.9420     531.4646
   1421.77002     720.6315     530.0602   1421.77002     720.6315     530.0602
   1421.75476     720.6513     528.9567   1421.75476     720.6513     528.9567
   1421.73950     720.7013     528.8448   1421.73950     720.7013     528.8448
   1421.72424     720.5311     527.0957   1421.72424     720.5311     527.0957
   1421.70898     720.5668     526.3324   1421.70898     720.5668     526.3324
   1421.69373     719.5958     525.1104   1421.69373     719.5958     525.1104
   1421.67847     719.2809     523.4958   1421.67847     719.2809     523.4958
   1421.66321     719.2486     523.5757   1421.66321     719.2486     523.5757
   1421.64795     718.9966     522.8005   1421.64795     718.9966     522.8005
   1421.63269     718.4691     521.4046   1421.63269     718.4691     521.4046
   1421.61743     717.0155     519.3175   1421.61743     717.0155     519.3175
   1421.60217     718.9139     519.4659   1421.60217     718.9139     519.4659
   1421.58691     717.9972     518.2903   1421.58691     717.9972     518.2903
   1421.57166     717.9792     516.3990   1421.57166     717.9792     516.3990
   1421.55640     717.8098     515.8929   1421.55640     717.8098     515.8929
   1421.54114     718.0010     515.3734   1421.54114     718.0010     515.3734
   1421.52588     717.3409     514.5817   1421.52588     717.3409     514.5817
   1421.51062     717.7581     513.1506   1421.51062     717.7581     513.1506
   1421.49536     718.1198     513.3871   1421.49536     718.1198     513.3871
   1421.48010     719.1377     512.2405   1421.48010     719.1377     512.2405
   1421.46484     720.0157     512.2482   1421.46484     720.0157     512.2482
   1421.44958     723.2225     513.4645   1421.44958     723.2225     513.4645
   1421.43433     727.0872     514.7890   1421.43433     727.0872     514.7890
   1421.41907     732.5612     517.0962   1421.41907     732.5612     517.0962
   1421.40381     736.0348     520.4954   1421.40381     736.0348     520.4954
   1421.38855     740.5872     521.8847   1421.38855     740.5872     521.8847
   1421.37329     745.1371     524.1332   1421.37329     745.1371     524.1332
   1421.35803     749.6096     526.4554   1421.35803     749.6096     526.4554
   1421.34277     747.4335     523.7274   1421.34277     747.4335     523.7274
   1421.32751     740.1407     516.7488   1421.32751     740.1407     516.7488
   1421.31226     733.7770     512.9631   1421.31226     733.7770     512.9631
   1421.29700     730.2227     509.2666   1421.29700     730.2227     509.2666
   1421.28174     726.8430     504.9050   1421.28174     726.8430     504.9050
   1421.26648     721.2717     501.2168   1421.26648     721.2717     501.2168
   1421.25122     718.9750     498.8638   1421.25122     718.9750     498.8638
   1421.23596     718.1340     497.7527   1421.23596     718.1340     497.7527
   1421.22070     718.1046     496.8428   1421.22070     718.1046     496.8428
   1421.20544     717.6949     494.5772   1421.20544     717.6949     494.5772
   1421.19019     717.4556     494.1748   1421.19019     717.4556     494.1748
   1421.17493     716.7150     493.1937   1421.17493     716.7150     493.1937
   1421.15967     715.9071     492.3835   1421.15967     715.9071     492.3835
   1421.14441     716.4417     491.2253   1421.14441     716.4417     491.2253
   1421.12915     715.6253     490.8820   1421.12915     715.6253     490.8820
   1421.11389     717.6433     490.5262   1421.11389     717.6433     490.5262
   1421.09863     717.3154     490.1219   1421.09863     717.3154     490.1219
   1421.08337     718.3605     489.3020   1421.08337     718.3605     489.3020
   1421.06812     718.3873     489.0590   1421.06812     718.3873     489.0590
   1421.05286     719.2528     488.5692   1421.05286     719.2528     488.5692
   1421.03760     720.0875     488.5356   1421.03760     720.0875     488.5356
   1421.02234     721.2675     488.6289   1421.02234     721.2675     488.6289
   1421.00708     725.9104     490.6467   1421.00708     725.9104     490.6467
   1420.99182     734.1491     495.1064   1420.99182     734.1491     495.1064
   1420.97656     756.6865     508.8731   1420.97656     756.6865     508.8731
   1420.96130     819.0543     549.5528   1420.96130     819.0543     549.5528
   1420.94604     885.5237     593.2626   1420.94604     885.5237     593.2626
   1420.93079     879.9498     586.6396   1420.93079     879.9498     586.6396
   1420.91553     894.5573     594.8806   1420.91553     894.5573     594.8806
   1420.90027     922.0840     612.4169   1420.90027     922.0840     612.4169
   1420.88501     969.4855     642.0887   1420.88501     969.4855     642.0887
   1420.86975     952.4332     628.9370   1420.86975     952.4332     628.9370
   1420.85449     949.0753     627.0555   1420.85449     949.0753     627.0555
   1420.83923    1050.8583     691.3242   1420.83923    1050.8583     691.3242
   1420.82397    1131.6082     741.2453   1420.82397    1131.6082     741.2453
   1420.80872    1103.3120     722.0315   1420.80872    1103.3120     722.0315
   1420.79346    1056.4059     690.5671   1420.79346    1056.4059     690.5671
   1420.77820    1081.6139     705.2131   1420.77820    1081.6139     705.2131
   1420.76294    1196.1650     777.0753   1420.76294    1196.1650     777.0753
   1420.74768    1412.9716     912.9272   1420.74768    1412.9716     912.9272
   1420.73242    1648.3264    1062.6840   1420.73242    1648.3264    1062.6840
   1420.71716    1902.3181    1223.4054   1420.71716    1902.3181    1223.4054
   1420.70190    2255.4585    1442.2345   1420.70190    2255.4585    1442.2345
   1420.68665    2413.2249    1540.8391   1420.68665    2413.2249    1540.8391
   1420.67139    2364.2136    1508.5864   1420.67139    2364.2136    1508.5864
   1420.65613    2290.5752    1458.3977   1420.65613    2290.5752    1458.3977
   1420.64087    2253.3740    1434.4888   1420.64087    2253.3740    1434.4888
   1420.62561    2198.9233    1394.4341   1420.62561    2198.9233    1394.4341
   1420.61035    1816.7283    1154.7976   1420.61035    1816.7283    1154.7976
   1420.59509    1406.3870     897.1903   1420.59509    1406.3870     897.1903
   1420.57983    1271.6196     811.3427   1420.57983    1271.6196     811.3427
   1420.56458    1286.3691     819.4204   1420.56458    1286.3691     819.4204
   1420.54932    1339.2715     851.6328   1420.54932    1339.2715     851.6328
   1420.53406    1418.3835     898.3088   1420.53406    1418.3835     898.3088
   1420.51880    1321.7466     836.6229   1420.51880    1321.7466     836.6229
   1420.50354    1205.6830     765.3663   1420.50354    1205.6830     765.3663
   1420.48828    1266.8043     801.3425   1420.48828    1266.8043     801.3425
   1420.47302    1492.5099     942.7360   1420.47302    1492.5099     942.7360
   1420.45776    1503.6317     946.7905   1420.45776    1503.6317     946.7905
   1420.44250    1527.0573     959.8710   1420.44250    1527.0573     959.8710
   1420.42725    1516.2648     949.8552   1420.42725    1516.2648     949.8552
   1420.41199    1172.8597     738.7745   1420.41199    1172.8597     738.7745
   1420.39673     892.6033     564.9400   1420.39673     892.6033     564.9400
   1420.38147     795.4979     504.8111   1420.38147     795.4979     504.8111
   1420.36621     752.6569     476.8433   1420.36621     752.6569     476.8433
   1420.35095     731.8004     464.9418   1420.35095     731.8004     464.9418
   1420.33569     721.8679     458.9184   1420.33569     721.8679     458.9184
   1420.32043     717.6281     455.3208   1420.32043     717.6281     455.3208
   1420.30518     714.1677     452.8650   1420.30518     714.1677     452.8650
   1420.28992     712.6649     450.9803   1420.28992     712.6649     450.9803
   1420.27466     711.0397     450.2418   1420.27466     711.0397     450.2418
   1420.25940     711.2512     449.6476   1420.25940     711.2512     449.6476
   1420.24414     710.3922     448.2621   1420.24414     710.3922     448.2621
   1420.22888     709.8362     446.3835   1420.22888     709.8362     446.3835
   1420.21362     708.9792     446.8185   1420.21362     708.9792     446.8185
   1420.19836     707.6487     445.0208   1420.19836     707.6487     445.0208
   1420.18311     706.1785     444.3555   1420.18311     706.1785     444.3555
   1420.16785     706.9268     443.2560   1420.16785     706.9268     443.2560
   1420.15259     706.2792     441.9872   1420.15259     706.2792     441.9872
   1420.13733     705.1438     441.6433   1420.13733     705.1438     441.6433
   1420.12207     704.9149     439.9576   1420.12207     704.9149     439.9576
   1420.10681     703.7013     439.5040   1420.10681     703.7013     439.5040
   1420.09155     702.7488     438.8785   1420.09155     702.7488     438.8785
   1420.07629     701.4860     438.3015   1420.07629     701.4860     438.3015
   1420.06104     701.7818     437.1733   1420.06104     701.7818     437.1733
   1420.04578     702.4177     436.7911   1420.04578     702.4177     436.7911
   1420.03052     701.4799     436.5934   1420.03052     701.4799     436.5934
   1420.01526     703.6995     438.6018   1420.01526     703.6995     438.6018
   1420.00000     704.1813     438.8949   1420.00000     704.1813     438.8949
   1419.98474     704.6627     439.1880   1419.98474     704.6627     439.1880
   1419.96948     704.8015     436.6880   1419.96948     704.8015     436.6880
   1419.95422     702.2744     434.7070   1419.95422     702.2744     434.7070
   1419.93896     701.0748     433.8338   1419.93896     701.0748     433.8338
   1419.92371     700.6892     433.8196   1419.92371     700.6892     433.8196
   1419.90845     701.6694     434.0999   1419.90845     701.6694     434.0999
   1419.89319     701.5618     433.8429   1419.89319     701.5618     433.8429
   1419.87793     702.1335     433.4324   1419.87793     702.1335     433.4324
   1419.86267     701.4711     432.7624   1419.86267     701.4711     432.7624
   1419.84741     701.9561     432.0636   1419.84741     701.9561     432.0636
   1419.83215     702.0513     432.0770   1419.83215     702.0513     432.0770
   1419.81689     703.0991     431.8968   1419.81689     703.0991     431.8968
   1419.80164     701.8113     431.2098   1419.80164     701.8113     431.2098
   1419.78638     701.5391     431.3303   1419.78638     701.5391     431.3303
   1419.77112     701.8730     431.4359   1419.77112     701.8730     431.4359
   1419.75586     702.1954     430.8927   1419.75586     702.1954     430.8927
   1419.74060     702.9450     430.9061   1419.74060     702.9450     430.9061
   1419.72534     702.7860     430.5978   1419.72534     702.7860     430.5978
   1419.71008     704.4984     430.3979   1419.71008     704.4984     430.3979
   1419.69482     703.4451     430.0563   1419.69482     703.4451     430.0563
   1419.67957     704.7814     430.2924   1419.67957     704.7814     430.2924
   1419.66431     704.7726     430.1799   1419.66431     704.7726     430.1799
   1419.64905     703.5480     430.4619   1419.64905     703.5480     430.4619
   1419.63379     704.3700     430.3435   1419.63379     704.3700     430.3435
   1419.61853     702.9915     430.2757   1419.61853     702.9915     430.2757
   1419.60327     704.7416     429.4782   1419.60327     704.7416     429.4782
   1419.58801     704.8170     430.0800   1419.58801     704.8170     430.0800
   1419.57275     704.9808     429.4229   1419.57275     704.9808     429.4229
   1419.55750     705.3981     429.8298   1419.55750     705.3981     429.8298
   1419.54224     705.4747     429.6340   1419.54224     705.4747     429.6340
   1419.52698     705.8173     430.0347   1419.52698     705.8173     430.0347
   1419.51172     706.7773     429.7481   1419.51172     706.7773     429.7481
   1419.49646     706.7502     429.7969   1419.49646     706.7502     429.7969
   1419.48120     705.4048     429.5350   1419.48120     705.4048     429.5350
   1419.46594     707.0139     430.1021   1419.46594     707.0139     430.1021
   1419.45068     708.0577     429.5692   1419.45068     708.0577     429.5692
   1419.43542     707.5228     429.4481   1419.43542     707.5228     429.4481
   1419.42017     708.1122     430.6724   1419.42017     708.1122     430.6724
   1419.40491     707.0436     430.4245   1419.40491     707.0436     430.4245
   1419.38965     709.0925     430.7808   1419.38965     709.0925     430.7808
   1419.37439     709.1016     430.3368   1419.37439     709.1016     430.3368
   1419.35913     709.7081     430.3424   1419.35913     709.7081     430.3424
   1419.34387     708.3727     430.2901   1419.34387     708.3727     430.2901
   1419.32861     709.4631     431.3567   1419.32861     709.4631     431.3567
   1419.31335     710.2164     430.7663   1419.31335     710.2164     430.7663
   1419.29810     710.7191     431.1229   1419.29810     710.7191     431.1229
   1419.28284     710.7062     430.6544   1419.28284     710.7062     430.6544
   1419.26758     712.2306     430.9749   1419.26758     712.2306     430.9749
   1419.25232     711.7007     431.8375   1419.25232     711.7007     431.8375
   1419.23706     711.3497     431.0607   1419.23706     711.3497     431.0607
   1419.22180     712.2194     432.1334   1419.22180     712.2194     432.1334
   1419.20654     712.8929     432.1721   1419.20654     712.8929     432.1721
   1419.19128     713.0536     432.6406   1419.19128     713.0536     432.6406
   1419.17603     714.2336     432.9815   1419.17603     714.2336     432.9815
   1419.16077     713.6351     433.4407   1419.16077     713.6351     433.4407
   1419.14551     715.3092     433.2473   1419.14551     715.3092     433.2473
   1419.13025     715.0860     434.1943   1419.13025     715.0860     434.1943
   1419.11499     714.4274     433.4727   1419.11499     714.4274     433.4727
   1419.09973     716.2863     434.2547   1419.09973     716.2863     434.2547
   1419.08447     717.3052     434.4236   1419.08447     717.3052     434.4236
   1419.06921     717.2088     434.4466   1419.06921     717.2088     434.4466
   1419.05396     718.0126     434.8094   1419.05396     718.0126     434.8094
   1419.03870     717.5369     435.3358   1419.03870     717.5369     435.3358
   1419.02344     718.9061     435.8571   1419.02344     718.9061     435.8571
   1419.00818     718.5766     436.4625   1419.00818     718.5766     436.4625
   1418.99292     718.1998     437.4765   1418.99292     718.1998     437.4765
   1418.97766     719.0519     437.5279   1418.97766     719.0519     437.5279
   1418.96240     720.2480     437.0187   1418.96240     720.2480     437.0187
   1418.94714     720.6046     438.4984   1418.94714     720.6046     438.4984
   1418.93188     722.6450     438.4136   1418.93188     722.6450     438.4136
   1418.91663     722.4078     439.3510   1418.91663     722.4078     439.3510
   1418.90137     722.7006     439.2960   1418.90137     722.7006     439.2960
   1418.88611     722.1501     440.1066   1418.88611     722.1501     440.1066
   1418.87085     724.4615     440.8644   1418.87085     724.4615     440.8644
   1418.85559     724.9128     441.3711   1418.85559     724.9128     441.3711
   1418.84033     725.1392     441.0399   1418.84033     725.1392     441.0399
   1418.82507     724.1408     442.1577   1418.82507     724.1408     442.1577
   1418.80981     725.3853     442.2413   1418.80981     725.3853     442.2413
   1418.79456     727.4059     442.7496   1418.79456     727.4059     442.7496
   1418.77930     726.2875     443.2223   1418.77930     726.2875     443.2223
   1418.76404     728.0701     443.9218   1418.76404     728.0701     443.9218
   1418.74878     727.7054     444.3378   1418.74878     727.7054     444.3378
   1418.73352     728.7433     446.0298   1418.73352     728.7433     446.0298
   1418.71826     729.8372     445.9687   1418.71826     729.8372     445.9687
   1418.70300     730.8116     446.4251   1418.70300     730.8116     446.4251
   1418.68774     730.7264     448.0563   1418.68774     730.7264     448.0563
   1418.67249     731.2578     447.3614   1418.67249     731.2578     447.3614
   1418.65723     731.7519     448.4905   1418.65723     731.7519     448.4905
   1418.64197     733.5533     448.7756   1418.64197     733.5533     448.7756
   1418.62671     734.3524     449.1824   1418.62671     734.3524     449.1824
   1418.61145     734.7911     450.1783   1418.61145     734.7911     450.1783
   1418.59619     734.4230     451.7436   1418.59619     734.4230     451.7436
   1418.58093     736.2316     452.3910   1418.58093     736.2316     452.3910
   1418.56567     737.3715     452.1892   1418.56567     737.3715     452.1892
   1418.55042     736.9000     453.5130   1418.55042     736.9000     453.5130
   1418.53516     737.6567     454.6675   1418.53516     737.6567     454.6675
   1418.51990     738.5865     454.7404   1418.51990     738.5865     454.7404
   1418.50464     740.2699     455.9874   1418.50464     740.2699     455.9874
   1418.48938     740.5800     455.8573   1418.48938     740.5800     455.8573
   1418.47412     740.7261     456.7419   1418.47412     740.7261     456.7419
   1418.45886     741.3497     457.5196   1418.45886     741.3497     457.5196
   1418.44360     741.1716     458.3066   1418.44360     741.1716     458.3066
   1418.42834     743.3398     459.9186   1418.42834     743.3398     459.9186
   1418.41309     744.4093     459.9002   1418.41309     744.4093     459.9002
   1418.39783     743.8383     461.0245   1418.39783     743.8383     461.0245
   1418.38257     745.6879     461.9876   1418.38257     745.6879     461.9876
   1418.36731     745.8837     462.3634   1418.36731     745.8837     462.3634
   1418.35205     746.4322     464.3401   1418.35205     746.4322     464.3401
   1418.33679     746.8328     464.4169   1418.33679     746.8328     464.4169
   1418.32153     748.2917     465.2536   1418.32153     748.2917     465.2536
   1418.30627     748.5112     466.0342   1418.30627     748.5112     466.0342
   1418.29102     749.1539     467.2400   1418.29102     749.1539     467.2400
   1418.27576     750.0823     468.4066   1418.27576     750.0823     468.4066
   1418.26050     752.1665     469.1432   1418.26050     752.1665     469.1432
   1418.24524     751.6674     469.8385   1418.24524     751.6674     469.8385
   1418.22998     752.6986     470.7937   1418.22998     752.6986     470.7937
   1418.21472     753.2546     470.7661   1418.21472     753.2546     470.7661
   1418.19946     754.7529     472.6273   1418.19946     754.7529     472.6273
   1418.18420     755.2891     473.7688   1418.18420     755.2891     473.7688
   1418.16895     756.6965     474.7456   1418.16895     756.6965     474.7456
   1418.15369     757.9461     475.0113   1418.15369     757.9461     475.0113
   1418.13843     757.3563     476.5943   1418.13843     757.3563     476.5943
   1418.12317     758.3193     477.3890   1418.12317     758.3193     477.3890
   1418.10791     759.4117     478.5833   1418.10791     759.4117     478.5833
   1418.09265     761.1953     479.2098   1418.09265     761.1953     479.2098
   1418.07739     760.9397     480.8190   1418.07739     760.9397     480.8190
   1418.06213     762.5214     481.2648   1418.06213     762.5214     481.2648
   1418.04688     763.2339     481.5609   1418.04688     763.2339     481.5609
   1418.03162     764.5390     482.8232   1418.03162     764.5390     482.8232
   1418.01636     764.8931     483.6373   1418.01636     764.8931     483.6373
   1418.00110     765.5314     484.9545   1418.00110     765.5314     484.9545
   1417.98584     767.0856     486.3835   1417.98584     767.0856     486.3835
   1417.97058     767.1408     486.9359   1417.97058     767.1408     486.9359
   1417.95532     768.0408     488.2668   1417.95532     768.0408     488.2668
   1417.94006     769.8860     489.5036   1417.94006     769.8860     489.5036
   1417.92480     771.0374     490.1684   1417.92480     771.0374     490.1684
   1417.90955     771.8300     492.3025   1417.90955     771.8300     492.3025
   1417.89429     772.0667     492.6504   1417.89429     772.0667     492.6504
   1417.87903     773.4911     493.4480   1417.87903     773.4911     493.4480
   1417.86377     773.6248     494.5305   1417.86377     773.6248     494.5305
   1417.84851     774.2648     495.8595   1417.84851     774.2648     495.8595
   1417.83325     776.2947     497.3325   1417.83325     776.2947     497.3325
   1417.81799     777.3806     498.0545   1417.81799     777.3806     498.0545
   1417.80273     777.0788     499.2269   1417.80273     777.0788     499.2269
   1417.78748     778.3925     499.8502   1417.78748     778.3925     499.8502
   1417.77222     779.2076     500.3416   1417.77222     779.2076     500.3416
   1417.75696     780.2358     501.5617   1417.75696     780.2358     501.5617
   1417.74170     782.4344     503.4846   1417.74170     782.4344     503.4846
   1417.72644     782.4938     504.3782   1417.72644     782.4938     504.3782
   1417.71118     783.7852     505.6817   1417.71118     783.7852     505.6817
   1417.69592     783.9927     505.7663   1417.69592     783.9927     505.7663
   1417.68066     783.7971     507.6903   1417.68066     783.7971     507.6903
   1417.66541     785.9724     508.0973   1417.66541     785.9724     508.0973
   1417.65015     785.7936     509.4832   1417.65015     785.7936     509.4832
   1417.63489     786.7316     511.0031   1417.63489     786.7316     511.0031
   1417.61963     788.0553     511.0922   1417.61963     788.0553     511.0922
   1417.60437     787.8275     512.9666   1417.60437     787.8275     512.9666
   1417.58911     789.5682     514.5587   1417.58911     789.5682     514.5587
   1417.57385     790.9509     515.5384   1417.57385     790.9509     515.5384
   1417.55859     791.4396     516.2061   1417.55859     791.4396     516.2061
   1417.54333     791.8024     517.2350   1417.54333     791.8024     517.2350
   1417.52808     792.9844     518.1929   1417.52808     792.9844     518.1929
   1417.51282     794.7103     519.4479   1417.51282     794.7103     519.4479
   1417.49756     795.7134     519.9315   1417.49756     795.7134     519.9315
   1417.48230     795.4128     521.9537   1417.48230     795.4128     521.9537
   1417.46704     797.8773     522.7109   1417.46704     797.8773     522.7109
   1417.45178     797.2062     523.5768   1417.45178     797.2062     523.5768
   1417.43652     797.2844     525.0961   1417.43652     797.2844     525.0961
   1417.42126     799.5189     526.4370   1417.42126     799.5189     526.4370
   1417.40601     800.6472     527.4777   1417.40601     800.6472     527.4777
   1417.39075     800.2397     527.9586   1417.39075     800.2397     527.9586
   1417.37549     802.5760     529.0097   1417.37549     802.5760     529.0097
   1417.36023     801.7853     530.3630   1417.36023     801.7853     530.3630
   1417.34497     803.6963     531.1999   1417.34497     803.6963     531.1999
   1417.32971     804.0901     532.3198   1417.32971     804.0901     532.3198
   1417.31445     805.2921     533.4979   1417.31445     805.2921     533.4979
   1417.29919     804.8423     535.0681   1417.29919     804.8423     535.0681
   1417.28394     806.2415     536.2693   1417.28394     806.2415     536.2693
   1417.26868     807.7847     537.0220   1417.26868     807.7847     537.0220
   1417.25342     808.5904     537.7307   1417.25342     808.5904     537.7307
   1417.23816     808.5298     539.3124   1417.23816     808.5298     539.3124
   1417.22290     811.3389     539.7246   1417.22290     811.3389     539.7246
   1417.20764     809.8445     540.5073   1417.20764     809.8445     540.5073
   1417.19238     811.7094     540.8532   1417.19238     811.7094     540.8532
   1417.17712     813.5893     542.8749   1417.17712     813.5893     542.8749
   1417.16187     812.9785     544.0450   1417.16187     812.9785     544.0450
   1417.14661     813.8544     544.3578   1417.14661     813.8544     544.3578
   1417.13135     813.2576     545.2513   1417.13135     813.2576     545.2513
   1417.11609     814.7816     546.3459   1417.11609     814.7816     546.3459
   1417.10083     815.5611     547.0243   1417.10083     815.5611     547.0243
   1417.08557     815.7807     546.9883   1417.08557     815.7807     546.9883
   1417.07031     816.5931     548.5811   1417.07031     816.5931     548.5811
   1417.05505     815.1866     549.2921   1417.05505     815.1866     549.2921
   1417.03979     817.0660     550.4085   1417.03979     817.0660     550.4085
   1417.02454     817.6055     551.7773   1417.02454     817.6055     551.7773
   1417.00928     818.4523     553.3859   1417.00928     818.4523     553.3859
   1416.99402     819.8674     553.1028   1416.99402     819.8674     553.1028
   1416.97876     820.8676     553.6750   1416.97876     820.8676     553.6750
   1416.96350     820.6765     553.7022   1416.96350     820.6765     553.7022
   1416.94824     821.6809     555.5859   1416.94824     821.6809     555.5859
   1416.93298     820.7141     556.3962   1416.93298     820.7141     556.3962
   1416.91772     821.1129     555.7552   1416.91772     821.1129     555.7552
   1416.90247     822.6520     557.2185   1416.90247     822.6520     557.2185
   1416.88721     823.3403     557.8704   1416.88721     823.3403     557.8704
   1416.87195     822.8555     557.6425   1416.87195     822.8555     557.6425
   1416.85669     824.2000     559.8564   1416.85669     824.2000     559.8564
   1416.84143     824.0607     559.7206   1416.84143     824.0607     559.7206
   1416.82617     824.7584     560.5436   1416.82617     824.7584     560.5436
   1416.81091     824.8303     561.0326   1416.81091     824.8303     561.0326
   1416.79565     825.5701     561.2585   1416.79565     825.5701     561.2585
   1416.78040     825.4202     562.3873   1416.78040     825.4202     562.3873
   1416.76514     826.3288     561.7118   1416.76514     826.3288     561.7118
   1416.74988     825.8795     562.6069   1416.74988     825.8795     562.6069
   1416.73462     826.7233     562.5957   1416.73462     826.7233     562.5957
   1416.71936     826.4972     562.5515   1416.71936     826.4972     562.5515
   1416.70410     827.8738     563.7152   1416.70410     827.8738     563.7152
   1416.68884     826.7285     563.9991   1416.68884     826.7285     563.9991
   1416.67358     827.6140     565.4974   1416.67358     827.6140     565.4974
   1416.65833     827.6254     564.8620   1416.65833     827.6254     564.8620
   1416.64307     827.8388     565.2179   1416.64307     827.8388     565.2179
   1416.62781     827.2891     565.7867   1416.62781     827.2891     565.7867
   1416.61255     830.4268     564.6657   1416.61255     830.4268     564.6657
   1416.59729     830.2360     566.0480   1416.59729     830.2360     566.0480
   1416.58203     827.6030     565.0660   1416.58203     827.6030     565.0660
   1416.56677     828.2917     565.4999   1416.56677     828.2917     565.4999
   1416.55151     828.4106     566.5818   1416.55151     828.4106     566.5818
   1416.53625     827.7504     565.8196   1416.53625     827.7504     565.8196
   1416.52100     830.4207     564.6602   1416.52100     830.4207     564.6602
   1416.50574     829.2475     566.0282   1416.50574     829.2475     566.0282
   1416.49048     830.0721     565.8619   1416.49048     830.0721     565.8619
   1416.47522     829.4301     566.4505   1416.47522     829.4301     566.4505
   1416.45996     829.3821     566.4935   1416.45996     829.3821     566.4935
   1416.44470     828.5586     565.0888   1416.44470     828.5586     565.0888
   1416.42944     829.7488     565.3162   1416.42944     829.7488     565.3162
   1416.41418     829.4981     565.5771   1416.41418     829.4981     565.5771
   1416.39893     828.2076     565.4327   1416.39893     828.2076     565.4327
   1416.38367     828.9550     565.3103   1416.38367     828.9550     565.3103
   1416.36841     829.4229     565.0007   1416.36841     829.4229     565.0007
   1416.35315     828.5397     564.4612   1416.35315     828.5397     564.4612
   1416.33789     828.5952     563.5059   1416.33789     828.5952     563.5059
   1416.32263     828.5222     563.5712   1416.32263     828.5222     563.5712
   1416.30737     827.1098     563.8937   1416.30737     827.1098     563.8937
   1416.29211     826.3892     563.7613   1416.29211     826.3892     563.7613
   1416.27686     826.9384     563.2540   1416.27686     826.9384     563.2540
   1416.26160     826.5374     563.1151   1416.26160     826.5374     563.1151
   1416.24634     827.5250     561.7532   1416.24634     827.5250     561.7532
   1416.23108     827.7418     562.0717   1416.23108     827.7418     562.0717
   1416.21582     828.5758     561.7206   1416.21582     828.5758     561.7206
   1416.20056     825.4835     560.8587   1416.20056     825.4835     560.8587
   1416.18530     825.5545     560.3989   1416.18530     825.5545     560.3989
   1416.17004     824.6638     560.6721   1416.17004     824.6638     560.6721
   1416.15479     824.2375     560.0043   1416.15479     824.2375     560.0043
   1416.13953     825.7808     559.4742   1416.13953     825.7808     559.4742
   1416.12427     824.5134     558.6409   1416.12427     824.5134     558.6409
   1416.10901     823.3854     558.4305   1416.10901     823.3854     558.4305
   1416.09375     824.4659     558.4949   1416.09375     824.4659     558.4949
   1416.07849     823.2307     556.7926   1416.07849     823.2307     556.7926
   1416.06323     821.6138     557.7344   1416.06323     821.6138     557.7344
   1416.04797     822.3828     556.1539   1416.04797     822.3828     556.1539
   1416.03271     822.0251     555.7976   1416.03271     822.0251     555.7976
   1416.01746     822.0337     554.9119   1416.01746     822.0337     554.9119
   1416.00220     820.3622     554.4780   1416.00220     820.3622     554.4780
   1415.98694     818.9675     553.8589   1415.98694     818.9675     553.8589
   1415.97168     818.8110     553.2310   1415.97168     818.8110     553.2310
   1415.95642     817.5029     554.0518   1415.95642     817.5029     554.0518
   1415.94116     818.6492     551.4677   1415.94116     818.6492     551.4677
   1415.92590     817.2372     551.1422   1415.92590     817.2372     551.1422
   1415.91064     816.3471     551.3502   1415.91064     816.3471     551.3502
   1415.89539     816.5247     549.8833   1415.89539     816.5247     549.8833
   1415.88013     816.7819     548.9819   1415.88013     816.7819     548.9819
   1415.86487     815.5699     548.6432   1415.86487     815.5699     548.6432
   1415.84961     815.6190     547.2706   1415.84961     815.6190     547.2706
   1415.83435     814.5074     547.1061   1415.83435     814.5074     547.1061
   1415.81909     812.3278     546.5635   1415.81909     812.3278     546.5635
   1415.80383     813.1805     545.9966   1415.80383     813.1805     545.9966
   1415.78857     811.9932     544.5631   1415.78857     811.9932     544.5631
   1415.77332     811.3264     543.7676   1415.77332     811.3264     543.7676
   1415.75806     810.4634     543.8423   1415.75806     810.4634     543.8423
   1415.74280     810.0238     543.5696   1415.74280     810.0238     543.5696
   1415.72754     809.6591     541.7607   1415.72754     809.6591     541.7607
   1415.71228     808.4537     541.3106   1415.71228     808.4537     541.3106
   1415.69702     807.6946     541.3577   1415.69702     807.6946     541.3577
   1415.68176     806.0597     539.9181   1415.68176     806.0597     539.9181
   1415.66650     805.6762     538.8323   1415.66650     805.6762     538.8323
   1415.65125     807.0362     538.5882   1415.65125     807.0362     538.5882
   1415.63599     804.6036     536.8115   1415.63599     804.6036     536.8115
   1415.62073     802.9434     536.5290   1415.62073     802.9434     536.5290
   1415.60547     802.3383     536.3392   1415.60547     802.3383     536.3392
   1415.59021     801.1406     535.5262   1415.59021     801.1406     535.5262
   1415.57495     801.3513     534.5307   1415.57495     801.3513     534.5307
   1415.55969     800.3510     532.9916   1415.55969     800.3510     532.9916
   1415.54443     800.1371     532.6848   1415.54443     800.1371     532.6848
   1415.52917     798.2858     532.5116   1415.52917     798.2858     532.5116
   1415.51392     797.7631     530.2958   1415.51392     797.7631     530.2958
   1415.49866     797.0103     530.0906   1415.49866     797.0103     530.0906
   1415.48340     795.5588     529.3416   1415.48340     795.5588     529.3416
   1415.46814     795.3728     527.9675   1415.46814     795.3728     527.9675
   1415.45288     796.0097     527.7432   1415.45288     796.0097     527.7432
   1415.43762     792.2461     526.7759   1415.43762     792.2461     526.7759
   1415.42236     792.7833     525.2015   1415.42236     792.7833     525.2015
   1415.40710     790.5234     524.7067   1415.40710     790.5234     524.7067
   1415.39185     788.8862     523.7398   1415.39185     788.8862     523.7398
   1415.37659     788.3555     523.0272   1415.37659     788.3555     523.0272
   1415.36133     787.5950     521.9362   1415.36133     787.5950     521.9362
   1415.34607     786.2385     521.1822   1415.34607     786.2385     521.1822
   1415.33081     785.6913     519.8383   1415.33081     785.6913     519.8383
   1415.31555     783.9605     519.0515   1415.31555     783.9605     519.0515
   1415.30029     782.3591     518.7354   1415.30029     782.3591     518.7354
   1415.28503     781.5466     517.9258   1415.28503     781.5466     517.9258
   1415.26978     781.5527     516.1846   1415.26978     781.5527     516.1846
   1415.25452     778.6799     515.7251   1415.25452     778.6799     515.7251
   1415.23926     778.3380     514.0650   1415.23926     778.3380     514.0650
   1415.22400     776.3695     514.3031   1415.22400     776.3695     514.3031
   1415.20874     775.4303     513.0528   1415.20874     775.4303     513.0528
   1415.19348     773.7818     511.5531   1415.19348     773.7818     511.5531
   1415.17822     772.1140     510.7143   1415.17822     772.1140     510.7143
   1415.16296     770.1354     509.5964   1415.16296     770.1354     509.5964
   1415.14771     768.3801     508.1309   1415.14771     768.3801     508.1309
   1415.13245     767.6893     507.6874   1415.13245     767.6893     507.6874
   1415.11719     766.8916     506.2309   1415.11719     766.8916     506.2309
   1415.10193     766.1230     505.7072   1415.10193     766.1230     505.7072
   1415.08667     764.4664     504.3387   1415.08667     764.4664     504.3387
   1415.07141     762.3511     503.1651   1415.07141     762.3511     503.1651
   1415.05615     762.1774     502.5949   1415.05615     762.1774     502.5949
   1415.04089     759.0960     500.9457   1415.04089     759.0960     500.9457
   1415.02563     757.4001     499.9228   1415.02563     757.4001     499.9228
   1415.01038     755.0921     499.6667   1415.01038     755.0921     499.6667
   1414.99512     753.4274     497.7790   1414.99512     753.4274     497.7790
   1414.97986     753.5840     496.4950   1414.97986     753.5840     496.4950
   1414.96460     751.3921     495.8512   1414.96460     751.3921     495.8512
   1414.94934     750.0241     494.8350   1414.94934     750.0241     494.8350
   1414.93408     747.3357     492.9689   1414.93408     747.3357     492.9689
   1414.91882     745.7381     491.9908   1414.91882     745.7381     491.9908
   1414.90356     743.4576     490.6725   1414.90356     743.4576     490.6725
   1414.88831     743.6959     490.0996   1414.88831     743.6959     490.0996
   1414.87305     740.6664     489.0573   1414.87305     740.6664     489.0573
   1414.85779     739.7628     487.5395   1414.85779     739.7628     487.5395
   1414.84253     736.4412     486.0611   1414.84253     736.4412     486.0611
   1414.82727     736.1670     485.6760   1414.82727     736.1670     485.6760
   1414.81201     734.0139     483.3661   1414.81201     734.0139     483.3661
   1414.79675     731.2301     481.9503   1414.79675     731.2301     481.9503
   1414.78149     729.5854     481.5711   1414.78149     729.5854     481.5711
   1414.76624     728.0086     479.1656   1414.76624     728.0086     479.1656
   1414.75098     725.8587     478.7766   1414.75098     725.8587     478.7766
   1414.73572     723.5945     476.8185   1414.73572     723.5945     476.8185
   1414.72046     720.8425     476.1302   1414.72046     720.8425     476.1302
   1414.70520     720.3436     474.5513   1414.70520     720.3436     474.5513
   1414.68994     718.0908     473.6059   1414.68994     718.0908     473.6059
   1414.67468     715.1375     472.7755   1414.67468     715.1375     472.7755
   1414.65942     712.7571     471.3002   1414.65942     712.7571     471.3002
   1414.64417     711.1286     470.0413   1414.64417     711.1286     470.0413
   1414.62891     710.4627     468.4699   1414.62891     710.4627     468.4699
   1414.61365     706.4664     466.3364   1414.61365     706.4664     466.3364
   1414.59839     704.8832     465.7213   1414.59839     704.8832     465.7213
   1414.58313     702.8893     463.3507   1414.58313     702.8893     463.3507
   1414.56787     700.8705     462.9460   1414.56787     700.8705     462.9460
   1414.55261     698.8266     461.3871   1414.55261     698.8266     461.3871
   1414.53735     695.5280     460.1595   1414.53735     695.5280     460.1595
   1414.52209     693.4364     458.6418   1414.52209     693.4364     458.6418
   1414.50684     690.8538     457.4819   1414.50684     690.8538     457.4819
   1414.49158     689.8243     455.5687   1414.49158     689.8243     455.5687
   1414.47632     687.0999     454.0462   1414.47632     687.0999     454.0462
   1414.46106     684.4208     452.3271   1414.46106     684.4208     452.3271
   1414.44580     682.0313     451.2390   1414.44580     682.0313     451.2390
   1414.43054     679.1384     450.4621   1414.43054     679.1384     450.4621
   1414.41528     676.9449     448.8669   1414.41528     676.9449     448.8669
   1414.40002     674.6927     446.6843   1414.40002     674.6927     446.6843
   1414.38477     671.4923     445.6807   1414.38477     671.4923     445.6807
   1414.36951     670.2844     444.1870   1414.36951     670.2844     444.1870
   1414.35425     667.0975     443.1820   1414.35425     667.0975     443.1820
   1414.33899     663.8538     440.4442   1414.33899     663.8538     440.4442
   1414.32373     662.0102     439.6607   1414.32373     662.0102     439.6607
   1414.30847     659.7882     438.3925   1414.30847     659.7882     438.3925
   1414.29321     657.8447     436.8391   1414.29321     657.8447     436.8391
   1414.27795     654.8086     434.2986   1414.27795     654.8086     434.2986
   1414.26270     651.3531     433.5005   1414.26270     651.3531     433.5005
   1414.24744     649.0528     431.7798   1414.24744     649.0528     431.7798
   1414.23218     647.2319     430.1190   1414.23218     647.2319     430.1190
   1414.21692     643.9307     428.0056   1414.21692     643.9307     428.0056
   1414.20166     640.7158     426.0428   1414.20166     640.7158     426.0428
   1414.18640     638.8230     425.0040   1414.18640     638.8230     425.0040
   1414.17114     635.8246     422.6056   1414.17114     635.8246     422.6056
   1414.15588     634.0312     422.3016   1414.15588     634.0312     422.3016
   1414.14062     629.8387     419.9791   1414.14062     629.8387     419.9791
   1414.12537     628.2019     417.6214   1414.12537     628.2019     417.6214
   1414.11011     624.4425     416.7465   1414.11011     624.4425     416.7465
   1414.09485     622.3605     414.6846   1414.09485     622.3605     414.6846
   1414.07959     618.4905     413.6296   1414.07959     618.4905     413.6296
   1414.06433     616.3073     410.8879   1414.06433     616.3073     410.8879
   1414.04907     613.7833     410.3180   1414.04907     613.7833     410.3180
   1414.03381     610.5274     408.5166   1414.03381     610.5274     408.5166
   1414.01855     609.1475     407.0142   1414.01855     609.1475     407.0142
   1414.00330     636.3013     413.8458   1414.00330     636.3013     413.8458
   1413.98804     604.0316     403.4535   1413.98804     604.0316     403.4535
   1413.97278     599.6848     401.0867   1413.97278     599.6848     401.0867
   1413.95752     595.5217     399.3991   1413.95752     595.5217     399.3991
   1413.94226     593.2792     398.1521   1413.94226     593.2792     398.1521
   1413.92700     590.3240     395.9450   1413.92700     590.3240     395.9450
   1413.91174     587.4156     394.8635   1413.91174     587.4156     394.8635
   1413.89648     584.0187     392.9029   1413.89648     584.0187     392.9029
   1413.88123     581.3213     391.2793   1413.88123     581.3213     391.2793
   1413.86597     578.1901     389.4040   1413.86597     578.1901     389.4040
   1413.85071     575.1096     387.4773   1413.85071     575.1096     387.4773
   1413.83545     572.1816     385.8086   1413.83545     572.1816     385.8086
   1413.82019     569.1161     384.3109   1413.82019     569.1161     384.3109
   1413.80493     565.9409     382.9643   1413.80493     565.9409     382.9643
   1413.78967     561.8031     381.1457   1413.78967     561.8031     381.1457
   1413.77441     560.1989     378.8943   1413.77441     560.1989     378.8943
   1413.75916     557.8384     377.0465   1413.75916     557.8384     377.0465
   1413.74390     554.6425     375.7065   1413.74390     554.6425     375.7065
   1413.72864     551.9265     373.4885   1413.72864     551.9265     373.4885
   1413.71338     547.4888     371.8331   1413.71338     547.4888     371.8331
   1413.69812     545.6387     370.2571   1413.69812     545.6387     370.2571
   1413.68286     542.9636     368.7627   1413.68286     542.9636     368.7627
   1413.66760     539.0663     367.1383   1413.66760     539.0663     367.1383
   1413.65234     536.0761     365.4143   1413.65234     536.0761     365.4143
   1413.63708     534.0914     363.0789   1413.63708     534.0914     363.0789
   1413.62183     530.7613     361.5034   1413.62183     530.7613     361.5034
   1413.60657     527.8644     359.3792   1413.60657     527.8644     359.3792
   1413.59131     523.7908     358.2902   1413.59131     523.7908     358.2902
   1413.57605     522.2199     356.8153   1413.57605     522.2199     356.8153
   1413.56079     519.7008     355.4299   1413.56079     519.7008     355.4299
   1413.54553     516.3293     353.7912   1413.54553     516.3293     353.7912
   1413.53027     513.3614     351.3258   1413.53027     513.3614     351.3258
   1413.51501     509.9830     350.1909   1413.51501     509.9830     350.1909
   1413.49976     506.1486     347.7679   1413.49976     506.1486     347.7679
   1413.48450     504.8452     346.1888   1413.48450     504.8452     346.1888
   1413.46924     501.0119     344.7957   1413.46924     501.0119     344.7957
   1413.45398     498.7383     343.0692   1413.45398     498.7383     343.0692
   1413.43872     495.8954     341.1555   1413.43872     495.8954     341.1555
   1413.42346     492.9728     339.2299   1413.42346     492.9728     339.2299
   1413.40820     490.1836     338.3988   1413.40820     490.1836     338.3988
   1413.39294     486.9905     336.2940   1413.39294     486.9905     336.2940
   1413.37769     484.3677     334.9775   1413.37769     484.3677     334.9775
   1413.36243     481.1614     333.8799   1413.36243     481.1614     333.8799
   1413.34717     479.0586     331.9862   1413.34717     479.0586     331.9862
   1413.33191     475.7385     330.5287   1413.33191     475.7385     330.5287
   1413.31665     473.3683     328.8665   1413.31665     473.3683     328.8665
   1413.30139     470.4736     326.7859   1413.30139     470.4736     326.7859
   1413.28613     468.2000     325.8386   1413.28613     468.2000     325.8386
   1413.27087     465.2531     324.3800   1413.27087     465.2531     324.3800
   1413.25562     462.5731     322.9358   1413.25562     462.5731     322.9358
   1413.24036     460.0007     321.7407   1413.24036     460.0007     321.7407
   1413.22510     457.3815     320.2518   1413.22510     457.3815     320.2518
   1413.20984     455.1997     317.9525   1413.20984     455.1997     317.9525
   1413.19458     452.7250     316.7451   1413.19458     452.7250     316.7451
   1413.17932     450.3121     315.5190   1413.17932     450.3121     315.5190
   1413.16406     447.3749     314.3756   1413.16406     447.3749     314.3756
   1413.14880     444.9495     312.5830   1413.14880     444.9495     312.5830
   1413.13354     442.3156     311.7599   1413.13354     442.3156     311.7599
   1413.11829     440.1261     310.4906   1413.11829     440.1261     310.4906
   1413.10303     437.3391     309.1496   1413.10303     437.3391     309.1496
   1413.08777     436.2480     307.7303   1413.08777     436.2480     307.7303
   1413.07251     433.1076     306.1544   1413.07251     433.1076     306.1544
   1413.05725     431.0640     305.8452   1413.05725     431.0640     305.8452
   1413.04199     429.2170     303.9096   1413.04199     429.2170     303.9096
   1413.02673     427.0495     303.1198   1413.02673     427.0495     303.1198
   1413.01147     424.5825     301.9576   1413.01147     424.5825     301.9576
   1412.99622     422.2405     300.7435   1412.99622     422.2405     300.7435
   1412.98096     420.5475     299.5434   1412.98096     420.5475     299.5434
   1412.96570     418.3911     298.9464   1412.96570     418.3911     298.9464
   1412.95044     415.8610     297.2137   1412.95044     415.8610     297.2137
   1412.93518     414.0921     296.1819   1412.93518     414.0921     296.1819
   1412.91992     412.8494     295.6559   1412.91992     412.8494     295.6559
   1412.90466     410.4228     294.6498   1412.90466     410.4228     294.6498
   1412.88940     408.6872     293.3660   1412.88940     408.6872     293.3660
   1412.87415     407.1494     292.7770   1412.87415     407.1494     292.7770
   1412.85889     405.6317     292.1387   1412.85889     405.6317     292.1387
   1412.84363     403.0766     291.1352   1412.84363     403.0766     291.1352
   1412.82837     401.3488     290.3078   1412.82837     401.3488     290.3078
   1412.81311     399.9826     289.7384   1412.81311     399.9826     289.7384
   1412.79785     398.2677     289.1214   1412.79785     398.2677     289.1214
   1412.78259     397.5296     288.3072   1412.78259     397.5296     288.3072
   1412.76733     395.7739     287.8349   1412.76733     395.7739     287.8349
   1412.75208     393.6387     287.1024   1412.75208     393.6387     287.1024
   1412.73682     392.8470     285.9182   1412.73682     392.8470     285.9182
   1412.72156     391.6652     285.7700   1412.72156     391.6652     285.7700
   1412.70630     390.6735     285.1532   1412.70630     390.6735     285.1532
   1412.69104     388.3620     284.8449   1412.69104     388.3620     284.8449
   1412.67578     387.9129     284.2726   1412.67578     387.9129     284.2726
   1412.66052     386.0246     284.2562   1412.66052     386.0246     284.2562
   1412.64526     385.2782     283.6569   1412.64526     385.2782     283.6569
   1412.63000     384.1213     282.9767   1412.63000     384.1213     282.9767
   1412.61475     383.5994     283.1491   1412.61475     383.5994     283.1491
   1412.59949     382.4853     282.5140   1412.59949     382.4853     282.5140
   1412.58423     382.2509     282.7462   1412.58423     382.2509     282.7462
   1412.56897     381.0542     282.3905   1412.56897     381.0542     282.3905
   1412.55371     379.9938     282.0159   1412.55371     379.9938     282.0159
   1412.53845     379.6826     281.9645   1412.53845     379.6826     281.9645
   1412.52319     378.7397     281.8248   1412.52319     378.7397     281.8248
   1412.50793     378.2892     282.1669   1412.50793     378.2892     282.1669
   1412.49268     377.2318     282.1395   1412.49268     377.2318     282.1395
   1412.47742     377.4397     282.2832   1412.47742     377.4397     282.2832
   1412.46216     377.2200     282.3925   1412.46216     377.2200     282.3925
   1412.44690     376.9290     282.4291   1412.44690     376.9290     282.4291
   1412.43164     376.1553     282.5065   1412.43164     376.1553     282.5065
   1412.41638     375.3677     282.4930   1412.41638     375.3677     282.4930
   1412.40112     375.6700     282.8352   1412.40112     375.6700     282.8352
   1412.38586     375.9257     283.5060   1412.38586     375.9257     283.5060
   1412.37061     375.0027     283.6428   1412.37061     375.0027     283.6428
   1412.35535     375.6185     284.1794   1412.35535     375.6185     284.1794
   1412.34009     375.2400     284.7737   1412.34009     375.2400     284.7737
   1412.32483     375.3160     285.4009   1412.32483     375.3160     285.4009
   1412.30957     375.1658     285.7623   1412.30957     375.1658     285.7623
   1412.29431     375.9379     286.4566   1412.29431     375.9379     286.4566
   1412.27905     376.0497     286.9569   1412.27905     376.0497     286.9569
   1412.26379     376.4278     287.3658   1412.26379     376.4278     287.3658
   1412.24854     376.4951     288.1424   1412.24854     376.4951     288.1424
   1412.23328     376.6950     288.6385   1412.23328     376.6950     288.6385
   1412.21802     377.6805     289.3426   1412.21802     377.6805     289.3426
   1412.20276     378.6103     290.9396   1412.20276     378.6103     290.9396