#     FILENAME=!Skynet_57528_lach-hhg-105_20361_20912.cyb.fits
#     BASENAME=Skynet_57528_lach-hhg-105_20361_20912
#     SRC_NAME=lach-hhg-105
#     OBSERVER=hhgmadison16_9500
#     DATE_OBS=2016-05-20T15:33:27.500
#        OBSID=20361
#      SCANNUM=20912
#          MJD=57528.6493
#          UTC=56096
#     SCANTYPE=track
#     DATAMODE=HIRES
#     TUNEFREQ=1420.0000
# Actual_FREQ1=1420.0000
# Actual_FREQ2=1420.0000
#    LO1Tuning=6870.000
#     RFFILTER=1355_1435
#        OBSBW=-15.6250
#        NCHAN=1024 
#        FOCUS=37.0709
#           RA=22:30:08.67
#          DEC=57:51:38.74
#      RA(hrs)=22.502400
#     DEC(deg)=57.860800
#    AZIM(deg)=317.004
#    ELEV(deg)=50.049
#     IFattens=10.00, 9.00
#      WARNING=None
#    TCAL_XL1=7.9635
#    TCAL_YR1=9.1340
#    TCAL_XL2=7.9635
#    TCAL_YR2=9.1340
#     TRX_XL1=11.7060
#     TRX_YR1=11.7060
#     TRX_XL2=11.7060
#     TRX_YR2=11.7060
#        TAVE=1.0000
#Freq1(MHz)          XL1          YR1  Freq2(MHz)          XL2          YR2 

   1427.81250     375.0249     287.0526   1427.81250     375.0249     287.0526
   1427.79724     374.6993     287.6139   1427.79724     374.6993     287.6139
   1427.78198     375.7651     288.0490   1427.78198     375.7651     288.0490
   1427.76672     376.8158     289.0351   1427.76672     376.8158     289.0351
   1427.75146     376.5338     289.7158   1427.75146     376.5338     289.7158
   1427.73621     378.5684     290.3915   1427.73621     378.5684     290.3915
   1427.72095     379.4303     291.9700   1427.72095     379.4303     291.9700
   1427.70569     380.2799     292.3643   1427.70569     380.2799     292.3643
   1427.69043     380.8287     293.7322   1427.69043     380.8287     293.7322
   1427.67517     381.6912     294.7374   1427.67517     381.6912     294.7374
   1427.65991     383.5784     295.9985   1427.65991     383.5784     295.9985
   1427.64465     384.8609     297.0173   1427.64465     384.8609     297.0173
   1427.62939     386.3773     298.2993   1427.62939     386.3773     298.2993
   1427.61414     387.7401     299.4787   1427.61414     387.7401     299.4787
   1427.59888     388.7238     300.7036   1427.59888     388.7238     300.7036
   1427.58362     389.7758     302.0177   1427.58362     389.7758     302.0177
   1427.56836     391.9466     303.1232   1427.56836     391.9466     303.1232
   1427.55310     392.7534     304.8575   1427.55310     392.7534     304.8575
   1427.53784     394.3357     305.8693   1427.53784     394.3357     305.8693
   1427.52258     396.7847     306.9737   1427.52258     396.7847     306.9737
   1427.50732     397.6646     308.8951   1427.50732     397.6646     308.8951
   1427.49207     399.3080     310.2990   1427.49207     399.3080     310.2990
   1427.47681     401.1193     311.9537   1427.47681     401.1193     311.9537
   1427.46155     403.8364     313.5839   1427.46155     403.8364     313.5839
   1427.44629     403.9531     315.0788   1427.44629     403.9531     315.0788
   1427.43103     406.2908     316.2857   1427.43103     406.2908     316.2857
   1427.41577     408.6318     318.5743   1427.41577     408.6318     318.5743
   1427.40051     410.8893     319.5920   1427.40051     410.8893     319.5920
   1427.38525     412.6106     321.6582   1427.38525     412.6106     321.6582
   1427.37000     414.5727     322.6614   1427.37000     414.5727     322.6614
   1427.35474     416.8879     325.2032   1427.35474     416.8879     325.2032
   1427.33948     419.3174     327.0163   1427.33948     419.3174     327.0163
   1427.32422     420.5643     328.6967   1427.32422     420.5643     328.6967
   1427.30896     422.9224     330.7226   1427.30896     422.9224     330.7226
   1427.29370     425.4617     332.3864   1427.29370     425.4617     332.3864
   1427.27844     427.8330     334.4915   1427.27844     427.8330     334.4915
   1427.26318     430.9027     336.2462   1427.26318     430.9027     336.2462
   1427.24792     432.2630     338.0008   1427.24792     432.2630     338.0008
   1427.23267     434.8099     339.9742   1427.23267     434.8099     339.9742
   1427.21741     436.7977     341.6123   1427.21741     436.7977     341.6123
   1427.20215     440.4321     343.5798   1427.20215     440.4321     343.5798
   1427.18689     441.7007     345.5353   1427.18689     441.7007     345.5353
   1427.17163     444.7395     348.3264   1427.17163     444.7395     348.3264
   1427.15637     447.4612     349.7094   1427.15637     447.4612     349.7094
   1427.14111     450.3025     352.1899   1427.14111     450.3025     352.1899
   1427.12585     453.1522     354.1995   1427.12585     453.1522     354.1995
   1427.11060     454.6417     356.4053   1427.11060     454.6417     356.4053
   1427.09534     457.2451     359.0466   1427.09534     457.2451     359.0466
   1427.08008     460.4887     360.4534   1427.08008     460.4887     360.4534
   1427.06482     463.6398     363.0362   1427.06482     463.6398     363.0362
   1427.04956     466.0800     365.1517   1427.04956     466.0800     365.1517
   1427.03430     468.1339     367.0372   1427.03430     468.1339     367.0372
   1427.01904     472.4521     369.3503   1427.01904     472.4521     369.3503
   1427.00378     474.6000     371.2711   1427.00378     474.6000     371.2711
   1426.98853     477.6257     373.8879   1426.98853     477.6257     373.8879
   1426.97327     480.4766     375.7591   1426.97327     480.4766     375.7591
   1426.95801     483.2363     378.3549   1426.95801     483.2363     378.3549
   1426.94275     487.0286     380.9308   1426.94275     487.0286     380.9308
   1426.92749     488.8125     382.2801   1426.92749     488.8125     382.2801
   1426.91223     492.3398     385.2659   1426.91223     492.3398     385.2659
   1426.89697     494.5341     387.2680   1426.89697     494.5341     387.2680
   1426.88171     498.2613     389.3388   1426.88171     498.2613     389.3388
   1426.86646     502.0199     391.7221   1426.86646     502.0199     391.7221
   1426.85120     503.6261     394.7833   1426.85120     503.6261     394.7833
   1426.83594     506.8452     396.5458   1426.83594     506.8452     396.5458
   1426.82068     509.3606     398.5488   1426.82068     509.3606     398.5488
   1426.80542     513.1767     400.8637   1426.80542     513.1767     400.8637
   1426.79016     515.8175     403.1039   1426.79016     515.8175     403.1039
   1426.77490     519.3491     405.9252   1426.77490     519.3491     405.9252
   1426.75964     521.4733     407.7748   1426.75964     521.4733     407.7748
   1426.74438     524.3447     410.4941   1426.74438     524.3447     410.4941
   1426.72913     528.2322     412.7589   1426.72913     528.2322     412.7589
   1426.71387     531.0026     415.0110   1426.71387     531.0026     415.0110
   1426.69861     534.1285     417.5407   1426.69861     534.1285     417.5407
   1426.68335     537.8900     419.6967   1426.68335     537.8900     419.6967
   1426.66809     539.5266     421.9749   1426.66809     539.5266     421.9749
   1426.65283     543.0052     424.0033   1426.65283     543.0052     424.0033
   1426.63757     545.6072     426.3639   1426.63757     545.6072     426.3639
   1426.62231     550.5931     429.7038   1426.62231     550.5931     429.7038
   1426.60706     553.1182     431.5737   1426.60706     553.1182     431.5737
   1426.59180     556.0496     433.8228   1426.59180     556.0496     433.8228
   1426.57654     557.9149     435.1240   1426.57654     557.9149     435.1240
   1426.56128     561.2428     438.4418   1426.56128     561.2428     438.4418
   1426.54602     565.1462     439.8748   1426.54602     565.1462     439.8748
   1426.53076     567.3638     442.2145   1426.53076     567.3638     442.2145
   1426.51550     570.7327     444.3589   1426.51550     570.7327     444.3589
   1426.50024     573.9457     446.9899   1426.50024     573.9457     446.9899
   1426.48499     576.3233     449.4975   1426.48499     576.3233     449.4975
   1426.46973     579.9465     451.3139   1426.46973     579.9465     451.3139
   1426.45447     582.4594     453.4624   1426.45447     582.4594     453.4624
   1426.43921     585.9543     455.2435   1426.43921     585.9543     455.2435
   1426.42395     588.1171     457.1103   1426.42395     588.1171     457.1103
   1426.40869     592.6181     459.5365   1426.40869     592.6181     459.5365
   1426.39343     595.1132     462.5422   1426.39343     595.1132     462.5422
   1426.37817     597.6280     464.2957   1426.37817     597.6280     464.2957
   1426.36292     600.5277     466.1564   1426.36292     600.5277     466.1564
   1426.34766     603.7823     468.7418   1426.34766     603.7823     468.7418
   1426.33240     606.3519     470.4512   1426.33240     606.3519     470.4512
   1426.31714     609.0779     473.4360   1426.31714     609.0779     473.4360
   1426.30188     612.0984     475.2637   1426.30188     612.0984     475.2637
   1426.28662     614.2711     476.7992   1426.28662     614.2711     476.7992
   1426.27136     617.7305     479.1440   1426.27136     617.7305     479.1440
   1426.25610     619.8005     480.9633   1426.25610     619.8005     480.9633
   1426.24084     622.8846     482.8090   1426.24084     622.8846     482.8090
   1426.22559     623.9915     484.5746   1426.22559     623.9915     484.5746
   1426.21033     628.5892     486.7073   1426.21033     628.5892     486.7073
   1426.19507     631.6553     488.8273   1426.19507     631.6553     488.8273
   1426.17981     632.9633     491.3962   1426.17981     632.9633     491.3962
   1426.16455     636.3120     492.9909   1426.16455     636.3120     492.9909
   1426.14929     638.8912     495.1888   1426.14929     638.8912     495.1888
   1426.13403     641.0773     497.1564   1426.13403     641.0773     497.1564
   1426.11877     644.2316     498.3112   1426.11877     644.2316     498.3112
   1426.10352     646.9431     500.6744   1426.10352     646.9431     500.6744
   1426.08826     649.3292     501.9694   1426.08826     649.3292     501.9694
   1426.07300     651.9042     504.5127   1426.07300     651.9042     504.5127
   1426.05774     654.0471     506.0161   1426.05774     654.0471     506.0161
   1426.04248     656.2089     507.7144   1426.04248     656.2089     507.7144
   1426.02722     658.7076     510.6352   1426.02722     658.7076     510.6352
   1426.01196     660.4434     512.0322   1426.01196     660.4434     512.0322
   1425.99670     663.8663     512.8350   1425.99670     663.8663     512.8350
   1425.98145     666.1885     515.8607   1425.98145     666.1885     515.8607
   1425.96619     667.2229     517.6108   1425.96619     667.2229     517.6108
   1425.95093     670.6508     518.6599   1425.95093     670.6508     518.6599
   1425.93567     672.6954     520.1193   1425.93567     672.6954     520.1193
   1425.92041     675.0140     522.3303   1425.92041     675.0140     522.3303
   1425.90515     677.8437     524.8782   1425.90515     677.8437     524.8782
   1425.88989     679.4899     525.8344   1425.88989     679.4899     525.8344
   1425.87463     681.0396     527.4991   1425.87463     681.0396     527.4991
   1425.85938     684.1856     529.3641   1425.85938     684.1856     529.3641
   1425.84412     684.4461     530.3674   1425.84412     684.4461     530.3674
   1425.82886     687.6409     533.2708   1425.82886     687.6409     533.2708
   1425.81360     689.2454     533.7496   1425.81360     689.2454     533.7496
   1425.79834     690.6445     534.7403   1425.79834     690.6445     534.7403
   1425.78308     692.4645     536.5936   1425.78308     692.4645     536.5936
   1425.76782     695.7979     538.4564   1425.76782     695.7979     538.4564
   1425.75256     697.5375     539.5599   1425.75256     697.5375     539.5599
   1425.73730     698.0369     541.7233   1425.73730     698.0369     541.7233
   1425.72205     700.4498     542.3317   1425.72205     700.4498     542.3317
   1425.70679     702.4763     543.9890   1425.70679     702.4763     543.9890
   1425.69153     703.7510     545.8199   1425.69153     703.7510     545.8199
   1425.67627     706.6998     547.1356   1425.67627     706.6998     547.1356
   1425.66101     707.9500     548.6214   1425.66101     707.9500     548.6214
   1425.64575     709.0582     549.9371   1425.64575     709.0582     549.9371
   1425.63049     711.6617     550.7702   1425.63049     711.6617     550.7702
   1425.61523     712.1143     553.4071   1425.61523     712.1143     553.4071
   1425.59998     714.8252     553.5112   1425.59998     714.8252     553.5112
   1425.58472     714.6218     554.8588   1425.58472     714.6218     554.8588
   1425.56946     716.4223     557.1351   1425.56946     716.4223     557.1351
   1425.55420     717.8545     558.2938   1425.55420     717.8545     558.2938
   1425.53894     719.6475     559.7231   1425.53894     719.6475     559.7231
   1425.52368     721.4140     560.2794   1425.52368     721.4140     560.2794
   1425.50842     723.6614     562.4144   1425.50842     723.6614     562.4144
   1425.49316     723.4359     563.0683   1425.49316     723.4359     563.0683
   1425.47791     724.1605     564.4447   1425.47791     724.1605     564.4447
   1425.46265     726.9685     566.5237   1425.46265     726.9685     566.5237
   1425.44739     728.2263     566.4741   1425.44739     728.2263     566.4741
   1425.43213     729.2708     568.6014   1425.43213     729.2708     568.6014
   1425.41687     733.7709     570.4792   1425.41687     733.7709     570.4792
   1425.40161     732.1479     570.4084   1425.40161     732.1479     570.4084
   1425.38635     732.1384     571.6811   1425.38635     732.1384     571.6811
   1425.37109     734.0681     573.5483   1425.37109     734.0681     573.5483
   1425.35583     734.4313     573.1288   1425.35583     734.4313     573.1288
   1425.34058     734.8505     575.0438   1425.34058     734.8505     575.0438
   1425.32532     736.6303     576.3954   1425.32532     736.6303     576.3954
   1425.31006     737.0781     576.6348   1425.31006     737.0781     576.6348
   1425.29480     738.1314     578.1833   1425.29480     738.1314     578.1833
   1425.27954     738.7634     579.8995   1425.27954     738.7634     579.8995
   1425.26428     739.4910     580.0062   1425.26428     739.4910     580.0062
   1425.24902     740.8370     580.5206   1425.24902     740.8370     580.5206
   1425.23376     741.1008     582.0690   1425.23376     741.1008     582.0690
   1425.21851     743.0551     583.3036   1425.21851     743.0551     583.3036
   1425.20325     744.2663     584.1862   1425.20325     744.2663     584.1862
   1425.18799     743.3234     585.1199   1425.18799     743.3234     585.1199
   1425.17273     745.6367     585.9028   1425.17273     745.6367     585.9028
   1425.15747     746.9838     586.5907   1425.15747     746.9838     586.5907
   1425.14221     747.3006     587.9163   1425.14221     747.3006     587.9163
   1425.12695     746.7386     588.6271   1425.12695     746.7386     588.6271
   1425.11169     748.0062     590.5613   1425.11169     748.0062     590.5613
   1425.09644     749.5547     590.9091   1425.09644     749.5547     590.9091
   1425.08118     748.8018     591.4821   1425.08118     748.8018     591.4821
   1425.06592     750.0648     592.9150   1425.06592     750.0648     592.9150
   1425.05066     749.8281     592.3084   1425.05066     749.8281     592.3084
   1425.03540     752.1782     594.6581   1425.03540     752.1782     594.6581
   1425.02014     751.3813     594.7413   1425.02014     751.3813     594.7413
   1425.00488     751.8109     596.3338   1425.00488     751.8109     596.3338
   1424.98962     752.0770     596.1276   1424.98962     752.0770     596.1276
   1424.97437     752.4370     597.2173   1424.97437     752.4370     597.2173
   1424.95911     753.3373     598.3662   1424.95911     753.3373     598.3662
   1424.94385     754.0751     598.8485   1424.94385     754.0751     598.8485
   1424.92859     752.6998     599.7307   1424.92859     752.6998     599.7307
   1424.91333     753.9463     600.8334   1424.91333     753.9463     600.8334
   1424.89807     753.6634     601.0687   1424.89807     753.6634     601.0687
   1424.88281     754.1345     602.2260   1424.88281     754.1345     602.2260
   1424.86755     755.2835     602.1132   1424.86755     755.2835     602.1132
   1424.85229     755.1884     603.7844   1424.85229     755.1884     603.7844
   1424.83704     755.6779     604.3539   1424.83704     755.6779     604.3539
   1424.82178     755.3925     603.3912   1424.82178     755.3925     603.3912
   1424.80652     755.8908     605.3175   1424.80652     755.8908     605.3175
   1424.79126     755.4702     605.2654   1424.79126     755.4702     605.2654
   1424.77600     756.1374     607.2863   1424.77600     756.1374     607.2863
   1424.76074     756.3937     608.1050   1424.76074     756.3937     608.1050
   1424.74548     755.6909     607.6332   1424.74548     755.6909     607.6332
   1424.73022     755.1067     608.4443   1424.73022     755.1067     608.4443
   1424.71497     757.1541     608.8558   1424.71497     757.1541     608.8558
   1424.69971     757.3445     609.6810   1424.69971     757.3445     609.6810
   1424.68445     757.5896     611.6535   1424.68445     757.5896     611.6535
   1424.66919     756.4562     610.5957   1424.66919     756.4562     610.5957
   1424.65393     756.9949     612.4183   1424.65393     756.9949     612.4183
   1424.63867     757.9116     612.9488   1424.63867     757.9116     612.9488
   1424.62341     758.1517     613.6448   1424.62341     758.1517     613.6448
   1424.60815     758.2325     614.6923   1424.60815     758.2325     614.6923
   1424.59290     757.1248     614.4686   1424.59290     757.1248     614.4686
   1424.57764     757.9365     615.3994   1424.57764     757.9365     615.3994
   1424.56238     757.6485     614.4765   1424.56238     757.6485     614.4765
   1424.54712     757.8622     615.8688   1424.54712     757.8622     615.8688
   1424.53186     757.4422     616.4452   1424.53186     757.4422     616.4452
   1424.51660     757.5205     618.1957   1424.51660     757.5205     618.1957
   1424.50134     756.9136     618.1080   1424.50134     756.9136     618.1080
   1424.48608     756.7723     618.4333   1424.48608     756.7723     618.4333
   1424.47083     755.9985     618.6234   1424.47083     755.9985     618.6234
   1424.45557     756.5960     618.3958   1424.45557     756.5960     618.3958
   1424.44031     756.8347     619.9827   1424.44031     756.8347     619.9827
   1424.42505     757.2243     619.6123   1424.42505     757.2243     619.6123
   1424.40979     757.1350     620.6412   1424.40979     757.1350     620.6412
   1424.39453     756.2642     620.7628   1424.39453     756.2642     620.7628
   1424.37927     756.0680     621.3829   1424.37927     756.0680     621.3829
   1424.36401     756.2601     622.0058   1424.36401     756.2601     622.0058
   1424.34875     756.0535     622.7223   1424.34875     756.0535     622.7223
   1424.33350     756.4866     623.8239   1424.33350     756.4866     623.8239
   1424.31824     755.2979     623.6298   1424.31824     755.2979     623.6298
   1424.30298     755.7090     624.1373   1424.30298     755.7090     624.1373
   1424.28772     755.8366     623.9869   1424.28772     755.8366     623.9869
   1424.27246     756.1779     624.5018   1424.27246     756.1779     624.5018
   1424.25720     754.7537     625.0430   1424.25720     754.7537     625.0430
   1424.24194     755.5173     625.4654   1424.24194     755.5173     625.4654
   1424.22668     754.5181     626.5868   1424.22668     754.5181     626.5868
   1424.21143     754.4825     626.3763   1424.21143     754.4825     626.3763
   1424.19617     754.6809     625.7219   1424.19617     754.6809     625.7219
   1424.18091     754.2047     626.0762   1424.18091     754.2047     626.0762
   1424.16565     754.4803     627.1131   1424.16565     754.4803     627.1131
   1424.15039     752.7681     627.9631   1424.15039     752.7681     627.9631
   1424.13513     754.1840     627.7466   1424.13513     754.1840     627.7466
   1424.11987     753.5097     628.9951   1424.11987     753.5097     628.9951
   1424.10461     753.0311     629.0066   1424.10461     753.0311     629.0066
   1424.08936     754.3821     629.4314   1424.08936     754.3821     629.4314
   1424.07410     752.6053     629.4197   1424.07410     752.6053     629.4197
   1424.05884     753.0256     630.4313   1424.05884     753.0256     630.4313
   1424.04358     753.1235     630.2042   1424.04358     753.1235     630.2042
   1424.02832     752.8443     630.0538   1424.02832     752.8443     630.0538
   1424.01306     751.9464     631.3770   1424.01306     751.9464     631.3770
   1423.99780     751.7767     631.7924   1423.99780     751.7767     631.7924
   1423.98254     750.7186     631.5859   1423.98254     750.7186     631.5859
   1423.96729     751.6351     632.2733   1423.96729     751.6351     632.2733
   1423.95203     750.7925     632.1539   1423.95203     750.7925     632.1539
   1423.93677     751.8252     632.4657   1423.93677     751.8252     632.4657
   1423.92151     749.3396     633.0601   1423.92151     749.3396     633.0601
   1423.90625     751.1259     632.4938   1423.90625     751.1259     632.4938
   1423.89099     750.9322     633.5778   1423.89099     750.9322     633.5778
   1423.87573     748.5968     633.7273   1423.87573     748.5968     633.7273
   1423.86047     748.7071     634.5015   1423.86047     748.7071     634.5015
   1423.84521     749.4025     634.1422   1423.84521     749.4025     634.1422
   1423.82996     749.1375     633.4189   1423.82996     749.1375     633.4189
   1423.81470     748.2363     634.7300   1423.81470     748.2363     634.7300
   1423.79944     748.4081     633.5728   1423.79944     748.4081     633.5728
   1423.78418     748.3207     635.3464   1423.78418     748.3207     635.3464
   1423.76892     748.5298     635.5114   1423.76892     748.5298     635.5114
   1423.75366     747.5394     636.2683   1423.75366     747.5394     636.2683
   1423.73840     748.1581     634.8562   1423.73840     748.1581     634.8562
   1423.72314     748.3820     635.6429   1423.72314     748.3820     635.6429
   1423.70789     746.0897     635.9255   1423.70789     746.0897     635.9255
   1423.69263     747.7724     636.3231   1423.69263     747.7724     636.3231
   1423.67737     746.6781     636.0522   1423.67737     746.6781     636.0522
   1423.66211     746.5004     636.0380   1423.66211     746.5004     636.0380
   1423.64685     746.7654     636.1153   1423.64685     746.7654     636.1153
   1423.63159     746.2997     635.8251   1423.63159     746.2997     635.8251
   1423.61633     745.9828     635.7333   1423.61633     745.9828     635.7333
   1423.60107     745.2482     636.3533   1423.60107     745.2482     636.3533
   1423.58582     743.8340     636.8491   1423.58582     743.8340     636.8491
   1423.57056     744.3749     637.1712   1423.57056     744.3749     637.1712
   1423.55530     744.7426     636.1010   1423.55530     744.7426     636.1010
   1423.54004     743.4040     637.3157   1423.54004     743.4040     637.3157
   1423.52478     744.8994     636.5646   1423.52478     744.8994     636.5646
   1423.50952     744.1667     636.0452   1423.50952     744.1667     636.0452
   1423.49426     744.4572     636.1591   1423.49426     744.4572     636.1591
   1423.47900     744.6756     637.1899   1423.47900     744.6756     637.1899
   1423.46375     745.0327     636.7029   1423.46375     745.0327     636.7029
   1423.44849     742.1560     636.3710   1423.44849     742.1560     636.3710
   1423.43323     742.3030     636.3198   1423.43323     742.3030     636.3198
   1423.41797     742.0492     637.4721   1423.41797     742.0492     637.4721
   1423.40271     741.4258     636.6713   1423.40271     741.4258     636.6713
   1423.38745     742.0128     636.6913   1423.38745     742.0128     636.6913
   1423.37219     742.1378     635.8859   1423.37219     742.1378     635.8859
   1423.35693     741.4886     636.9278   1423.35693     741.4886     636.9278
   1423.34167     740.7004     635.3989   1423.34167     740.7004     635.3989
   1423.32642     740.2791     636.2964   1423.32642     740.2791     636.2964
   1423.31116     740.9957     635.8041   1423.31116     740.9957     635.8041
   1423.29590     739.6039     636.3909   1423.29590     739.6039     636.3909
   1423.28064     741.1762     634.9540   1423.28064     741.1762     634.9540
   1423.26538     741.9312     635.1553   1423.26538     741.9312     635.1553
   1423.25012     739.4864     635.0098   1423.25012     739.4864     635.0098
   1423.23486     739.0414     635.5089   1423.23486     739.0414     635.5089
   1423.21960     739.6963     635.5417   1423.21960     739.6963     635.5417
   1423.20435     739.9075     634.5106   1423.20435     739.9075     634.5106
   1423.18909     738.9694     634.7241   1423.18909     738.9694     634.7241
   1423.17383     739.3837     635.0190   1423.17383     739.3837     635.0190
   1423.15857     737.2277     633.0827   1423.15857     737.2277     633.0827
   1423.14331     738.7567     634.9570   1423.14331     738.7567     634.9570
   1423.12805     738.5692     633.2299   1423.12805     738.5692     633.2299
   1423.11279     736.8686     633.1418   1423.11279     736.8686     633.1418
   1423.09753     738.9040     633.5726   1423.09753     738.9040     633.5726
   1423.08228     737.6622     632.0775   1423.08228     737.6622     632.0775
   1423.06702     737.2807     632.3707   1423.06702     737.2807     632.3707
   1423.05176     737.4399     632.2265   1423.05176     737.4399     632.2265
   1423.03650     737.5677     630.6877   1423.03650     737.5677     630.6877
   1423.02124     737.4275     632.5737   1423.02124     737.4275     632.5737
   1423.00598     736.5684     631.4336   1423.00598     736.5684     631.4336
   1422.99072     735.8993     630.9479   1422.99072     735.8993     630.9479
   1422.97546     736.8799     629.5339   1422.97546     736.8799     629.5339
   1422.96021     736.2272     629.0892   1422.96021     736.2272     629.0892
   1422.94495     736.7165     629.3658   1422.94495     736.7165     629.3658
   1422.92969     736.2932     628.4417   1422.92969     736.2932     628.4417
   1422.91443     736.1768     628.5529   1422.91443     736.1768     628.5529
   1422.89917     736.3086     628.4908   1422.89917     736.3086     628.4908
   1422.88391     735.1084     627.3207   1422.88391     735.1084     627.3207
   1422.86865     735.3874     626.7375   1422.86865     735.3874     626.7375
   1422.85339     735.3428     626.1707   1422.85339     735.3428     626.1707
   1422.83813     734.0435     625.9140   1422.83813     734.0435     625.9140
   1422.82288     734.2606     624.5784   1422.82288     734.2606     624.5784
   1422.80762     734.2819     625.0014   1422.80762     734.2819     625.0014
   1422.79236     733.2983     624.8290   1422.79236     733.2983     624.8290
   1422.77710     734.3012     624.6342   1422.77710     734.3012     624.6342
   1422.76184     733.2499     622.4984   1422.76184     733.2499     622.4984
   1422.74658     733.5016     621.5709   1422.74658     733.5016     621.5709
   1422.73132     733.7274     621.4854   1422.73132     733.7274     621.4854
   1422.71606     734.2126     621.5414   1422.71606     734.2126     621.5414
   1422.70081     732.9431     621.1642   1422.70081     732.9431     621.1642
   1422.68555     732.0553     620.0576   1422.68555     732.0553     620.0576
   1422.67029     732.5586     619.1296   1422.67029     732.5586     619.1296
   1422.65503     732.4902     618.2570   1422.65503     732.4902     618.2570
   1422.63977     732.7162     617.2296   1422.63977     732.7162     617.2296
   1422.62451     732.6642     616.9550   1422.62451     732.6642     616.9550
   1422.60925     732.4521     615.7340   1422.60925     732.4521     615.7340
   1422.59399     731.4124     615.8412   1422.59399     731.4124     615.8412
   1422.57874     731.5479     614.9219   1422.57874     731.5479     614.9219
   1422.56348     731.4504     613.2630   1422.56348     731.4504     613.2630
   1422.54822     731.2604     613.1086   1422.54822     731.2604     613.1086
   1422.53296     730.4451     613.0516   1422.53296     730.4451     613.0516
   1422.51770     731.5831     611.3065   1422.51770     731.5831     611.3065
   1422.50244     731.4386     610.8491   1422.50244     731.4386     610.8491
   1422.48718     730.0311     610.4005   1422.48718     730.0311     610.4005
   1422.47192     730.6517     609.6537   1422.47192     730.6517     609.6537
   1422.45667     730.2653     608.7152   1422.45667     730.2653     608.7152
   1422.44141     730.8962     607.8716   1422.44141     730.8962     607.8716
   1422.42615     729.4227     605.7205   1422.42615     729.4227     605.7205
   1422.41089     728.7952     606.9329   1422.41089     728.7952     606.9329
   1422.39563     729.3533     605.9730   1422.39563     729.3533     605.9730
   1422.38037     729.4681     604.0097   1422.38037     729.4681     604.0097
   1422.36511     728.6945     603.6668   1422.36511     728.6945     603.6668
   1422.34985     728.3676     601.3957   1422.34985     728.3676     601.3957
   1422.33459     727.8904     601.1141   1422.33459     727.8904     601.1141
   1422.31934     728.4641     599.5497   1422.31934     728.4641     599.5497
   1422.30408     727.9489     599.7842   1422.30408     727.9489     599.7842
   1422.28882     727.9219     598.4942   1422.28882     727.9219     598.4942
   1422.27356     727.8560     597.2336   1422.27356     727.8560     597.2336
   1422.25830     728.4536     597.3401   1422.25830     728.4536     597.3401
   1422.24304     727.1653     594.7687   1422.24304     727.1653     594.7687
   1422.22778     726.7126     593.9833   1422.22778     726.7126     593.9833
   1422.21252     727.9171     592.7864   1422.21252     727.9171     592.7864
   1422.19727     726.8763     592.8190   1422.19727     726.8763     592.8190
   1422.18201     727.2229     591.0631   1422.18201     727.2229     591.0631
   1422.16675     726.9127     589.9882   1422.16675     726.9127     589.9882
   1422.15149     726.3390     588.2189   1422.15149     726.3390     588.2189
   1422.13623     726.3179     587.3893   1422.13623     726.3179     587.3893
   1422.12097     726.3530     587.4437   1422.12097     726.3530     587.4437
   1422.10571     725.7831     584.9713   1422.10571     725.7831     584.9713
   1422.09045     725.1353     585.6733   1422.09045     725.1353     585.6733
   1422.07520     726.9210     583.9222   1422.07520     726.9210     583.9222
   1422.05994     725.6119     581.6417   1422.05994     725.6119     581.6417
   1422.04468     724.4440     580.5455   1422.04468     724.4440     580.5455
   1422.02942     724.6760     580.2819   1422.02942     724.6760     580.2819
   1422.01416     725.4066     578.5196   1422.01416     725.4066     578.5196
   1421.99890     724.4243     576.7005   1421.99890     724.4243     576.7005
   1421.98364     724.9176     577.1364   1421.98364     724.9176     577.1364
   1421.96838     723.7038     575.1594   1421.96838     723.7038     575.1594
   1421.95312     723.8243     573.7249   1421.95312     723.8243     573.7249
   1421.93787     723.8438     572.3469   1421.93787     723.8438     572.3469
   1421.92261     722.9822     571.4392   1421.92261     722.9822     571.4392
   1421.90735     722.7280     570.0489   1421.90735     722.7280     570.0489
   1421.89209     723.8447     569.6190   1421.89209     723.8447     569.6190
   1421.87683     722.5581     567.2916   1421.87683     722.5581     567.2916
   1421.86157     722.3538     567.5193   1421.86157     722.3538     567.5193
   1421.84631     722.5573     565.4324   1421.84631     722.5573     565.4324
   1421.83105     721.8077     564.5857   1421.83105     721.8077     564.5857
   1421.81580     721.1640     564.1702   1421.81580     721.1640     564.1702
   1421.80054     720.6737     561.5676   1421.80054     720.6737     561.5676
   1421.78528     719.6115     561.5201   1421.78528     719.6115     561.5201
   1421.77002     721.0964     559.7342   1421.77002     721.0964     559.7342
   1421.75476     719.1891     557.9529   1421.75476     719.1891     557.9529
   1421.73950     720.6204     556.8113   1421.73950     720.6204     556.8113
   1421.72424     720.4467     555.7654   1421.72424     720.4467     555.7654
   1421.70898     719.7543     555.0175   1421.70898     719.7543     555.0175
   1421.69373     719.9542     552.7966   1421.69373     719.9542     552.7966
   1421.67847     719.0893     551.6293   1421.67847     719.0893     551.6293
   1421.66321     718.7330     550.3423   1421.66321     718.7330     550.3423
   1421.64795     719.3231     549.4919   1421.64795     719.3231     549.4919
   1421.63269     717.6888     547.3561   1421.63269     717.6888     547.3561
   1421.61743     718.5645     547.7347   1421.61743     718.5645     547.7347
   1421.60217     717.6030     545.6938   1421.60217     717.6030     545.6938
   1421.58691     716.6514     544.2507   1421.58691     716.6514     544.2507
   1421.57166     717.1066     543.5908   1421.57166     717.1066     543.5908
   1421.55640     716.8502     542.1305   1421.55640     716.8502     542.1305
   1421.54114     717.2762     539.7704   1421.54114     717.2762     539.7704
   1421.52588     716.7334     539.8434   1421.52588     716.7334     539.8434
   1421.51062     716.5120     537.6813   1421.51062     716.5120     537.6813
   1421.49536     716.1204     536.2539   1421.49536     716.1204     536.2539
   1421.48010     715.9858     535.8139   1421.48010     715.9858     535.8139
   1421.46484     715.4146     533.5577   1421.46484     715.4146     533.5577
   1421.44958     715.3945     532.6539   1421.44958     715.3945     532.6539
   1421.43433     716.1075     531.2531   1421.43433     716.1075     531.2531
   1421.41907     714.4837     530.4793   1421.41907     714.4837     530.4793
   1421.40381     714.8279     528.5961   1421.40381     714.8279     528.5961
   1421.38855     714.1407     527.1484   1421.38855     714.1407     527.1484
   1421.37329     713.6815     526.2391   1421.37329     713.6815     526.2391
   1421.35803     714.9415     525.2155   1421.35803     714.9415     525.2155
   1421.34277     713.7083     523.8881   1421.34277     713.7083     523.8881
   1421.32751     715.1349     523.0765   1421.32751     715.1349     523.0765
   1421.31226     714.7885     523.1994   1421.31226     714.7885     523.1994
   1421.29700     715.1126     520.8570   1421.29700     715.1126     520.8570
   1421.28174     714.0929     520.3186   1421.28174     714.0929     520.3186
   1421.26648     716.3293     519.5641   1421.26648     716.3293     519.5641
   1421.25122     717.2099     520.0551   1421.25122     717.2099     520.0551
   1421.23596     718.7682     520.5706   1421.23596     718.7682     520.5706
   1421.22070     722.4392     520.9304   1421.22070     722.4392     520.9304
   1421.20544     724.1870     521.2519   1421.20544     724.1870     521.2519
   1421.19019     725.6808     521.1213   1421.19019     725.6808     521.1213
   1421.17493     727.1834     520.7178   1421.17493     727.1834     520.7178
   1421.15967     727.2713     520.0620   1421.15967     727.2713     520.0620
   1421.14441     729.2414     520.5668   1421.14441     729.2414     520.5668
   1421.12915     729.5331     520.4156   1421.12915     729.5331     520.4156
   1421.11389     732.8384     520.9315   1421.11389     732.8384     520.9315
   1421.09863     737.0781     522.3320   1421.09863     737.0781     522.3320
   1421.08337     743.5724     526.6750   1421.08337     743.5724     526.6750
   1421.06812     756.5598     534.7615   1421.06812     756.5598     534.7615
   1421.05286     779.7650     550.1613   1421.05286     779.7650     550.1613
   1421.03760     809.8619     568.0780   1421.03760     809.8619     568.0780
   1421.02234     819.3353     573.9230   1421.02234     819.3353     573.9230
   1421.00708     827.1268     579.5124   1421.00708     827.1268     579.5124
   1420.99182     855.8206     596.9821   1420.99182     855.8206     596.9821
   1420.97656     877.6403     609.7054   1420.97656     877.6403     609.7054
   1420.96130     870.4155     604.5861   1420.96130     870.4155     604.5861
   1420.94604     855.4081     593.2761   1420.94604     855.4081     593.2761
   1420.93079     833.4120     575.8911   1420.93079     833.4120     575.8911
   1420.91553     823.7076     568.2463   1420.91553     823.7076     568.2463
   1420.90027     834.0904     574.8699   1420.90027     834.0904     574.8699
   1420.88501     869.9189     597.4086   1420.88501     869.9189     597.4086
   1420.86975     933.8125     639.2681   1420.86975     933.8125     639.2681
   1420.85449    1065.0923     725.7925   1420.85449    1065.0923     725.7925
   1420.83923    1359.9938     920.7366   1420.83923    1359.9938     920.7366
   1420.82397    1617.7567    1090.4406   1420.82397    1617.7567    1090.4406
   1420.80872    1704.4956    1146.9000   1420.80872    1704.4956    1146.9000
   1420.79346    1749.2507    1171.1339   1420.79346    1749.2507    1171.1339
   1420.77820    1936.0247    1290.4888   1420.77820    1936.0247    1290.4888
   1420.76294    2139.7771    1422.0172   1420.76294    2139.7771    1422.0172
   1420.74768    2131.9575    1413.5819   1420.74768    2131.9575    1413.5819
   1420.73242    1945.8746    1290.0743   1420.73242    1945.8746    1290.0743
   1420.71716    1627.9731    1079.9426   1420.71716    1627.9731    1079.9426
   1420.70190    1364.4973     903.8765   1420.70190    1364.4973     903.8765
   1420.68665    1169.1010     776.3843   1420.68665    1169.1010     776.3843
   1420.67139    1075.0515     712.8857   1420.67139    1075.0515     712.8857
   1420.65613    1032.7216     685.9258   1420.65613    1032.7216     685.9258
   1420.64087    1059.1321     700.0434   1420.64087    1059.1321     700.0434
   1420.62561    1112.9491     734.5937   1420.62561    1112.9491     734.5937
   1420.61035    1145.9197     753.6353   1420.61035    1145.9197     753.6353
   1420.59509    1145.7378     751.8893   1420.59509    1145.7378     751.8893
   1420.57983    1197.2751     783.3329   1420.57983    1197.2751     783.3329
   1420.56458    1345.6058     879.6853   1420.56458    1345.6058     879.6853
   1420.54932    1509.8347     987.3376   1420.54932    1509.8347     987.3376
   1420.53406    1690.7880    1092.8346   1420.53406    1690.7880    1092.8346
   1420.51880    1930.5083    1244.6653   1420.51880    1930.5083    1244.6653
   1420.50354    1888.7487    1220.8214   1420.50354    1888.7487    1220.8214
   1420.48828    1437.9277     927.5964   1420.48828    1437.9277     927.5964
   1420.47302    1051.8151     680.2719   1420.47302    1051.8151     680.2719
   1420.45776     877.0767     568.4155   1420.45776     877.0767     568.4155
   1420.44250     798.9169     518.6691   1420.44250     798.9169     518.6691
   1420.42725     755.2894     490.1118   1420.42725     755.2894     490.1118
   1420.41199     732.8787     474.9516   1420.41199     732.8787     474.9516
   1420.39673     719.0624     465.3432   1420.39673     719.0624     465.3432
   1420.38147     713.4501     461.6284   1420.38147     713.4501     461.6284
   1420.36621     708.7963     457.2611   1420.36621     708.7963     457.2611
   1420.35095     706.5941     455.5103   1420.35095     706.5941     455.5103
   1420.33569     704.9497     454.7240   1420.33569     704.9497     454.7240
   1420.32043     704.3950     452.5491   1420.32043     704.3950     452.5491
   1420.30518     705.6102     451.9585   1420.30518     705.6102     451.9585
   1420.28992     703.0318     451.3215   1420.28992     703.0318     451.3215
   1420.27466     704.0776     449.8295   1420.27466     704.0776     449.8295
   1420.25940     702.4385     447.9205   1420.25940     702.4385     447.9205
   1420.24414     701.8220     448.0742   1420.24414     701.8220     448.0742
   1420.22888     701.4826     446.8187   1420.22888     701.4826     446.8187
   1420.21362     701.6530     444.9649   1420.21362     701.6530     444.9649
   1420.19836     700.2792     443.6866   1420.19836     700.2792     443.6866
   1420.18311     700.0748     443.2556   1420.18311     700.0748     443.2556
   1420.16785     698.3223     442.3528   1420.16785     698.3223     442.3528
   1420.15259     698.2674     440.0895   1420.15259     698.2674     440.0895
   1420.13733     697.0566     439.2862   1420.13733     697.0566     439.2862
   1420.12207     696.0240     438.6752   1420.12207     696.0240     438.6752
   1420.10681     694.7638     437.4138   1420.10681     694.7638     437.4138
   1420.09155     693.9614     436.4993   1420.09155     693.9614     436.4993
   1420.07629     694.5364     435.7990   1420.07629     694.5364     435.7990
   1420.06104     695.5753     434.7433   1420.06104     695.5753     434.7433
   1420.04578     694.4473     434.0022   1420.04578     694.4473     434.0022
   1420.03052     695.1740     432.3905   1420.03052     695.1740     432.3905
   1420.01526     694.3750     433.3152   1420.01526     694.3750     433.3152
   1420.00000     695.8304     433.9395   1420.00000     695.8304     433.9395
   1419.98474     697.2859     434.5638   1419.98474     697.2859     434.5638
   1419.96948     696.9769     432.0510   1419.96948     696.9769     432.0510
   1419.95422     694.7354     430.0201   1419.95422     694.7354     430.0201
   1419.93896     694.3856     429.6655   1419.93896     694.3856     429.6655
   1419.92371     693.3122     428.7174   1419.92371     693.3122     428.7174
   1419.90845     694.6965     428.3474   1419.90845     694.6965     428.3474
   1419.89319     694.1360     428.1654   1419.89319     694.1360     428.1654
   1419.87793     694.3636     427.5948   1419.87793     694.3636     427.5948
   1419.86267     694.1448     427.0394   1419.86267     694.1448     427.0394
   1419.84741     694.1279     426.9861   1419.84741     694.1279     426.9861
   1419.83215     695.3091     427.0925   1419.83215     695.3091     427.0925
   1419.81689     695.6259     425.4657   1419.81689     695.6259     425.4657
   1419.80164     694.7029     425.6156   1419.80164     694.7029     425.6156
   1419.78638     694.3938     424.6686   1419.78638     694.3938     424.6686
   1419.77112     695.4646     425.0681   1419.77112     695.4646     425.0681
   1419.75586     694.1645     424.3055   1419.75586     694.1645     424.3055
   1419.74060     694.7502     424.5031   1419.74060     694.7502     424.5031
   1419.72534     695.6049     423.2101   1419.72534     695.6049     423.2101
   1419.71008     695.8751     423.5525   1419.71008     695.8751     423.5525
   1419.69482     697.4127     423.1779   1419.69482     697.4127     423.1779
   1419.67957     696.5580     423.4085   1419.67957     696.5580     423.4085
   1419.66431     696.9325     422.8663   1419.66431     696.9325     422.8663
   1419.64905     696.8943     422.5104   1419.64905     696.8943     422.5104
   1419.63379     697.7048     422.7296   1419.63379     697.7048     422.7296
   1419.61853     696.8684     422.2928   1419.61853     696.8684     422.2928
   1419.60327     698.3171     421.8780   1419.60327     698.3171     421.8780
   1419.58801     697.4838     421.5381   1419.58801     697.4838     421.5381
   1419.57275     699.1837     421.5498   1419.57275     699.1837     421.5498
   1419.55750     699.4373     421.6143   1419.55750     699.4373     421.6143
   1419.54224     698.0986     421.6699   1419.54224     698.0986     421.6699
   1419.52698     699.9846     421.5766   1419.52698     699.9846     421.5766
   1419.51172     699.2346     421.5328   1419.51172     699.2346     421.5328
   1419.49646     700.5760     421.3062   1419.49646     700.5760     421.3062
   1419.48120     700.8630     420.8673   1419.48120     700.8630     420.8673
   1419.46594     701.2026     421.3403   1419.46594     701.2026     421.3403
   1419.45068     701.4718     421.4062   1419.45068     701.4718     421.4062
   1419.43542     701.8800     420.8753   1419.43542     701.8800     420.8753
   1419.42017     702.8934     420.2305   1419.42017     702.8934     420.2305
   1419.40491     702.3597     420.6045   1419.40491     702.3597     420.6045
   1419.38965     702.9827     421.1585   1419.38965     702.9827     421.1585
   1419.37439     703.2066     420.8077   1419.37439     703.2066     420.8077
   1419.35913     703.3615     420.7747   1419.35913     703.3615     420.7747
   1419.34387     704.2748     420.6205   1419.34387     704.2748     420.6205
   1419.32861     704.6703     420.5023   1419.32861     704.6703     420.5023
   1419.31335     704.5271     419.7148   1419.31335     704.5271     419.7148
   1419.29810     704.4314     420.4263   1419.29810     704.4314     420.4263
   1419.28284     705.7193     421.2289   1419.28284     705.7193     421.2289
   1419.26758     707.5795     421.0887   1419.26758     707.5795     421.0887
   1419.25232     707.0978     421.3605   1419.25232     707.0978     421.3605
   1419.23706     706.2440     421.3465   1419.23706     706.2440     421.3465
   1419.22180     706.7157     421.1893   1419.22180     706.7157     421.1893
   1419.20654     708.4337     421.2253   1419.20654     708.4337     421.2253
   1419.19128     708.0010     421.3375   1419.19128     708.0010     421.3375
   1419.17603     708.5954     421.7962   1419.17603     708.5954     421.7962
   1419.16077     709.4459     421.5193   1419.16077     709.4459     421.5193
   1419.14551     710.1477     422.0892   1419.14551     710.1477     422.0892
   1419.13025     709.3958     422.3888   1419.13025     709.3958     422.3888
   1419.11499     711.2115     422.3512   1419.11499     711.2115     422.3512
   1419.09973     710.8746     422.3027   1419.09973     710.8746     422.3027
   1419.08447     711.2543     422.7897   1419.08447     711.2543     422.7897
   1419.06921     712.5435     423.2852   1419.06921     712.5435     423.2852
   1419.05396     712.6808     423.0635   1419.05396     712.6808     423.0635
   1419.03870     713.2824     423.8033   1419.03870     713.2824     423.8033
   1419.02344     714.0709     424.0460   1419.02344     714.0709     424.0460
   1419.00818     715.1141     424.5396   1419.00818     715.1141     424.5396
   1418.99292     715.6275     425.2702   1418.99292     715.6275     425.2702
   1418.97766     715.0061     424.1421   1418.97766     715.0061     424.1421
   1418.96240     716.4337     424.7397   1418.96240     716.4337     424.7397
   1418.94714     716.1934     425.3013   1418.94714     716.1934     425.3013
   1418.93188     717.4882     426.1723   1418.93188     717.4882     426.1723
   1418.91663     719.2239     426.6992   1418.91663     719.2239     426.6992
   1418.90137     720.1431     426.8620   1418.90137     720.1431     426.8620
   1418.88611     719.8294     427.1408   1418.88611     719.8294     427.1408
   1418.87085     720.6534     427.0814   1418.87085     720.6534     427.0814
   1418.85559     720.9243     427.9514   1418.85559     720.9243     427.9514
   1418.84033     721.6979     428.3624   1418.84033     721.6979     428.3624
   1418.82507     723.1524     428.8456   1418.82507     723.1524     428.8456
   1418.80981     723.1612     429.3040   1418.80981     723.1612     429.3040
   1418.79456     724.3890     428.9118   1418.79456     724.3890     428.9118
   1418.77930     724.1880     430.1978   1418.77930     724.1880     430.1978
   1418.76404     724.6596     431.0060   1418.76404     724.6596     431.0060
   1418.74878     725.8065     430.9802   1418.74878     725.8065     430.9802
   1418.73352     726.7496     431.7678   1418.73352     726.7496     431.7678
   1418.71826     726.7245     432.7053   1418.71826     726.7245     432.7053
   1418.70300     727.5648     432.9427   1418.70300     727.5648     432.9427
   1418.68774     728.4206     432.8780   1418.68774     728.4206     432.8780
   1418.67249     729.8043     433.4828   1418.67249     729.8043     433.4828
   1418.65723     730.5590     434.3468   1418.65723     730.5590     434.3468
   1418.64197     731.2237     434.8785   1418.64197     731.2237     434.8785
   1418.62671     730.9210     435.6252   1418.62671     730.9210     435.6252
   1418.61145     733.0844     435.8275   1418.61145     733.0844     435.8275
   1418.59619     733.9415     435.8161   1418.59619     733.9415     435.8161
   1418.58093     733.7578     437.8214   1418.58093     733.7578     437.8214
   1418.56567     733.1476     437.7564   1418.56567     733.1476     437.7564
   1418.55042     735.5103     438.8863   1418.55042     735.5103     438.8863
   1418.53516     736.7705     439.8587   1418.53516     736.7705     439.8587
   1418.51990     736.7932     439.7918   1418.51990     736.7932     439.7918
   1418.50464     737.5025     440.7725   1418.50464     737.5025     440.7725
   1418.48938     739.0672     441.7737   1418.48938     739.0672     441.7737
   1418.47412     740.4429     442.2854   1418.47412     740.4429     442.2854
   1418.45886     739.8976     443.0946   1418.45886     739.8976     443.0946
   1418.44360     740.9828     442.8119   1418.44360     740.9828     442.8119
   1418.42834     742.0053     444.0627   1418.42834     742.0053     444.0627
   1418.41309     743.6100     445.1966   1418.41309     743.6100     445.1966
   1418.39783     742.8859     445.4013   1418.39783     742.8859     445.4013
   1418.38257     745.6637     446.6268   1418.38257     745.6637     446.6268
   1418.36731     746.1475     446.7506   1418.36731     746.1475     446.7506
   1418.35205     746.0364     448.2585   1418.35205     746.0364     448.2585
   1418.33679     747.3545     448.2345   1418.33679     747.3545     448.2345
   1418.32153     749.3688     448.9440   1418.32153     749.3688     448.9440
   1418.30627     750.3043     450.1156   1418.30627     750.3043     450.1156
   1418.29102     750.4114     450.8006   1418.29102     750.4114     450.8006
   1418.27576     750.8384     451.9099   1418.27576     750.8384     451.9099
   1418.26050     752.0403     452.4885   1418.26050     752.0403     452.4885
   1418.24524     752.6601     453.4547   1418.24524     752.6601     453.4547
   1418.22998     753.4069     454.0702   1418.22998     753.4069     454.0702
   1418.21472     754.8018     454.7351   1418.21472     754.8018     454.7351
   1418.19946     756.4005     456.0525   1418.19946     756.4005     456.0525
   1418.18420     757.0849     456.4845   1418.18420     757.0849     456.4845
   1418.16895     757.5557     457.0299   1418.16895     757.5557     457.0299
   1418.15369     758.7389     458.4757   1418.15369     758.7389     458.4757
   1418.13843     758.6022     458.6718   1418.13843     758.6022     458.6718
   1418.12317     760.2045     460.8786   1418.12317     760.2045     460.8786
   1418.10791     762.5269     460.9670   1418.10791     762.5269     460.9670
   1418.09265     761.6765     461.3597   1418.09265     761.6765     461.3597
   1418.07739     763.8502     462.7002   1418.07739     763.8502     462.7002
   1418.06213     765.0641     463.2812   1418.06213     765.0641     463.2812
   1418.04688     765.6671     464.4127   1418.04688     765.6671     464.4127
   1418.03162     768.8142     464.7737   1418.03162     768.8142     464.7737
   1418.01636     768.6053     466.0229   1418.01636     768.6053     466.0229
   1418.00110     768.3421     466.4430   1418.00110     768.3421     466.4430
   1417.98584     770.2973     468.2363   1417.98584     770.2973     468.2363
   1417.97058     770.7052     468.5520   1417.97058     770.7052     468.5520
   1417.95532     772.5416     469.2644   1417.95532     772.5416     469.2644
   1417.94006     772.4077     470.7681   1417.94006     772.4077     470.7681
   1417.92480     775.6918     471.2169   1417.92480     775.6918     471.2169
   1417.90955     775.6768     472.1527   1417.90955     775.6768     472.1527
   1417.89429     775.9394     472.8839   1417.89429     775.9394     472.8839
   1417.87903     776.1936     474.3366   1417.87903     776.1936     474.3366
   1417.86377     777.9749     475.1802   1417.86377     777.9749     475.1802
   1417.84851     779.0561     475.9396   1417.84851     779.0561     475.9396
   1417.83325     780.2175     477.0363   1417.83325     780.2175     477.0363
   1417.81799     781.6406     477.7675   1417.81799     781.6406     477.7675
   1417.80273     780.5804     478.4843   1417.80273     780.5804     478.4843
   1417.78748     782.6150     479.7338   1417.78748     782.6150     479.7338
   1417.77222     785.2552     480.6069   1417.77222     785.2552     480.6069
   1417.75696     786.0765     482.0539   1417.75696     786.0765     482.0539
   1417.74170     787.2589     482.3065   1417.74170     787.2589     482.3065
   1417.72644     788.7318     483.2258   1417.72644     788.7318     483.2258
   1417.71118     787.4775     483.9935   1417.71118     787.4775     483.9935
   1417.69592     788.2581     484.6160   1417.69592     788.2581     484.6160
   1417.68066     790.1188     486.7379   1417.68066     790.1188     486.7379
   1417.66541     791.4098     487.3889   1417.66541     791.4098     487.3889
   1417.65015     792.4984     488.4240   1417.65015     792.4984     488.4240
   1417.63489     792.9109     488.9785   1417.63489     792.9109     488.9785
   1417.61963     794.5123     490.8662   1417.61963     794.5123     490.8662
   1417.60437     795.6066     490.9886   1417.60437     795.6066     490.9886
   1417.58911     797.0234     492.2410   1417.58911     797.0234     492.2410
   1417.57385     798.8350     493.1101   1417.57385     798.8350     493.1101
   1417.55859     799.3707     494.7603   1417.55859     799.3707     494.7603
   1417.54333     799.6307     494.6713   1417.54333     799.6307     494.6713
   1417.52808     800.6552     495.9450   1417.52808     800.6552     495.9450
   1417.51282     800.7947     496.4554   1417.51282     800.7947     496.4554
   1417.49756     804.0331     497.5290   1417.49756     804.0331     497.5290
   1417.48230     804.7502     499.4290   1417.48230     804.7502     499.4290
   1417.46704     804.7633     500.0274   1417.46704     804.7633     500.0274
   1417.45178     804.2658     500.4382   1417.45178     804.2658     500.4382
   1417.43652     806.5006     501.7020   1417.43652     806.5006     501.7020
   1417.42126     807.1339     502.0887   1417.42126     807.1339     502.0887
   1417.40601     808.5881     503.1081   1417.40601     808.5881     503.1081
   1417.39075     809.5776     503.9931   1417.39075     809.5776     503.9931
   1417.37549     809.2796     504.5184   1417.37549     809.2796     504.5184
   1417.36023     810.3433     505.7081   1417.36023     810.3433     505.7081
   1417.34497     812.5472     507.0032   1417.34497     812.5472     507.0032
   1417.32971     812.0818     507.9851   1417.32971     812.0818     507.9851
   1417.31445     813.5205     508.0045   1417.31445     813.5205     508.0045
   1417.29919     815.4024     509.4163   1417.29919     815.4024     509.4163
   1417.28394     816.7107     509.3904   1417.28394     816.7107     509.3904
   1417.26868     816.0535     510.2469   1417.26868     816.0535     510.2469
   1417.25342     817.6362     512.3740   1417.25342     817.6362     512.3740
   1417.23816     819.3278     511.7529   1417.23816     819.3278     511.7529
   1417.22290     820.2864     514.1475   1417.22290     820.2864     514.1475
   1417.20764     821.1832     514.2817   1417.20764     821.1832     514.2817
   1417.19238     821.0292     515.4549   1417.19238     821.0292     515.4549
   1417.17712     821.1011     516.4462   1417.17712     821.1011     516.4462
   1417.16187     823.1645     516.7115   1417.16187     823.1645     516.7115
   1417.14661     823.2264     516.8390   1417.14661     823.2264     516.8390
   1417.13135     823.0845     518.1570   1417.13135     823.0845     518.1570
   1417.11609     825.4692     518.5056   1417.11609     825.4692     518.5056
   1417.10083     825.8909     519.7723   1417.10083     825.8909     519.7723
   1417.08557     825.7554     520.2683   1417.08557     825.7554     520.2683
   1417.07031     827.1166     520.6768   1417.07031     827.1166     520.6768
   1417.05505     828.5031     521.4341   1417.05505     828.5031     521.4341
   1417.03979     827.7578     522.3001   1417.03979     827.7578     522.3001
   1417.02454     828.6249     523.6661   1417.02454     828.6249     523.6661
   1417.00928     830.1908     523.4197   1417.00928     830.1908     523.4197
   1416.99402     830.1775     524.1459   1416.99402     830.1775     524.1459
   1416.97876     830.9766     524.4960   1416.97876     830.9766     524.4960
   1416.96350     832.2054     523.9871   1416.96350     832.2054     523.9871
   1416.94824     832.9086     525.0439   1416.94824     832.9086     525.0439
   1416.93298     834.2328     526.2851   1416.93298     834.2328     526.2851
   1416.91772     832.9355     525.7057   1416.91772     832.9355     525.7057
   1416.90247     834.4278     527.3774   1416.90247     834.4278     527.3774
   1416.88721     834.7633     527.6553   1416.88721     834.7633     527.6553
   1416.87195     834.7644     527.7737   1416.87195     834.7644     527.7737
   1416.85669     836.3850     527.6603   1416.85669     836.3850     527.6603
   1416.84143     836.3491     528.9551   1416.84143     836.3491     528.9551
   1416.82617     836.7598     528.8484   1416.82617     836.7598     528.8484
   1416.81091     837.5040     529.7509   1416.81091     837.5040     529.7509
   1416.79565     836.0803     529.7527   1416.79565     836.0803     529.7527
   1416.78040     838.0172     530.7881   1416.78040     838.0172     530.7881
   1416.76514     837.8692     530.6083   1416.76514     837.8692     530.6083
   1416.74988     838.8651     531.1680   1416.74988     838.8651     531.1680
   1416.73462     838.8041     531.5044   1416.73462     838.8041     531.5044
   1416.71936     839.4916     530.9939   1416.71936     839.4916     530.9939
   1416.70410     840.7173     531.9451   1416.70410     840.7173     531.9451
   1416.68884     839.3719     531.3409   1416.68884     839.3719     531.3409
   1416.67358     839.8098     532.0839   1416.67358     839.8098     532.0839
   1416.65833     841.1678     532.1544   1416.65833     841.1678     532.1544
   1416.64307     840.4246     531.6179   1416.64307     840.4246     531.6179
   1416.62781     841.8168     532.6981   1416.62781     841.8168     532.6981
   1416.61255     839.3036     531.9056   1416.61255     839.3036     531.9056
   1416.59729     841.7142     531.8075   1416.59729     841.7142     531.8075
   1416.58203     841.0906     531.9293   1416.58203     841.0906     531.9293
   1416.56677     843.2033     532.2193   1416.56677     843.2033     532.2193
   1416.55151     842.0826     532.5890   1416.55151     842.0826     532.5890
   1416.53625     841.6777     531.7919   1416.53625     841.6777     531.7919
   1416.52100     842.4098     532.6463   1416.52100     842.4098     532.6463
   1416.50574     842.8469     532.5208   1416.50574     842.8469     532.5208
   1416.49048     841.3917     531.8470   1416.49048     841.3917     531.8470
   1416.47522     841.5261     531.5214   1416.47522     841.5261     531.5214
   1416.45996     842.8375     532.1520   1416.45996     842.8375     532.1520
   1416.44470     843.3856     531.9844   1416.44470     843.3856     531.9844
   1416.42944     842.1932     531.0773   1416.42944     842.1932     531.0773
   1416.41418     842.2884     532.2380   1416.41418     842.2884     532.2380
   1416.39893     842.7546     530.8318   1416.39893     842.7546     530.8318
   1416.38367     842.9251     530.5417   1416.38367     842.9251     530.5417
   1416.36841     841.2679     530.0019   1416.36841     841.2679     530.0019
   1416.35315     843.8187     530.4478   1416.35315     843.8187     530.4478
   1416.33789     841.3092     530.3708   1416.33789     841.3092     530.3708
   1416.32263     841.9605     530.2289   1416.32263     841.9605     530.2289
   1416.30737     841.4028     529.8459   1416.30737     841.4028     529.8459
   1416.29211     841.1034     529.2776   1416.29211     841.1034     529.2776
   1416.27686     841.4600     528.6147   1416.27686     841.4600     528.6147
   1416.26160     840.1274     528.6273   1416.26160     840.1274     528.6273
   1416.24634     841.1240     527.5756   1416.24634     841.1240     527.5756
   1416.23108     840.3762     528.1620   1416.23108     840.3762     528.1620
   1416.21582     840.2977     528.1472   1416.21582     840.2977     528.1472
   1416.20056     839.8084     526.7465   1416.20056     839.8084     526.7465
   1416.18530     839.8949     526.6906   1416.18530     839.8949     526.6906
   1416.17004     839.4438     525.9623   1416.17004     839.4438     525.9623
   1416.15479     839.6969     526.4034   1416.15479     839.6969     526.4034
   1416.13953     839.7634     526.4171   1416.13953     839.7634     526.4171
   1416.12427     838.4991     525.0064   1416.12427     838.4991     525.0064
   1416.10901     837.4467     524.3176   1416.10901     837.4467     524.3176
   1416.09375     836.3289     524.2139   1416.09375     836.3289     524.2139
   1416.07849     836.3911     522.9983   1416.07849     836.3911     522.9983
   1416.06323     837.4983     523.4407   1416.06323     837.4983     523.4407
   1416.04797     835.8760     522.9127   1416.04797     835.8760     522.9127
   1416.03271     834.7792     522.4373   1416.03271     834.7792     522.4373
   1416.01746     834.9811     521.6479   1416.01746     834.9811     521.6479
   1416.00220     834.8203     521.0890   1416.00220     834.8203     521.0890
   1415.98694     834.2367     520.6263   1415.98694     834.2367     520.6263
   1415.97168     834.6529     521.1126   1415.97168     834.6529     521.1126
   1415.95642     832.8376     520.5690   1415.95642     832.8376     520.5690
   1415.94116     831.9287     519.2549   1415.94116     831.9287     519.2549
   1415.92590     832.7790     518.5835   1415.92590     832.7790     518.5835
   1415.91064     831.0730     518.5126   1415.91064     831.0730     518.5126
   1415.89539     831.2352     516.8776   1415.89539     831.2352     516.8776
   1415.88013     830.4799     517.4292   1415.88013     830.4799     517.4292
   1415.86487     829.8464     516.3889   1415.86487     829.8464     516.3889
   1415.84961     829.8153     516.4521   1415.84961     829.8153     516.4521
   1415.83435     828.1051     515.2806   1415.83435     828.1051     515.2806
   1415.81909     827.8545     515.3841   1415.81909     827.8545     515.3841
   1415.80383     826.9959     514.5761   1415.80383     826.9959     514.5761
   1415.78857     827.3773     514.0510   1415.78857     827.3773     514.0510
   1415.77332     826.0659     512.8416   1415.77332     826.0659     512.8416
   1415.75806     825.3602     512.5747   1415.75806     825.3602     512.5747
   1415.74280     823.9443     511.8812   1415.74280     823.9443     511.8812
   1415.72754     824.0547     511.8453   1415.72754     824.0547     511.8453
   1415.71228     821.5745     510.9445   1415.71228     821.5745     510.9445
   1415.69702     820.0615     509.9154   1415.69702     820.0615     509.9154
   1415.68176     820.1298     508.9713   1415.68176     820.1298     508.9713
   1415.66650     818.5689     508.9940   1415.66650     818.5689     508.9940
   1415.65125     819.0529     508.1595   1415.65125     819.0529     508.1595
   1415.63599     816.3281     507.5443   1415.63599     816.3281     507.5443
   1415.62073     817.4576     507.1707   1415.62073     817.4576     507.1707
   1415.60547     817.3717     506.3328   1415.60547     817.3717     506.3328
   1415.59021     815.1805     504.9514   1415.59021     815.1805     504.9514
   1415.57495     814.0869     504.2379   1415.57495     814.0869     504.2379
   1415.55969     813.5311     503.8955   1415.55969     813.5311     503.8955
   1415.54443     812.3464     504.1015   1415.54443     812.3464     504.1015
   1415.52917     810.8091     502.5945   1415.52917     810.8091     502.5945
   1415.51392     810.7409     502.6497   1415.51392     810.7409     502.6497
   1415.49866     809.0826     502.3951   1415.49866     809.0826     502.3951
   1415.48340     807.9361     501.0558   1415.48340     807.9361     501.0558
   1415.46814     807.2216     500.5574   1415.46814     807.2216     500.5574
   1415.45288     807.3164     499.7116   1415.45288     807.3164     499.7116
   1415.43762     805.9548     499.2767   1415.43762     805.9548     499.2767
   1415.42236     803.6550     499.1049   1415.42236     803.6550     499.1049
   1415.40710     803.2874     498.4379   1415.40710     803.2874     498.4379
   1415.39185     801.9063     497.1435   1415.39185     801.9063     497.1435
   1415.37659     800.6521     496.1525   1415.37659     800.6521     496.1525
   1415.36133     798.0442     495.5444   1415.36133     798.0442     495.5444
   1415.34607     797.3916     495.3463   1415.34607     797.3916     495.3463
   1415.33081     797.2175     493.9205   1415.33081     797.2175     493.9205
   1415.31555     795.7878     493.6005   1415.31555     795.7878     493.6005
   1415.30029     794.3849     493.6310   1415.30029     794.3849     493.6310
   1415.28503     792.3664     492.0363   1415.28503     792.3664     492.0363
   1415.26978     791.3978     491.1750   1415.26978     791.3978     491.1750
   1415.25452     790.1564     490.2292   1415.25452     790.1564     490.2292
   1415.23926     787.4885     489.6203   1415.23926     787.4885     489.6203
   1415.22400     787.3763     488.5557   1415.22400     787.3763     488.5557
   1415.20874     785.5874     488.2861   1415.20874     785.5874     488.2861
   1415.19348     784.1059     487.6443   1415.19348     784.1059     487.6443
   1415.17822     784.1185     487.8235   1415.17822     784.1185     487.8235
   1415.16296     782.2975     485.2894   1415.16296     782.2975     485.2894
   1415.14771     779.9824     484.4419   1415.14771     779.9824     484.4419
   1415.13245     778.2048     483.8105   1415.13245     778.2048     483.8105
   1415.11719     778.4208     482.7469   1415.11719     778.4208     482.7469
   1415.10193     775.8315     482.5099   1415.10193     775.8315     482.5099
   1415.08667     774.0704     481.3296   1415.08667     774.0704     481.3296
   1415.07141     770.7601     481.2739   1415.07141     770.7601     481.2739
   1415.05615     771.4196     479.2252   1415.05615     771.4196     479.2252
   1415.04089     768.4518     478.7697   1415.04089     768.4518     478.7697
   1415.02563     766.9871     477.8672   1415.02563     766.9871     477.8672
   1415.01038     765.7805     477.3618   1415.01038     765.7805     477.3618
   1414.99512     764.4321     476.2158   1414.99512     764.4321     476.2158
   1414.97986     762.2601     474.8233   1414.97986     762.2601     474.8233
   1414.96460     761.9264     474.1928   1414.96460     761.9264     474.1928
   1414.94934     759.5783     473.1163   1414.94934     759.5783     473.1163
   1414.93408     757.7432     472.4766   1414.93408     757.7432     472.4766
   1414.91882     755.3637     470.8365   1414.91882     755.3637     470.8365
   1414.90356     753.2155     470.0454   1414.90356     753.2155     470.0454
   1414.88831     750.0527     469.0923   1414.88831     750.0527     469.0923
   1414.87305     748.9955     467.4321   1414.87305     748.9955     467.4321
   1414.85779     748.7175     467.0156   1414.85779     748.7175     467.0156
   1414.84253     744.8454     466.7143   1414.84253     744.8454     466.7143
   1414.82727     744.3238     464.5680   1414.82727     744.3238     464.5680
   1414.81201     742.4254     464.4840   1414.81201     742.4254     464.4840
   1414.79675     740.3036     464.0274   1414.79675     740.3036     464.0274
   1414.78149     738.1509     462.5348   1414.78149     738.1509     462.5348
   1414.76624     736.1259     460.8348   1414.76624     736.1259     460.8348
   1414.75098     732.6523     460.0154   1414.75098     732.6523     460.0154
   1414.73572     731.2850     459.5042   1414.73572     731.2850     459.5042
   1414.72046     729.6500     458.1635   1414.72046     729.6500     458.1635
   1414.70520     726.8649     456.3258   1414.70520     726.8649     456.3258
   1414.68994     726.0673     455.2436   1414.68994     726.0673     455.2436
   1414.67468     723.5778     454.4084   1414.67468     723.5778     454.4084
   1414.65942     721.1383     453.3398   1414.65942     721.1383     453.3398
   1414.64417     718.8518     453.0761   1414.64417     718.8518     453.0761
   1414.62891     717.3461     450.9447   1414.62891     717.3461     450.9447
   1414.61365     714.0259     450.5431   1414.61365     714.0259     450.5431
   1414.59839     712.3659     448.6765   1414.59839     712.3659     448.6765
   1414.58313     710.6420     447.4949   1414.58313     710.6420     447.4949
   1414.56787     706.9808     445.7530   1414.56787     706.9808     445.7530
   1414.55261     705.4799     445.5127   1414.55261     705.4799     445.5127
   1414.53735     701.5963     444.1683   1414.53735     701.5963     444.1683
   1414.52209     700.7546     442.9741   1414.52209     700.7546     442.9741
   1414.50684     697.7729     441.5677   1414.50684     697.7729     441.5677
   1414.49158     695.5331     440.6190   1414.49158     695.5331     440.6190
   1414.47632     691.6328     438.1257   1414.47632     691.6328     438.1257
   1414.46106     690.5467     437.6402   1414.46106     690.5467     437.6402
   1414.44580     688.4474     437.0407   1414.44580     688.4474     437.0407
   1414.43054     685.2886     434.9119   1414.43054     685.2886     434.9119
   1414.41528     682.6783     434.1726   1414.41528     682.6783     434.1726
   1414.40002     680.6237     432.9276   1414.40002     680.6237     432.9276
   1414.38477     677.1627     431.5266   1414.38477     677.1627     431.5266
   1414.36951     674.8701     430.5973   1414.36951     674.8701     430.5973
   1414.35425     672.8829     429.3355   1414.35425     672.8829     429.3355
   1414.33899     670.1367     427.8336   1414.33899     670.1367     427.8336
   1414.32373     667.7429     426.0785   1414.32373     667.7429     426.0785
   1414.30847     664.3070     424.4767   1414.30847     664.3070     424.4767
   1414.29321     661.8941     423.8659   1414.29321     661.8941     423.8659
   1414.27795     658.4938     422.3943   1414.27795     658.4938     422.3943
   1414.26270     657.1055     420.8179   1414.26270     657.1055     420.8179
   1414.24744     653.6093     418.7430   1414.24744     653.6093     418.7430
   1414.23218     649.1338     417.1923   1414.23218     649.1338     417.1923
   1414.21692     647.6813     416.5361   1414.21692     647.6813     416.5361
   1414.20166     644.7669     414.7406   1414.20166     644.7669     414.7406
   1414.18640     642.0050     413.8984   1414.18640     642.0050     413.8984
   1414.17114     640.0429     411.5284   1414.17114     640.0429     411.5284
   1414.15588     635.9392     410.5460   1414.15588     635.9392     410.5460
   1414.14062     633.0356     408.9497   1414.14062     633.0356     408.9497
   1414.12537     630.0381     407.4105   1414.12537     630.0381     407.4105
   1414.11011     627.8304     406.7045   1414.11011     627.8304     406.7045
   1414.09485     625.4017     404.7970   1414.09485     625.4017     404.7970
   1414.07959     622.2149     403.4534   1414.07959     622.2149     403.4534
   1414.06433     619.1629     402.0624   1414.06433     619.1629     402.0624
   1414.04907     615.5340     399.8204   1414.04907     615.5340     399.8204
   1414.03381     613.8243     398.9114   1414.03381     613.8243     398.9114
   1414.01855     611.3698     397.6043   1414.01855     611.3698     397.6043
   1414.00330     635.5510     405.4673   1414.00330     635.5510     405.4673
   1413.98804     605.1526     394.6196   1413.98804     605.1526     394.6196
   1413.97278     600.9349     392.3211   1413.97278     600.9349     392.3211
   1413.95752     597.4935     390.5316   1413.95752     597.4935     390.5316
   1413.94226     595.2151     390.2881   1413.94226     595.2151     390.2881
   1413.92700     591.9766     387.6956   1413.92700     591.9766     387.6956
   1413.91174     589.8798     386.1947   1413.91174     589.8798     386.1947
   1413.89648     585.6180     385.1760   1413.89648     585.6180     385.1760
   1413.88123     582.9783     382.7932   1413.88123     582.9783     382.7932
   1413.86597     580.0977     381.4839   1413.86597     580.0977     381.4839
   1413.85071     577.3998     380.4249   1413.85071     577.3998     380.4249
   1413.83545     572.8142     378.3323   1413.83545     572.8142     378.3323
   1413.82019     570.1000     377.1206   1413.82019     570.1000     377.1206
   1413.80493     567.5007     375.7568   1413.80493     567.5007     375.7568
   1413.78967     564.8027     373.7580   1413.78967     564.8027     373.7580
   1413.77441     561.3036     372.5413   1413.77441     561.3036     372.5413
   1413.75916     559.4795     370.4880   1413.75916     559.4795     370.4880
   1413.74390     554.9548     369.8303   1413.74390     554.9548     369.8303
   1413.72864     551.8776     367.4843   1413.72864     551.8776     367.4843
   1413.71338     548.8680     365.5176   1413.71338     548.8680     365.5176
   1413.69812     545.2845     365.1938   1413.69812     545.2845     365.1938
   1413.68286     542.7978     363.0559   1413.68286     542.7978     363.0559
   1413.66760     538.6041     361.2675   1413.66760     538.6041     361.2675
   1413.65234     535.8729     360.0669   1413.65234     535.8729     360.0669
   1413.63708     533.9788     357.6903   1413.63708     533.9788     357.6903
   1413.62183     530.4327     356.5490   1413.62183     530.4327     356.5490
   1413.60657     527.6146     354.9819   1413.60657     527.6146     354.9819
   1413.59131     524.0228     353.0424   1413.59131     524.0228     353.0424
   1413.57605     520.4413     351.3943   1413.57605     520.4413     351.3943
   1413.56079     518.3087     350.0446   1413.56079     518.3087     350.0446
   1413.54553     514.6354     348.7946   1413.54553     514.6354     348.7946
   1413.53027     511.8276     346.9043   1413.53027     511.8276     346.9043
   1413.51501     508.8202     345.8406   1413.51501     508.8202     345.8406
   1413.49976     505.9725     344.0543   1413.49976     505.9725     344.0543
   1413.48450     502.9282     342.3251   1413.48450     502.9282     342.3251
   1413.46924     500.2959     340.6622   1413.46924     500.2959     340.6622
   1413.45398     496.4204     339.3048   1413.45398     496.4204     339.3048
   1413.43872     494.3490     337.6054   1413.43872     494.3490     337.6054
   1413.42346     491.2309     336.2145   1413.42346     491.2309     336.2145
   1413.40820     487.5878     334.8257   1413.40820     487.5878     334.8257
   1413.39294     486.0371     333.6512   1413.39294     486.0371     333.6512
   1413.37769     482.4873     331.5065   1413.37769     482.4873     331.5065
   1413.36243     479.4085     330.0564   1413.36243     479.4085     330.0564
   1413.34717     477.0845     329.1208   1413.34717     477.0845     329.1208
   1413.33191     474.7403     327.6092   1413.33191     474.7403     327.6092
   1413.31665     470.7407     325.9816   1413.31665     470.7407     325.9816
   1413.30139     468.6204     324.4227   1413.30139     468.6204     324.4227
   1413.28613     465.0135     323.4702   1413.28613     465.0135     323.4702
   1413.27087     462.8791     321.1458   1413.27087     462.8791     321.1458
   1413.25562     460.0869     320.6656   1413.25562     460.0869     320.6656
   1413.24036     458.1678     318.3008   1413.24036     458.1678     318.3008
   1413.22510     455.0267     317.4604   1413.22510     455.0267     317.4604
   1413.20984     451.6124     315.8729   1413.20984     451.6124     315.8729
   1413.19458     449.8107     314.4569   1413.19458     449.8107     314.4569
   1413.17932     446.9963     313.2790   1413.17932     446.9963     313.2790
   1413.16406     444.3363     311.9112   1413.16406     444.3363     311.9112
   1413.14880     441.5934     311.2865   1413.14880     441.5934     311.2865
   1413.13354     440.2202     310.1603   1413.13354     440.2202     310.1603
   1413.11829     437.0184     308.4414   1413.11829     437.0184     308.4414
   1413.10303     434.9576     307.2650   1413.10303     434.9576     307.2650
   1413.08777     431.7319     305.8412   1413.08777     431.7319     305.8412
   1413.07251     430.1770     305.2493   1413.07251     430.1770     305.2493
   1413.05725     427.9339     303.1645   1413.05725     427.9339     303.1645
   1413.04199     424.9222     302.7422   1413.04199     424.9222     302.7422
   1413.02673     423.0369     301.2474   1413.02673     423.0369     301.2474
   1413.01147     421.1041     300.4755   1413.01147     421.1041     300.4755
   1412.99622     418.3824     299.4054   1412.99622     418.3824     299.4054
   1412.98096     416.8753     298.3260   1412.98096     416.8753     298.3260
   1412.96570     415.3623     297.2589   1412.96570     415.3623     297.2589
   1412.95044     412.7257     296.3271   1412.95044     412.7257     296.3271
   1412.93518     409.9637     295.3603   1412.93518     409.9637     295.3603
   1412.91992     408.9099     294.2461   1412.91992     408.9099     294.2461
   1412.90466     406.8691     293.0152   1412.90466     406.8691     293.0152
   1412.88940     405.1621     292.3075   1412.88940     405.1621     292.3075
   1412.87415     402.6917     291.3180   1412.87415     402.6917     291.3180
   1412.85889     401.0352     290.2879   1412.85889     401.0352     290.2879
   1412.84363     399.4327     289.8669   1412.84363     399.4327     289.8669
   1412.82837     397.7300     289.4333   1412.82837     397.7300     289.4333
   1412.81311     395.6172     288.0836   1412.81311     395.6172     288.0836
   1412.79785     395.1630     287.9262   1412.79785     395.1630     287.9262
   1412.78259     393.5100     286.7732   1412.78259     393.5100     286.7732
   1412.76733     391.7715     285.7472   1412.76733     391.7715     285.7472
   1412.75208     389.9740     285.1121   1412.75208     389.9740     285.1121
   1412.73682     388.5833     285.3241   1412.73682     388.5833     285.3241
   1412.72156     387.7245     284.0348   1412.72156     387.7245     284.0348
   1412.70630     386.4908     283.8705   1412.70630     386.4908     283.8705
   1412.69104     385.4136     283.3813   1412.69104     385.4136     283.3813
   1412.67578     383.8653     282.4605   1412.67578     383.8653     282.4605
   1412.66052     382.4583     282.6501   1412.66052     382.4583     282.6501
   1412.64526     381.8188     281.9941   1412.64526     381.8188     281.9941
   1412.63000     380.7555     281.1191   1412.63000     380.7555     281.1191
   1412.61475     379.4174     281.0025   1412.61475     379.4174     281.0025
   1412.59949     379.6032     280.8722   1412.59949     379.6032     280.8722
   1412.58423     377.8258     280.4478   1412.58423     377.8258     280.4478
   1412.56897     377.0975     280.5643   1412.56897     377.0975     280.5643
   1412.55371     376.4519     280.3786   1412.55371     376.4519     280.3786
   1412.53845     375.4152     280.1284   1412.53845     375.4152     280.1284
   1412.52319     374.7818     280.2225   1412.52319     374.7818     280.2225
   1412.50793     373.7625     280.3044   1412.50793     373.7625     280.3044
   1412.49268     373.3683     280.0975   1412.49268     373.3683     280.0975
   1412.47742     373.3979     279.7809   1412.47742     373.3979     279.7809
   1412.46216     373.1436     279.9125   1412.46216     373.1436     279.9125
   1412.44690     371.9341     279.7888   1412.44690     371.9341     279.7888
   1412.43164     372.3416     279.7921   1412.43164     372.3416     279.7921
   1412.41638     371.5286     279.8232   1412.41638     371.5286     279.8232
   1412.40112     371.1508     280.0662   1412.40112     371.1508     280.0662
   1412.38586     371.7646     280.4684   1412.38586     371.7646     280.4684
   1412.37061     370.9406     280.4641   1412.37061     370.9406     280.4641
   1412.35535     371.5440     280.6445   1412.35535     371.5440     280.6445
   1412.34009     371.1399     281.4759   1412.34009     371.1399     281.4759
   1412.32483     371.5403     281.3941   1412.32483     371.5403     281.3941
   1412.30957     371.2517     281.9888   1412.30957     371.2517     281.9888
   1412.29431     371.9658     282.6432   1412.29431     371.9658     282.6432
   1412.27905     372.2680     283.4543   1412.27905     372.2680     283.4543
   1412.26379     372.7189     283.5335   1412.26379     372.7189     283.5335
   1412.24854     372.4205     284.1385   1412.24854     372.4205     284.1385
   1412.23328     373.3786     284.9361   1412.23328     373.3786     284.9361
   1412.21802     373.8470     285.0122   1412.21802     373.8470     285.0122
   1412.20276     373.8807     285.8000   1412.20276     373.8807     285.8000