#     FILENAME=!Skynet_57528_lach-cc-204_20609_21055.cyb.fits
#     BASENAME=Skynet_57528_lach-cc-204_20609_21055
#     SRC_NAME=lach-cc-204
#     OBSERVER=ccmadison16_9505
#     DATE_OBS=2016-05-20T20:26:51.680
#        OBSID=20609
#      SCANNUM=21055
#          MJD=57528.8530
#          UTC=73701
#     SCANTYPE=track
#     DATAMODE=HIRES
#     TUNEFREQ=1420.0000
# Actual_FREQ1=1420.0000
# Actual_FREQ2=1420.0000
#    LO1Tuning=6870.000
#     RFFILTER=1355_1435
#        OBSBW=-15.6250
#        NCHAN=1024 
#        FOCUS=37.0709
#           RA=06:35:00.09
#          DEC=07:56:33.26
#      RA(hrs)=6.583400
#     DEC(deg)=7.942600
#    AZIM(deg)=192.643
#    ELEV(deg)=58.748
#     IFattens=10.00, 9.00
#      WARNING=None
#    TCAL_XL1=7.9635
#    TCAL_YR1=9.1340
#    TCAL_XL2=7.9635
#    TCAL_YR2=9.1340
#     TRX_XL1=11.7060
#     TRX_YR1=11.7060
#     TRX_XL2=11.7060
#     TRX_YR2=11.7060
#        TAVE=1.0000
#Freq1(MHz)          XL1          YR1  Freq2(MHz)          XL2          YR2 

   1427.81250     365.2271     270.4620   1427.81250     365.2271     270.4620
   1427.79724     365.7740     271.0268   1427.79724     365.7740     271.0268
   1427.78198     366.4270     271.5049   1427.78198     366.4270     271.5049
   1427.76672     367.2558     272.7915   1427.76672     367.2558     272.7915
   1427.75146     367.5234     273.2672   1427.75146     367.5234     273.2672
   1427.73621     368.8807     274.2576   1427.73621     368.8807     274.2576
   1427.72095     369.9954     275.1708   1427.72095     369.9954     275.1708
   1427.70569     370.6672     275.7016   1427.70569     370.6672     275.7016
   1427.69043     371.3175     276.3917   1427.69043     371.3175     276.3917
   1427.67517     372.1707     277.8260   1427.67517     372.1707     277.8260
   1427.65991     373.8911     279.5918   1427.65991     373.8911     279.5918
   1427.64465     374.7046     280.3648   1427.64465     374.7046     280.3648
   1427.62939     375.8007     281.6385   1427.62939     375.8007     281.6385
   1427.61414     377.1065     282.9540   1427.61414     377.1065     282.9540
   1427.59888     378.4767     284.3872   1427.59888     378.4767     284.3872
   1427.58362     379.5938     285.1689   1427.58362     379.5938     285.1689
   1427.56836     380.5940     286.6421   1427.56836     380.5940     286.6421
   1427.55310     382.3773     287.9498   1427.55310     382.3773     287.9498
   1427.53784     383.8848     289.6502   1427.53784     383.8848     289.6502
   1427.52258     385.2820     290.9344   1427.52258     385.2820     290.9344
   1427.50732     386.8391     292.5656   1427.50732     386.8391     292.5656
   1427.49207     388.9034     294.1186   1427.49207     388.9034     294.1186
   1427.47681     389.7142     295.7213   1427.47681     389.7142     295.7213
   1427.46155     392.2444     297.6396   1427.46155     392.2444     297.6396
   1427.44629     393.2910     298.5623   1427.44629     393.2910     298.5623
   1427.43103     394.7331     300.0336   1427.43103     394.7331     300.0336
   1427.41577     397.4453     301.8504   1427.41577     397.4453     301.8504
   1427.40051     399.5170     304.0672   1427.40051     399.5170     304.0672
   1427.38525     400.4631     305.5654   1427.38525     400.4631     305.5654
   1427.37000     403.1594     306.9066   1427.37000     403.1594     306.9066
   1427.35474     403.7421     308.5582   1427.35474     403.7421     308.5582
   1427.33948     407.2612     310.7887   1427.33948     407.2612     310.7887
   1427.32422     409.2369     312.7417   1427.32422     409.2369     312.7417
   1427.30896     411.0911     314.4715   1427.30896     411.0911     314.4715
   1427.29370     413.0914     316.9213   1427.29370     413.0914     316.9213
   1427.27844     415.2872     318.9641   1427.27844     415.2872     318.9641
   1427.26318     418.1062     320.8893   1427.26318     418.1062     320.8893
   1427.24792     419.6875     322.7539   1427.24792     419.6875     322.7539
   1427.23267     421.7299     324.8225   1427.23267     421.7299     324.8225
   1427.21741     424.4623     327.0771   1427.21741     424.4623     327.0771
   1427.20215     427.6305     328.4728   1427.20215     427.6305     328.4728
   1427.18689     429.5775     331.7004   1427.18689     429.5775     331.7004
   1427.17163     431.5373     333.0925   1427.17163     431.5373     333.0925
   1427.15637     434.2037     335.6146   1427.15637     434.2037     335.6146
   1427.14111     436.3726     337.6657   1427.14111     436.3726     337.6657
   1427.12585     439.2727     339.7931   1427.12585     439.2727     339.7931
   1427.11060     441.9781     342.6143   1427.11060     441.9781     342.6143
   1427.09534     444.5525     344.9767   1427.09534     444.5525     344.9767
   1427.08008     446.6374     347.4901   1427.08008     446.6374     347.4901
   1427.06482     449.9499     349.6358   1427.06482     449.9499     349.6358
   1427.04956     452.9080     351.7761   1427.04956     452.9080     351.7761
   1427.03430     454.4785     354.6158   1427.03430     454.4785     354.6158
   1427.01904     457.6733     356.8006   1427.01904     457.6733     356.8006
   1427.00378     459.8391     358.9840   1427.00378     459.8391     358.9840
   1426.98853     463.2553     361.4503   1426.98853     463.2553     361.4503
   1426.97327     465.6586     363.9578   1426.97327     465.6586     363.9578
   1426.95801     468.7448     366.0330   1426.95801     468.7448     366.0330
   1426.94275     471.8099     368.7010   1426.94275     471.8099     368.7010
   1426.92749     473.0821     370.3004   1426.92749     473.0821     370.3004
   1426.91223     476.8055     373.6801   1426.91223     476.8055     373.6801
   1426.89697     480.0615     376.8365   1426.89697     480.0615     376.8365
   1426.88171     482.7491     379.1791   1426.88171     482.7491     379.1791
   1426.86646     486.2580     381.6668   1426.86646     486.2580     381.6668
   1426.85120     489.1399     383.7461   1426.85120     489.1399     383.7461
   1426.83594     491.1172     386.7151   1426.83594     491.1172     386.7151
   1426.82068     494.3535     389.5873   1426.82068     494.3535     389.5873
   1426.80542     497.0283     391.7320   1426.80542     497.0283     391.7320
   1426.79016     499.9397     394.9797   1426.79016     499.9397     394.9797
   1426.77490     503.6607     397.4323   1426.77490     503.6607     397.4323
   1426.75964     506.3623     399.5540   1426.75964     506.3623     399.5540
   1426.74438     508.8716     402.6792   1426.74438     508.8716     402.6792
   1426.72913     512.4617     405.2077   1426.72913     512.4617     405.2077
   1426.71387     515.2418     407.5545   1426.71387     515.2418     407.5545
   1426.69861     518.0412     410.5513   1426.69861     518.0412     410.5513
   1426.68335     521.6149     413.7021   1426.68335     521.6149     413.7021
   1426.66809     523.6116     415.5502   1426.66809     523.6116     415.5502
   1426.65283     527.1094     418.1861   1426.65283     527.1094     418.1861
   1426.63757     529.8517     421.5662   1426.63757     529.8517     421.5662
   1426.62231     533.7838     434.5186   1426.62231     533.7838     434.5186
   1426.60706     535.8437     427.3079   1426.60706     535.8437     427.3079
   1426.59180     538.7003     429.0534   1426.59180     538.7003     429.0534
   1426.57654     541.6531     431.6253   1426.57654     541.6531     431.6253
   1426.56128     545.2047     434.5804   1426.56128     545.2047     434.5804
   1426.54602     547.1638     437.1486   1426.54602     547.1638     437.1486
   1426.53076     550.5028     441.2604   1426.53076     550.5028     441.2604
   1426.51550     553.7351     443.0128   1426.51550     553.7351     443.0128
   1426.50024     556.8926     445.9491   1426.50024     556.8926     445.9491
   1426.48499     559.2496     448.1592   1426.48499     559.2496     448.1592
   1426.46973     562.1650     450.2489   1426.46973     562.1650     450.2489
   1426.45447     565.1718     453.8169   1426.45447     565.1718     453.8169
   1426.43921     568.4148     456.7139   1426.43921     568.4148     456.7139
   1426.42395     571.3612     459.1096   1426.42395     571.3612     459.1096
   1426.40869     574.3013     461.7238   1426.40869     574.3013     461.7238
   1426.39343     577.0753     464.0096   1426.39343     577.0753     464.0096
   1426.37817     579.0377     467.5786   1426.37817     579.0377     467.5786
   1426.36292     582.4354     469.3404   1426.36292     582.4354     469.3404
   1426.34766     585.7948     471.6296   1426.34766     585.7948     471.6296
   1426.33240     588.5065     474.1487   1426.33240     588.5065     474.1487
   1426.31714     590.8043     477.1149   1426.31714     590.8043     477.1149
   1426.30188     593.4323     479.4782   1426.30188     593.4323     479.4782
   1426.28662     596.4708     481.9955   1426.28662     596.4708     481.9955
   1426.27136     599.5817     484.4295   1426.27136     599.5817     484.4295
   1426.25610     601.4175     486.9534   1426.25610     601.4175     486.9534
   1426.24084     604.5638     489.6719   1426.24084     604.5638     489.6719
   1426.22559     607.9238     491.7818   1426.22559     607.9238     491.7818
   1426.21033     610.4329     494.5406   1426.21033     610.4329     494.5406
   1426.19507     613.5753     497.9500   1426.19507     613.5753     497.9500
   1426.17981     614.8412     500.1320   1426.17981     614.8412     500.1320
   1426.16455     618.0691     502.0871   1426.16455     618.0691     502.0871
   1426.14929     619.8011     504.7423   1426.14929     619.8011     504.7423
   1426.13403     623.4778     508.0408   1426.13403     623.4778     508.0408
   1426.11877     625.5840     509.9738   1426.11877     625.5840     509.9738
   1426.10352     627.1339     511.9025   1426.10352     627.1339     511.9025
   1426.08826     630.0432     514.7914   1426.08826     630.0432     514.7914
   1426.07300     632.5326     516.8410   1426.07300     632.5326     516.8410
   1426.05774     635.0451     519.5020   1426.05774     635.0451     519.5020
   1426.04248     639.1487     521.3817   1426.04248     639.1487     521.3817
   1426.02722     640.0688     523.8159   1426.02722     640.0688     523.8159
   1426.01196     641.9809     526.4875   1426.01196     641.9809     526.4875
   1425.99670     644.3713     528.8192   1425.99670     644.3713     528.8192
   1425.98145     646.8083     530.5734   1425.98145     646.8083     530.5734
   1425.96619     649.2272     532.3084   1425.96619     649.2272     532.3084
   1425.95093     651.6592     534.5394   1425.95093     651.6592     534.5394
   1425.93567     653.5341     537.3851   1425.93567     653.5341     537.3851
   1425.92041     655.3181     539.6996   1425.92041     655.3181     539.6996
   1425.90515     658.4706     541.4700   1425.90515     658.4706     541.4700
   1425.88989     660.3415     543.6364   1425.88989     660.3415     543.6364
   1425.87463     661.8185     546.1630   1425.87463     661.8185     546.1630
   1425.85938     665.1038     548.2173   1425.85938     665.1038     548.2173
   1425.84412     665.3771     550.0417   1425.84412     665.3771     550.0417
   1425.82886     668.4858     552.3129   1425.82886     668.4858     552.3129
   1425.81360     669.7825     554.3178   1425.81360     669.7825     554.3178
   1425.79834     672.3192     557.2026   1425.79834     672.3192     557.2026
   1425.78308     673.8183     558.4066   1425.78308     673.8183     558.4066
   1425.76782     676.6780     559.7437   1425.76782     676.6780     559.7437
   1425.75256     677.5485     563.3220   1425.75256     677.5485     563.3220
   1425.73730     679.0961     564.3952   1425.73730     679.0961     564.3952
   1425.72205     679.9313     566.0818   1425.72205     679.9313     566.0818
   1425.70679     684.8764     568.0316   1425.70679     684.8764     568.0316
   1425.69153     684.8484     570.5240   1425.69153     684.8484     570.5240
   1425.67627     686.6071     571.8169   1425.67627     686.6071     571.8169
   1425.66101     689.0888     572.9099   1425.66101     689.0888     572.9099
   1425.64575     689.7739     575.0668   1425.64575     689.7739     575.0668
   1425.63049     692.2946     577.4233   1425.63049     692.2946     577.4233
   1425.61523     693.0867     578.0768   1425.61523     693.0867     578.0768
   1425.59998     694.3446     580.1804   1425.59998     694.3446     580.1804
   1425.58472     695.7111     582.0634   1425.58472     695.7111     582.0634
   1425.56946     696.3325     583.2155   1425.56946     696.3325     583.2155
   1425.55420     698.9962     586.0224   1425.55420     698.9962     586.0224
   1425.53894     700.9197     586.4662   1425.53894     700.9197     586.4662
   1425.52368     701.1865     589.4775   1425.52368     701.1865     589.4775
   1425.50842     702.4341     590.4424   1425.50842     702.4341     590.4424
   1425.49316     705.4858     591.5935   1425.49316     705.4858     591.5935
   1425.47791     705.3201     593.1972   1425.47791     705.3201     593.1972
   1425.46265     706.9818     594.7468   1425.46265     706.9818     594.7468
   1425.44739     707.9872     596.4301   1425.44739     707.9872     596.4301
   1425.43213     709.2554     597.3875   1425.43213     709.2554     597.3875
   1425.41687     711.0548     601.1075   1425.41687     711.0548     601.1075
   1425.40161     712.5927     599.7869   1425.40161     712.5927     599.7869
   1425.38635     713.8264     601.9178   1425.38635     713.8264     601.9178
   1425.37109     714.1334     602.5351   1425.37109     714.1334     602.5351
   1425.35583     713.6620     604.6932   1425.35583     713.6620     604.6932
   1425.34058     716.4700     606.2340   1425.34058     716.4700     606.2340
   1425.32532     716.6995     606.9811   1425.32532     716.6995     606.9811
   1425.31006     716.3505     608.9321   1425.31006     716.3505     608.9321
   1425.29480     719.6129     609.0649   1425.29480     719.6129     609.0649
   1425.27954     719.8148     610.9518   1425.27954     719.8148     610.9518
   1425.26428     720.9559     612.4795   1425.26428     720.9559     612.4795
   1425.24902     722.1556     613.0743   1425.24902     722.1556     613.0743
   1425.23376     722.0980     614.4695   1425.23376     722.0980     614.4695
   1425.21851     723.6801     615.1152   1425.21851     723.6801     615.1152
   1425.20325     723.9238     616.0266   1425.20325     723.9238     616.0266
   1425.18799     724.5615     617.3896   1425.18799     724.5615     617.3896
   1425.17273     725.0555     619.1057   1425.17273     725.0555     619.1057
   1425.15747     725.8144     620.0312   1425.15747     725.8144     620.0312
   1425.14221     726.4346     621.2288   1425.14221     726.4346     621.2288
   1425.12695     727.4551     621.7835   1425.12695     727.4551     621.7835
   1425.11169     728.0815     623.5734   1425.11169     728.0815     623.5734
   1425.09644     728.9963     622.8250   1425.09644     728.9963     622.8250
   1425.08118     730.0682     623.7820   1425.08118     730.0682     623.7820
   1425.06592     729.3969     625.3409   1425.06592     729.3969     625.3409
   1425.05066     730.8423     626.9005   1425.05066     730.8423     626.9005
   1425.03540     730.5380     627.5579   1425.03540     730.5380     627.5579
   1425.02014     731.9329     628.0555   1425.02014     731.9329     628.0555
   1425.00488     730.9531     628.4477   1425.00488     730.9531     628.4477
   1424.98962     733.0442     629.0131   1424.98962     733.0442     629.0131
   1424.97437     733.2354     629.0147   1424.97437     733.2354     629.0147
   1424.95911     732.0187     631.7701   1424.95911     732.0187     631.7701
   1424.94385     734.7864     630.8910   1424.94385     734.7864     630.8910
   1424.92859     734.5809     632.2700   1424.92859     734.5809     632.2700
   1424.91333     734.0822     634.0103   1424.91333     734.0822     634.0103
   1424.89807     734.8375     634.5920   1424.89807     734.8375     634.5920
   1424.88281     734.8011     635.0687   1424.88281     734.8011     635.0687
   1424.86755     735.6213     633.9166   1424.86755     735.6213     633.9166
   1424.85229     734.4639     635.8944   1424.85229     734.4639     635.8944
   1424.83704     735.9435     636.0751   1424.83704     735.9435     636.0751
   1424.82178     736.5241     637.1447   1424.82178     736.5241     637.1447
   1424.80652     736.9432     638.0234   1424.80652     736.9432     638.0234
   1424.79126     735.9733     637.9645   1424.79126     735.9733     637.9645
   1424.77600     735.8178     638.1749   1424.77600     735.8178     638.1749
   1424.76074     737.4214     637.2524   1424.76074     737.4214     637.2524
   1424.74548     735.2173     639.4730   1424.74548     735.2173     639.4730
   1424.73022     737.3359     638.9523   1424.73022     737.3359     638.9523
   1424.71497     736.8109     639.2528   1424.71497     736.8109     639.2528
   1424.69971     737.3260     639.8091   1424.69971     737.3260     639.8091
   1424.68445     736.2561     640.2855   1424.68445     736.2561     640.2855
   1424.66919     736.2928     640.8172   1424.66919     736.2928     640.8172
   1424.65393     736.5391     640.9129   1424.65393     736.5391     640.9129
   1424.63867     736.2517     641.6646   1424.63867     736.2517     641.6646
   1424.62341     737.3381     642.7703   1424.62341     737.3381     642.7703
   1424.60815     736.1919     642.2925   1424.60815     736.1919     642.2925
   1424.59290     736.4662     642.6014   1424.59290     736.4662     642.6014
   1424.57764     736.6108     642.1466   1424.57764     736.6108     642.1466
   1424.56238     737.0082     643.4748   1424.56238     737.0082     643.4748
   1424.54712     735.9823     643.8835   1424.54712     735.9823     643.8835
   1424.53186     737.3043     643.1694   1424.53186     737.3043     643.1694
   1424.51660     736.4578     644.0263   1424.51660     736.4578     644.0263
   1424.50134     738.0595     644.0699   1424.50134     738.0595     644.0699
   1424.48608     736.8389     644.0930   1424.48608     736.8389     644.0930
   1424.47083     736.6415     643.5543   1424.47083     736.6415     643.5543
   1424.45557     735.1791     643.9019   1424.45557     735.1791     643.9019
   1424.44031     735.2605     645.1215   1424.44031     735.2605     645.1215
   1424.42505     735.1637     643.8173   1424.42505     735.1637     643.8173
   1424.40979     735.6110     643.2189   1424.40979     735.6110     643.2189
   1424.39453     735.3418     643.8073   1424.39453     735.3418     643.8073
   1424.37927     735.6490     644.2067   1424.37927     735.6490     644.2067
   1424.36401     734.1852     643.8132   1424.36401     734.1852     643.8132
   1424.34875     733.9977     644.0859   1424.34875     733.9977     644.0859
   1424.33350     735.2551     642.7966   1424.33350     735.2551     642.7966
   1424.31824     734.8829     644.4490   1424.31824     734.8829     644.4490
   1424.30298     733.5418     644.3615   1424.30298     733.5418     644.3615
   1424.28772     734.5211     643.9131   1424.28772     734.5211     643.9131
   1424.27246     733.8444     643.8336   1424.27246     733.8444     643.8336
   1424.25720     732.6387     643.2808   1424.25720     732.6387     643.2808
   1424.24194     733.8696     643.1671   1424.24194     733.8696     643.1671
   1424.22668     732.3859     643.6259   1424.22668     732.3859     643.6259
   1424.21143     732.6494     643.1959   1424.21143     732.6494     643.1959
   1424.19617     733.2958     642.3613   1424.19617     733.2958     642.3613
   1424.18091     731.6070     643.7279   1424.18091     731.6070     643.7279
   1424.16565     731.1989     643.5309   1424.16565     731.1989     643.5309
   1424.15039     731.5133     642.2738   1424.15039     731.5133     642.2738
   1424.13513     731.7251     641.8664   1424.13513     731.7251     641.8664
   1424.11987     731.1962     642.4120   1424.11987     731.1962     642.4120
   1424.10461     729.8120     641.6333   1424.10461     729.8120     641.6333
   1424.08936     730.6364     642.6252   1424.08936     730.6364     642.6252
   1424.07410     730.1693     641.7139   1424.07410     730.1693     641.7139
   1424.05884     729.6795     640.7502   1424.05884     729.6795     640.7502
   1424.04358     730.2966     641.6938   1424.04358     730.2966     641.6938
   1424.02832     728.7116     640.9019   1424.02832     728.7116     640.9019
   1424.01306     728.2018     639.9523   1424.01306     728.2018     639.9523
   1423.99780     728.2432     640.0231   1423.99780     728.2432     640.0231
   1423.98254     728.1660     638.8959   1423.98254     728.1660     638.8959
   1423.96729     726.7064     640.3380   1423.96729     726.7064     640.3380
   1423.95203     726.2650     638.4482   1423.95203     726.2650     638.4482
   1423.93677     725.7463     637.0756   1423.93677     725.7463     637.0756
   1423.92151     726.8486     637.6921   1423.92151     726.8486     637.6921
   1423.90625     725.6011     638.4407   1423.90625     725.6011     638.4407
   1423.89099     725.7610     637.4246   1423.89099     725.7610     637.4246
   1423.87573     726.2880     636.1628   1423.87573     726.2880     636.1628
   1423.86047     724.5554     636.1458   1423.86047     724.5554     636.1458
   1423.84521     724.0585     635.9257   1423.84521     724.0585     635.9257
   1423.82996     723.6420     635.8341   1423.82996     723.6420     635.8341
   1423.81470     723.4734     634.1036   1423.81470     723.4734     634.1036
   1423.79944     723.3596     633.9927   1423.79944     723.3596     633.9927
   1423.78418     723.3068     634.1082   1423.78418     723.3068     634.1082
   1423.76892     723.0203     633.2698   1423.76892     723.0203     633.2698
   1423.75366     722.6902     633.0772   1423.75366     722.6902     633.0772
   1423.73840     722.1692     631.0872   1423.73840     722.1692     631.0872
   1423.72314     722.0687     631.6489   1423.72314     722.0687     631.6489
   1423.70789     720.0895     631.0884   1423.70789     720.0895     631.0884
   1423.69263     721.7183     630.4700   1423.69263     721.7183     630.4700
   1423.67737     721.3758     630.5268   1423.67737     721.3758     630.5268
   1423.66211     720.2076     629.5798   1423.66211     720.2076     629.5798
   1423.64685     719.8183     628.6237   1423.64685     719.8183     628.6237
   1423.63159     719.0450     629.1260   1423.63159     719.0450     629.1260
   1423.61633     718.1672     627.6494   1423.61633     718.1672     627.6494
   1423.60107     717.9843     626.9224   1423.60107     717.9843     626.9224
   1423.58582     718.1838     627.0970   1423.58582     718.1838     627.0970
   1423.57056     719.1921     625.4420   1423.57056     719.1921     625.4420
   1423.55530     718.3544     625.6802   1423.55530     718.3544     625.6802
   1423.54004     717.6490     624.6965   1423.54004     717.6490     624.6965
   1423.52478     716.5484     624.5965   1423.52478     716.5484     624.5965
   1423.50952     716.1018     623.2408   1423.50952     716.1018     623.2408
   1423.49426     715.9763     623.2988   1423.49426     715.9763     623.2988
   1423.47900     715.4944     621.2191   1423.47900     715.4944     621.2191
   1423.46375     715.4519     621.5961   1423.46375     715.4519     621.5961
   1423.44849     715.4210     620.0165   1423.44849     715.4210     620.0165
   1423.43323     715.6118     619.8920   1423.43323     715.6118     619.8920
   1423.41797     714.1097     619.2428   1423.41797     714.1097     619.2428
   1423.40271     713.2759     618.2388   1423.40271     713.2759     618.2388
   1423.38745     712.7085     618.0841   1423.38745     712.7085     618.0841
   1423.37219     713.1312     619.4680   1423.37219     713.1312     619.4680
   1423.35693     713.1149     617.4789   1423.35693     713.1149     617.4789
   1423.34167     712.9995     614.9251   1423.34167     712.9995     614.9251
   1423.32642     712.1877     614.9236   1423.32642     712.1877     614.9236
   1423.31116     711.2586     614.4956   1423.31116     711.2586     614.4956
   1423.29590     710.8041     613.5613   1423.29590     710.8041     613.5613
   1423.28064     711.1271     611.9745   1423.28064     711.1271     611.9745
   1423.26538     711.4039     611.6965   1423.26538     711.4039     611.6965
   1423.25012     711.4390     610.7269   1423.25012     711.4390     610.7269
   1423.23486     710.6315     610.0767   1423.23486     710.6315     610.0767
   1423.21960     710.2629     609.3435   1423.21960     710.2629     609.3435
   1423.20435     709.8395     608.7183   1423.20435     709.8395     608.7183
   1423.18909     708.9332     607.4046   1423.18909     708.9332     607.4046
   1423.17383     709.4907     607.3488   1423.17383     709.4907     607.3488
   1423.15857     707.9591     605.3111   1423.15857     707.9591     605.3111
   1423.14331     707.3991     605.3954   1423.14331     707.3991     605.3954
   1423.12805     707.0947     604.5507   1423.12805     707.0947     604.5507
   1423.11279     708.1060     602.0248   1423.11279     708.1060     602.0248
   1423.09753     706.7988     602.2270   1423.09753     706.7988     602.2270
   1423.08228     707.3672     601.3131   1423.08228     707.3672     601.3131
   1423.06702     707.6313     601.0132   1423.06702     707.6313     601.0132
   1423.05176     706.9692     599.8370   1423.05176     706.9692     599.8370
   1423.03650     707.2135     599.0602   1423.03650     707.2135     599.0602
   1423.02124     705.4755     598.5386   1423.02124     705.4755     598.5386
   1423.00598     704.8646     597.8380   1423.00598     704.8646     597.8380
   1422.99072     705.4601     596.4437   1422.99072     705.4601     596.4437
   1422.97546     705.7336     595.0223   1422.97546     705.7336     595.0223
   1422.96021     704.2536     594.4527   1422.96021     704.2536     594.4527
   1422.94495     704.7653     592.7415   1422.94495     704.7653     592.7415
   1422.92969     703.9398     591.9028   1422.92969     703.9398     591.9028
   1422.91443     704.6797     592.1705   1422.91443     704.6797     592.1705
   1422.89917     704.2200     590.5941   1422.89917     704.2200     590.5941
   1422.88391     703.2314     589.6669   1422.88391     703.2314     589.6669
   1422.86865     703.1182     589.8029   1422.86865     703.1182     589.8029
   1422.85339     701.6905     589.5082   1422.85339     701.6905     589.5082
   1422.83813     703.0091     588.3480   1422.83813     703.0091     588.3480
   1422.82288     702.6516     586.5701   1422.82288     702.6516     586.5701
   1422.80762     702.5515     585.5621   1422.80762     702.5515     585.5621
   1422.79236     700.7589     585.3372   1422.79236     700.7589     585.3372
   1422.77710     701.1059     583.5111   1422.77710     701.1059     583.5111
   1422.76184     701.5806     583.4948   1422.76184     701.5806     583.4948
   1422.74658     701.1640     581.8862   1422.74658     701.1640     581.8862
   1422.73132     701.2901     581.0129   1422.73132     701.2901     581.0129
   1422.71606     700.0908     579.8189   1422.71606     700.0908     579.8189
   1422.70081     700.4666     580.0044   1422.70081     700.4666     580.0044
   1422.68555     700.4563     578.8517   1422.68555     700.4563     578.8517
   1422.67029     699.1191     577.7820   1422.67029     699.1191     577.7820
   1422.65503     699.1613     576.7217   1422.65503     699.1613     576.7217
   1422.63977     698.5386     575.3093   1422.63977     698.5386     575.3093
   1422.62451     698.7146     574.8588   1422.62451     698.7146     574.8588
   1422.60925     698.6866     573.9452   1422.60925     698.6866     573.9452
   1422.59399     698.0554     572.8458   1422.59399     698.0554     572.8458
   1422.57874     697.2162     571.3083   1422.57874     697.2162     571.3083
   1422.56348     697.8090     570.4128   1422.56348     697.8090     570.4128
   1422.54822     698.9434     570.0645   1422.54822     698.9434     570.0645
   1422.53296     696.9518     568.7283   1422.53296     696.9518     568.7283
   1422.51770     697.8723     567.5427   1422.51770     697.8723     567.5427
   1422.50244     697.1823     565.7862   1422.50244     697.1823     565.7862
   1422.48718     696.1757     565.6843   1422.48718     696.1757     565.6843
   1422.47192     695.4052     564.7318   1422.47192     695.4052     564.7318
   1422.45667     695.5158     564.3796   1422.45667     695.5158     564.3796
   1422.44141     695.2830     562.5618   1422.44141     695.2830     562.5618
   1422.42615     695.3121     561.0945   1422.42615     695.3121     561.0945
   1422.41089     694.4781     560.5025   1422.41089     694.4781     560.5025
   1422.39563     694.9541     559.3290   1422.39563     694.9541     559.3290
   1422.38037     695.6337     558.8390   1422.38037     695.6337     558.8390
   1422.36511     695.4601     558.1747   1422.36511     695.4601     558.1747
   1422.34985     693.9034     556.7403   1422.34985     693.9034     556.7403
   1422.33459     694.6222     556.3453   1422.33459     694.6222     556.3453
   1422.31934     695.3587     555.2753   1422.31934     695.3587     555.2753
   1422.30408     694.3425     553.9400   1422.30408     694.3425     553.9400
   1422.28882     693.6678     552.6100   1422.28882     693.6678     552.6100
   1422.27356     694.6155     551.5333   1422.27356     694.6155     551.5333
   1422.25830     693.7602     550.6445   1422.25830     693.7602     550.6445
   1422.24304     693.7596     550.8488   1422.24304     693.7596     550.8488
   1422.22778     694.1262     549.6616   1422.22778     694.1262     549.6616
   1422.21252     693.4231     548.3311   1422.21252     693.4231     548.3311
   1422.19727     693.8131     547.3228   1422.19727     693.8131     547.3228
   1422.18201     693.0156     545.1758   1422.18201     693.0156     545.1758
   1422.16675     692.2827     545.1563   1422.16675     692.2827     545.1563
   1422.15149     692.3227     543.7400   1422.15149     692.3227     543.7400
   1422.13623     691.5312     542.3785   1422.13623     691.5312     542.3785
   1422.12097     692.0732     542.7859   1422.12097     692.0732     542.7859
   1422.10571     691.6309     541.1215   1422.10571     691.6309     541.1215
   1422.09045     692.2662     538.8069   1422.09045     692.2662     538.8069
   1422.07520     692.0104     538.2029   1422.07520     692.0104     538.2029
   1422.05994     690.5103     538.0364   1422.05994     690.5103     538.0364
   1422.04468     690.9497     536.4675   1422.04468     690.9497     536.4675
   1422.02942     690.7004     535.7950   1422.02942     690.7004     535.7950
   1422.01416     689.4575     534.7286   1422.01416     689.4575     534.7286
   1421.99890     689.7888     533.7682   1421.99890     689.7888     533.7682
   1421.98364     691.3956     533.4194   1421.98364     691.3956     533.4194
   1421.96838     689.9550     531.7465   1421.96838     689.9550     531.7465
   1421.95312     690.0220     530.9339   1421.95312     690.0220     530.9339
   1421.93787     689.7634     529.4556   1421.93787     689.7634     529.4556
   1421.92261     688.8378     528.5266   1421.92261     688.8378     528.5266
   1421.90735     689.8081     527.6542   1421.90735     689.8081     527.6542
   1421.89209     688.8742     526.3952   1421.89209     688.8742     526.3952
   1421.87683     688.2434     525.0639   1421.87683     688.2434     525.0639
   1421.86157     688.5183     523.7841   1421.86157     688.5183     523.7841
   1421.84631     689.1232     523.6805   1421.84631     689.1232     523.6805
   1421.83105     687.3807     522.8168   1421.83105     687.3807     522.8168
   1421.81580     687.2505     522.5980   1421.81580     687.2505     522.5980
   1421.80054     688.9949     521.4974   1421.80054     688.9949     521.4974
   1421.78528     688.1650     519.0752   1421.78528     688.1650     519.0752
   1421.77002     687.4966     519.0914   1421.77002     687.4966     519.0914
   1421.75476     686.0369     517.5161   1421.75476     686.0369     517.5161
   1421.73950     687.0234     516.0496   1421.73950     687.0234     516.0496
   1421.72424     686.8117     514.8508   1421.72424     686.8117     514.8508
   1421.70898     686.7646     514.3856   1421.70898     686.7646     514.3856
   1421.69373     686.3895     513.5697   1421.69373     686.3895     513.5697
   1421.67847     686.6847     511.8479   1421.67847     686.6847     511.8479
   1421.66321     685.8137     510.7540   1421.66321     685.8137     510.7540
   1421.64795     684.5684     509.7281   1421.64795     684.5684     509.7281
   1421.63269     685.1108     509.0415   1421.63269     685.1108     509.0415
   1421.61743     684.7732     508.1125   1421.61743     684.7732     508.1125
   1421.60217     685.8596     507.0020   1421.60217     685.8596     507.0020
   1421.58691     683.7289     506.5517   1421.58691     683.7289     506.5517
   1421.57166     684.5747     505.0939   1421.57166     684.5747     505.0939
   1421.55640     683.7611     503.8076   1421.55640     683.7611     503.8076
   1421.54114     684.2425     503.6966   1421.54114     684.2425     503.6966
   1421.52588     683.2972     502.4846   1421.52588     683.2972     502.4846
   1421.51062     682.8700     501.6107   1421.51062     682.8700     501.6107
   1421.49536     682.7576     499.7415   1421.49536     682.7576     499.7415
   1421.48010     683.4773     498.9785   1421.48010     683.4773     498.9785
   1421.46484     682.4337     497.2202   1421.46484     682.4337     497.2202
   1421.44958     682.8996     497.4348   1421.44958     682.8996     497.4348
   1421.43433     682.7169     495.3812   1421.43433     682.7169     495.3812
   1421.41907     681.3647     494.2409   1421.41907     681.3647     494.2409
   1421.40381     681.3566     494.2363   1421.40381     681.3566     494.2363
   1421.38855     681.7422     491.9529   1421.38855     681.7422     491.9529
   1421.37329     680.5879     491.3622   1421.37329     680.5879     491.3622
   1421.35803     681.0795     491.5300   1421.35803     681.0795     491.5300
   1421.34277     682.0101     489.9716   1421.34277     682.0101     489.9716
   1421.32751     681.3224     488.6394   1421.32751     681.3224     488.6394
   1421.31226     679.9219     488.0701   1421.31226     679.9219     488.0701
   1421.29700     680.4720     486.9085   1421.29700     680.4720     486.9085
   1421.28174     680.8616     484.6811   1421.28174     680.8616     484.6811
   1421.26648     679.5322     483.6967   1421.26648     679.5322     483.6967
   1421.25122     678.6963     483.8263   1421.25122     678.6963     483.8263
   1421.23596     679.3452     483.5922   1421.23596     679.3452     483.5922
   1421.22070     679.8189     481.9445   1421.22070     679.8189     481.9445
   1421.20544     679.7441     480.4766   1421.20544     679.7441     480.4766
   1421.19019     678.6799     479.9069   1421.19019     678.6799     479.9069
   1421.17493     678.7832     478.6431   1421.17493     678.7832     478.6431
   1421.15967     678.2421     477.4911   1421.15967     678.2421     477.4911
   1421.14441     677.4003     477.1767   1421.14441     677.4003     477.1767
   1421.12915     677.5180     475.5050   1421.12915     677.5180     475.5050
   1421.11389     676.2945     474.1435   1421.11389     676.2945     474.1435
   1421.09863     676.9412     473.6847   1421.09863     676.9412     473.6847
   1421.08337     675.7357     472.2410   1421.08337     675.7357     472.2410
   1421.06812     676.6819     471.7546   1421.06812     676.6819     471.7546
   1421.05286     676.3174     471.2376   1421.05286     676.3174     471.2376
   1421.03760     674.7258     470.3473   1421.03760     674.7258     470.3473
   1421.02234     675.1785     469.4814   1421.02234     675.1785     469.4814
   1421.00708     675.3688     468.3174   1421.00708     675.3688     468.3174
   1420.99182     675.4144     467.3857   1420.99182     675.4144     467.3857
   1420.97656     675.8212     465.6985   1420.97656     675.8212     465.6985
   1420.96130     673.7823     465.1691   1420.96130     673.7823     465.1691
   1420.94604     674.4749     464.3422   1420.94604     674.4749     464.3422
   1420.93079     674.3758     463.6916   1420.93079     674.3758     463.6916
   1420.91553     674.6103     462.5008   1420.91553     674.6103     462.5008
   1420.90027     674.6234     461.5271   1420.90027     674.6234     461.5271
   1420.88501     673.8327     460.6740   1420.88501     673.8327     460.6740
   1420.86975     674.1456     459.4250   1420.86975     674.1456     459.4250
   1420.85449     672.6941     459.4190   1420.85449     672.6941     459.4190
   1420.83923     673.3805     458.2593   1420.83923     673.3805     458.2593
   1420.82397     672.2069     457.6898   1420.82397     672.2069     457.6898
   1420.80872     673.9085     456.6366   1420.80872     673.9085     456.6366
   1420.79346     673.0984     455.2653   1420.79346     673.0984     455.2653
   1420.77820     672.2040     455.3971   1420.77820     672.2040     455.3971
   1420.76294     672.8328     454.0115   1420.76294     672.8328     454.0115
   1420.74768     672.5899     453.3544   1420.74768     672.5899     453.3544
   1420.73242     671.7350     452.4105   1420.73242     671.7350     452.4105
   1420.71716     672.3075     452.1609   1420.71716     672.3075     452.1609
   1420.70190     672.0503     451.7791   1420.70190     672.0503     451.7791
   1420.68665     673.2195     450.1030   1420.68665     673.2195     450.1030
   1420.67139     672.9525     449.5146   1420.67139     672.9525     449.5146
   1420.65613     672.1509     449.0080   1420.65613     672.1509     449.0080
   1420.64087     672.5458     447.9476   1420.64087     672.5458     447.9476
   1420.62561     671.8124     447.6609   1420.62561     671.8124     447.6609
   1420.61035     670.8460     446.6852   1420.61035     670.8460     446.6852
   1420.59509     671.2670     446.8322   1420.59509     671.2670     446.8322
   1420.57983     673.0803     446.1648   1420.57983     673.0803     446.1648
   1420.56458     672.1505     445.3465   1420.56458     672.1505     445.3465
   1420.54932     674.4319     445.2394   1420.54932     674.4319     445.2394
   1420.53406     674.2493     445.0962   1420.53406     674.2493     445.0962
   1420.51880     675.2637     445.1313   1420.51880     675.2637     445.1313
   1420.50354     674.5921     444.6797   1420.50354     674.5921     444.6797
   1420.48828     675.2126     444.0633   1420.48828     675.2126     444.0633
   1420.47302     674.7029     442.4655   1420.47302     674.7029     442.4655
   1420.45776     673.6411     442.5354   1420.45776     673.6411     442.5354
   1420.44250     675.2202     441.2417   1420.44250     675.2202     441.2417
   1420.42725     675.7557     441.3548   1420.42725     675.7557     441.3548
   1420.41199     674.7492     441.5646   1420.41199     674.7492     441.5646
   1420.39673     676.1044     441.2038   1420.39673     676.1044     441.2038
   1420.38147     677.2653     440.9243   1420.38147     677.2653     440.9243
   1420.36621     679.3063     442.2602   1420.36621     679.3063     442.2602
   1420.35095     682.4097     443.1250   1420.35095     682.4097     443.1250
   1420.33569     689.8287     447.1866   1420.33569     689.8287     447.1866
   1420.32043     701.3488     453.9862   1420.32043     701.3488     453.9862
   1420.30518     721.9288     466.0160   1420.30518     721.9288     466.0160
   1420.28992     761.2703     488.7349   1420.28992     761.2703     488.7349
   1420.27466     825.4983     527.2403   1420.27466     825.4983     527.2403
   1420.25940     932.2087     594.8801   1420.25940     932.2087     594.8801
   1420.24414    1169.7812     743.8386   1420.24414    1169.7812     743.8386
   1420.22888    1565.3547     983.8998   1420.22888    1565.3547     983.8998
   1420.21362    1727.4519    1086.1404   1420.21362    1727.4519    1086.1404
   1420.19836    1622.2897    1018.2289   1420.19836    1622.2897    1018.2289
   1420.18311    1584.2023     991.3516   1420.18311    1584.2023     991.3516
   1420.16785    1711.2064    1069.5016   1420.16785    1711.2064    1069.5016
   1420.15259    2003.1323    1248.9257   1420.15259    2003.1323    1248.9257
   1420.13733    2037.0768    1264.2742   1420.13733    2037.0768    1264.2742
   1420.12207    2020.0651    1253.5721   1420.12207    2020.0651    1253.5721
   1420.10681    2105.9331    1305.8271   1420.10681    2105.9331    1305.8271
   1420.09155    1886.7021    1170.4895   1420.09155    1886.7021    1170.4895
   1420.07629    1660.5077    1030.7606   1420.07629    1660.5077    1030.7606
   1420.06104    1499.4955     933.0399   1420.06104    1499.4955     933.0399
   1420.04578    1332.6055     827.9309   1420.04578    1332.6055     827.9309
   1420.03052    1094.2119     682.0549   1420.03052    1094.2119     682.0549
   1420.01526     908.9776     569.9625   1420.01526     908.9776     569.9625
   1420.00000     822.6595     517.4789   1420.00000     822.6595     517.4789
   1419.98474     736.3412     464.9955   1419.98474     736.3412     464.9955
   1419.96948     703.1527     444.5726   1419.96948     703.1527     444.5726
   1419.95422     687.8260     433.2275   1419.95422     687.8260     433.2275
   1419.93896     679.9367     427.5215   1419.93896     679.9367     427.5215
   1419.92371     673.4069     423.1874   1419.92371     673.4069     423.1874
   1419.90845     670.8118     421.5740   1419.90845     670.8118     421.5740
   1419.89319     668.0720     420.0488   1419.89319     668.0720     420.0488
   1419.87793     665.8308     418.6256   1419.87793     665.8308     418.6256
   1419.86267     665.2404     418.0593   1419.86267     665.2404     418.0593
   1419.84741     664.8616     417.4005   1419.84741     664.8616     417.4005
   1419.83215     666.2033     416.5811   1419.83215     666.2033     416.5811
   1419.81689     663.7997     415.8068   1419.81689     663.7997     415.8068
   1419.80164     663.8469     415.2805   1419.80164     663.8469     415.2805
   1419.78638     663.6000     414.8863   1419.78638     663.6000     414.8863
   1419.77112     663.3497     414.3144   1419.77112     663.3497     414.3144
   1419.75586     664.7106     413.7004   1419.75586     664.7106     413.7004
   1419.74060     664.0491     413.8372   1419.74060     664.0491     413.8372
   1419.72534     662.9420     412.8095   1419.72534     662.9420     412.8095
   1419.71008     664.3521     412.9498   1419.71008     664.3521     412.9498
   1419.69482     663.6628     411.7961   1419.69482     663.6628     411.7961
   1419.67957     663.4377     412.0372   1419.67957     663.4377     412.0372
   1419.66431     663.8582     412.3947   1419.66431     663.8582     412.3947
   1419.64905     664.8242     411.8484   1419.64905     664.8242     411.8484
   1419.63379     663.4929     410.7906   1419.63379     663.4929     410.7906
   1419.61853     663.3583     411.1505   1419.61853     663.3583     411.1505
   1419.60327     664.8280     411.5822   1419.60327     664.8280     411.5822
   1419.58801     664.5424     410.7876   1419.58801     664.5424     410.7876
   1419.57275     665.4567     410.5185   1419.57275     665.4567     410.5185
   1419.55750     665.3455     411.2214   1419.55750     665.3455     411.2214
   1419.54224     665.6293     411.0943   1419.54224     665.6293     411.0943
   1419.52698     665.0275     409.9563   1419.52698     665.0275     409.9563
   1419.51172     664.3269     410.5516   1419.51172     664.3269     410.5516
   1419.49646     665.5392     410.4120   1419.49646     665.5392     410.4120
   1419.48120     665.9590     410.0891   1419.48120     665.9590     410.0891
   1419.46594     667.2924     410.4390   1419.46594     667.2924     410.4390
   1419.45068     666.5867     410.8640   1419.45068     666.5867     410.8640
   1419.43542     666.7666     410.0902   1419.43542     666.7666     410.0902
   1419.42017     667.6285     410.2402   1419.42017     667.6285     410.2402
   1419.40491     667.6981     410.2647   1419.40491     667.6981     410.2647
   1419.38965     667.7017     410.0388   1419.38965     667.7017     410.0388
   1419.37439     667.1476     409.8889   1419.37439     667.1476     409.8889
   1419.35913     668.9597     410.4057   1419.35913     668.9597     410.4057
   1419.34387     667.2008     410.7362   1419.34387     667.2008     410.7362
   1419.32861     668.5110     410.1920   1419.32861     668.5110     410.1920
   1419.31335     670.2738     409.5826   1419.31335     670.2738     409.5826
   1419.29810     669.4930     410.3253   1419.29810     669.4930     410.3253
   1419.28284     670.4280     410.3795   1419.28284     670.4280     410.3795
   1419.26758     671.7831     411.7485   1419.26758     671.7831     411.7485
   1419.25232     670.6340     410.7194   1419.25232     670.6340     410.7194
   1419.23706     671.2777     410.3030   1419.23706     671.2777     410.3030
   1419.22180     672.3336     410.3396   1419.22180     672.3336     410.3396
   1419.20654     672.5110     411.0078   1419.20654     672.5110     411.0078
   1419.19128     671.8621     411.1010   1419.19128     671.8621     411.1010
   1419.17603     672.2266     411.1201   1419.17603     672.2266     411.1201
   1419.16077     672.2726     411.6562   1419.16077     672.2726     411.6562
   1419.14551     672.7903     411.9169   1419.14551     672.7903     411.9169
   1419.13025     674.6185     411.7908   1419.13025     674.6185     411.7908
   1419.11499     674.4450     412.2851   1419.11499     674.4450     412.2851
   1419.09973     674.7285     412.3455   1419.09973     674.7285     412.3455
   1419.08447     675.0154     412.7334   1419.08447     675.0154     412.7334
   1419.06921     674.5891     413.0945   1419.06921     674.5891     413.0945
   1419.05396     676.1642     413.0502   1419.05396     676.1642     413.0502
   1419.03870     676.4283     413.1666   1419.03870     676.4283     413.1666
   1419.02344     676.5861     413.9405   1419.02344     676.5861     413.9405
   1419.00818     677.5535     413.8833   1419.00818     677.5535     413.8833
   1418.99292     678.6760     414.5406   1418.99292     678.6760     414.5406
   1418.97766     678.0633     414.6588   1418.97766     678.0633     414.6588
   1418.96240     678.7220     415.0191   1418.96240     678.7220     415.0191
   1418.94714     679.1724     414.7688   1418.94714     679.1724     414.7688
   1418.93188     680.3343     415.1779   1418.93188     680.3343     415.1779
   1418.91663     680.4791     416.7900   1418.91663     680.4791     416.7900
   1418.90137     681.0192     416.6678   1418.90137     681.0192     416.6678
   1418.88611     681.4105     417.0555   1418.88611     681.4105     417.0555
   1418.87085     683.3339     417.4945   1418.87085     683.3339     417.4945
   1418.85559     682.2057     417.8430   1418.85559     682.2057     417.8430
   1418.84033     684.2650     417.6783   1418.84033     684.2650     417.6783
   1418.82507     683.7137     418.5414   1418.82507     683.7137     418.5414
   1418.80981     685.0368     419.3043   1418.80981     685.0368     419.3043
   1418.79456     685.5552     419.8498   1418.79456     685.5552     419.8498
   1418.77930     685.7607     419.8231   1418.77930     685.7607     419.8231
   1418.76404     686.1512     420.4754   1418.76404     686.1512     420.4754
   1418.74878     687.3810     421.7721   1418.74878     687.3810     421.7721
   1418.73352     688.2324     421.2941   1418.73352     688.2324     421.2941
   1418.71826     689.4645     422.7355   1418.71826     689.4645     422.7355
   1418.70300     688.6176     422.5786   1418.70300     688.6176     422.5786
   1418.68774     690.1509     423.4475   1418.68774     690.1509     423.4475
   1418.67249     690.7793     424.2765   1418.67249     690.7793     424.2765
   1418.65723     690.6052     424.3979   1418.65723     690.6052     424.3979
   1418.64197     691.1955     424.4255   1418.64197     691.1955     424.4255
   1418.62671     692.4351     426.1295   1418.62671     692.4351     426.1295
   1418.61145     693.2590     426.2163   1418.61145     693.2590     426.2163
   1418.59619     692.9711     427.4228   1418.59619     692.9711     427.4228
   1418.58093     694.0173     427.6806   1418.58093     694.0173     427.6806
   1418.56567     695.2321     428.1805   1418.56567     695.2321     428.1805
   1418.55042     695.9366     429.4290   1418.55042     695.9366     429.4290
   1418.53516     697.3527     429.6666   1418.53516     697.3527     429.6666
   1418.51990     696.7222     430.5843   1418.51990     696.7222     430.5843
   1418.50464     697.8815     431.0429   1418.50464     697.8815     431.0429
   1418.48938     699.1790     431.4717   1418.48938     699.1790     431.4717
   1418.47412     699.3735     432.7213   1418.47412     699.3735     432.7213
   1418.45886     700.3046     433.4071   1418.45886     700.3046     433.4071
   1418.44360     701.3884     434.4226   1418.44360     701.3884     434.4226
   1418.42834     701.8948     434.7445   1418.42834     701.8948     434.7445
   1418.41309     701.5901     435.7377   1418.41309     701.5901     435.7377
   1418.39783     702.9094     436.4010   1418.39783     702.9094     436.4010
   1418.38257     704.0181     437.5377   1418.38257     704.0181     437.5377
   1418.36731     704.8069     438.0536   1418.36731     704.8069     438.0536
   1418.35205     705.2914     438.8976   1418.35205     705.2914     438.8976
   1418.33679     707.2269     439.4547   1418.33679     707.2269     439.4547
   1418.32153     707.0931     440.0235   1418.32153     707.0931     440.0235
   1418.30627     707.5984     441.4581   1418.30627     707.5984     441.4581
   1418.29102     708.9481     442.0871   1418.29102     708.9481     442.0871
   1418.27576     709.9078     443.1457   1418.27576     709.9078     443.1457
   1418.26050     710.3516     443.9381   1418.26050     710.3516     443.9381
   1418.24524     710.8286     444.9711   1418.24524     710.8286     444.9711
   1418.22998     712.0663     445.8251   1418.22998     712.0663     445.8251
   1418.21472     712.7512     445.8643   1418.21472     712.7512     445.8643
   1418.19946     713.6220     447.4320   1418.19946     713.6220     447.4320
   1418.18420     714.6177     448.6719   1418.18420     714.6177     448.6719
   1418.16895     715.4620     449.3486   1418.16895     715.4620     449.3486
   1418.15369     716.4802     449.7378   1418.15369     716.4802     449.7378
   1418.13843     716.6974     451.7039   1418.13843     716.6974     451.7039
   1418.12317     717.6939     451.6526   1418.12317     717.6939     451.6526
   1418.10791     718.8230     452.8983   1418.10791     718.8230     452.8983
   1418.09265     720.5096     453.6982   1418.09265     720.5096     453.6982
   1418.07739     720.0442     455.5269   1418.07739     720.0442     455.5269
   1418.06213     721.1079     455.8160   1418.06213     721.1079     455.8160
   1418.04688     722.7407     456.7146   1418.04688     722.7407     456.7146
   1418.03162     723.4130     457.7340   1418.03162     723.4130     457.7340
   1418.01636     722.4893     458.9690   1418.01636     722.4893     458.9690
   1418.00110     724.7766     460.5183   1418.00110     724.7766     460.5183
   1417.98584     725.9331     461.6274   1417.98584     725.9331     461.6274
   1417.97058     726.0720     462.0035   1417.97058     726.0720     462.0035
   1417.95532     728.5721     463.0313   1417.95532     728.5721     463.0313
   1417.94006     728.5211     465.0917   1417.94006     728.5211     465.0917
   1417.92480     729.5358     465.9754   1417.92480     729.5358     465.9754
   1417.90955     731.9797     466.2026   1417.90955     731.9797     466.2026
   1417.89429     732.1392     467.3087   1417.89429     732.1392     467.3087
   1417.87903     731.8736     468.4578   1417.87903     731.8736     468.4578
   1417.86377     733.1330     469.9778   1417.86377     733.1330     469.9778
   1417.84851     734.8339     471.1976   1417.84851     734.8339     471.1976
   1417.83325     734.3476     472.4095   1417.83325     734.3476     472.4095
   1417.81799     734.4897     472.6745   1417.81799     734.4897     472.6745
   1417.80273     736.7418     473.6183   1417.80273     736.7418     473.6183
   1417.78748     737.4880     474.8766   1417.78748     737.4880     474.8766
   1417.77222     737.4885     476.6064   1417.77222     737.4885     476.6064
   1417.75696     740.6961     477.7784   1417.75696     740.6961     477.7784
   1417.74170     740.2466     479.2410   1417.74170     740.2466     479.2410
   1417.72644     741.6534     479.7511   1417.72644     741.6534     479.7511
   1417.71118     742.1866     481.0137   1417.71118     742.1866     481.0137
   1417.69592     742.4986     481.5341   1417.69592     742.4986     481.5341
   1417.68066     744.0432     483.1044   1417.68066     744.0432     483.1044
   1417.66541     745.3148     484.1816   1417.66541     745.3148     484.1816
   1417.65015     746.1135     486.1976   1417.65015     746.1135     486.1976
   1417.63489     747.3301     486.5325   1417.63489     747.3301     486.5325
   1417.61963     748.3401     487.8238   1417.61963     748.3401     487.8238
   1417.60437     748.9691     488.9395   1417.60437     748.9691     488.9395
   1417.58911     749.9559     489.6514   1417.58911     749.9559     489.6514
   1417.57385     748.8317     491.5289   1417.57385     748.8317     491.5289
   1417.55859     751.5611     492.5437   1417.55859     751.5611     492.5437
   1417.54333     752.5690     493.3738   1417.54333     752.5690     493.3738
   1417.52808     754.1039     495.2567   1417.52808     754.1039     495.2567
   1417.51282     754.9073     495.9087   1417.51282     754.9073     495.9087
   1417.49756     754.8046     497.2641   1417.49756     754.8046     497.2641
   1417.48230     756.5724     498.9726   1417.48230     756.5724     498.9726
   1417.46704     756.5884     499.5901   1417.46704     756.5884     499.5901
   1417.45178     757.9662     500.6769   1417.45178     757.9662     500.6769
   1417.43652     759.0815     502.0535   1417.43652     759.0815     502.0535
   1417.42126     759.0825     502.7133   1417.42126     759.0825     502.7133
   1417.40601     759.5613     504.3594   1417.40601     759.5613     504.3594
   1417.39075     761.1191     505.3459   1417.39075     761.1191     505.3459
   1417.37549     762.4003     506.3862   1417.37549     762.4003     506.3862
   1417.36023     762.3165     507.0374   1417.36023     762.3165     507.0374
   1417.34497     763.0250     508.9446   1417.34497     763.0250     508.9446
   1417.32971     765.3146     509.7610   1417.32971     765.3146     509.7610
   1417.31445     764.8530     509.6363   1417.31445     764.8530     509.6363
   1417.29919     764.9673     512.6649   1417.29919     764.9673     512.6649
   1417.28394     767.1035     513.6686   1417.28394     767.1035     513.6686
   1417.26868     768.8541     514.5195   1417.26868     768.8541     514.5195
   1417.25342     769.1712     515.0141   1417.25342     769.1712     515.0141
   1417.23816     768.3062     515.8395   1417.23816     768.3062     515.8395
   1417.22290     771.6362     519.7620   1417.22290     771.6362     519.7620
   1417.20764     769.0781     518.6517   1417.20764     769.0781     518.6517
   1417.19238     771.7047     520.2894   1417.19238     771.7047     520.2894
   1417.17712     772.9219     521.1554   1417.17712     772.9219     521.1554
   1417.16187     772.2927     521.5751   1417.16187     772.2927     521.5751
   1417.14661     774.4166     523.2595   1417.14661     774.4166     523.2595
   1417.13135     774.3330     524.1518   1417.13135     774.3330     524.1518
   1417.11609     774.9565     525.3269   1417.11609     774.9565     525.3269
   1417.10083     776.1503     525.7755   1417.10083     776.1503     525.7755
   1417.08557     776.5641     527.8660   1417.08557     776.5641     527.8660
   1417.07031     776.5523     527.6925   1417.07031     776.5523     527.6925
   1417.05505     778.1404     529.3047   1417.05505     778.1404     529.3047
   1417.03979     777.9703     530.4504   1417.03979     777.9703     530.4504
   1417.02454     779.0131     530.7028   1417.02454     779.0131     530.7028
   1417.00928     778.9346     531.6101   1417.00928     778.9346     531.6101
   1416.99402     779.4922     531.9794   1416.99402     779.4922     531.9794
   1416.97876     780.5964     534.3657   1416.97876     780.5964     534.3657
   1416.96350     780.5542     534.9921   1416.96350     780.5542     534.9921
   1416.94824     782.1152     535.6204   1416.94824     782.1152     535.6204
   1416.93298     782.4134     534.9999   1416.93298     782.4134     534.9999
   1416.91772     783.1449     537.3554   1416.91772     783.1449     537.3554
   1416.90247     783.2947     538.4513   1416.90247     783.2947     538.4513
   1416.88721     784.3023     538.8350   1416.88721     784.3023     538.8350
   1416.87195     783.4869     540.0483   1416.87195     783.4869     540.0483
   1416.85669     784.0706     540.4371   1416.85669     784.0706     540.4371
   1416.84143     784.8199     540.7717   1416.84143     784.8199     540.7717
   1416.82617     786.1831     541.8727   1416.82617     786.1831     541.8727
   1416.81091     785.2509     541.7227   1416.81091     785.2509     541.7227
   1416.79565     786.1803     543.1224   1416.79565     786.1803     543.1224
   1416.78040     785.8059     543.5887   1416.78040     785.8059     543.5887
   1416.76514     786.1892     543.8003   1416.76514     786.1892     543.8003
   1416.74988     787.6769     544.0766   1416.74988     787.6769     544.0766
   1416.73462     787.2549     544.8837   1416.73462     787.2549     544.8837
   1416.71936     787.6907     546.0720   1416.71936     787.6907     546.0720
   1416.70410     788.6813     546.0021   1416.70410     788.6813     546.0021
   1416.68884     786.8703     546.3538   1416.68884     786.8703     546.3538
   1416.67358     789.5336     547.4326   1416.67358     789.5336     547.4326
   1416.65833     787.7109     547.8674   1416.65833     787.7109     547.8674
   1416.64307     789.1536     547.3744   1416.64307     789.1536     547.3744
   1416.62781     788.2914     548.9883   1416.62781     788.2914     548.9883
   1416.61255     789.4520     548.8429   1416.61255     789.4520     548.8429
   1416.59729     788.8392     548.9103   1416.59729     788.8392     548.9103
   1416.58203     789.7617     548.9966   1416.58203     789.7617     548.9966
   1416.56677     789.8165     549.1653   1416.56677     789.8165     549.1653
   1416.55151     788.9090     548.3814   1416.55151     788.9090     548.3814
   1416.53625     788.9902     548.9703   1416.53625     788.9902     548.9703
   1416.52100     788.9269     549.5651   1416.52100     788.9269     549.5651
   1416.50574     789.3312     549.6637   1416.50574     789.3312     549.6637
   1416.49048     788.9430     549.4249   1416.49048     788.9430     549.4249
   1416.47522     789.2759     550.3525   1416.47522     789.2759     550.3525
   1416.45996     789.5014     550.4373   1416.45996     789.5014     550.4373
   1416.44470     789.7376     550.1142   1416.44470     789.7376     550.1142
   1416.42944     788.6185     550.9275   1416.42944     788.6185     550.9275
   1416.41418     789.6279     551.5258   1416.41418     789.6279     551.5258
   1416.39893     787.4479     549.6746   1416.39893     787.4479     549.6746
   1416.38367     788.6093     549.5665   1416.38367     788.6093     549.5665
   1416.36841     788.6250     549.5868   1416.36841     788.6250     549.5868
   1416.35315     787.2846     549.7726   1416.35315     787.2846     549.7726
   1416.33789     789.7145     550.3942   1416.33789     789.7145     550.3942
   1416.32263     787.1264     549.3914   1416.32263     787.1264     549.3914
   1416.30737     787.1208     548.7114   1416.30737     787.1208     548.7114
   1416.29211     787.7214     548.8444   1416.29211     787.7214     548.8444
   1416.27686     786.7059     548.7961   1416.27686     786.7059     548.7961
   1416.26160     786.4399     548.3071   1416.26160     786.4399     548.3071
   1416.24634     787.3959     548.4891   1416.24634     787.3959     548.4891
   1416.23108     786.2200     547.7482   1416.23108     786.2200     547.7482
   1416.21582     785.4046     548.6998   1416.21582     785.4046     548.6998
   1416.20056     786.2877     546.8940   1416.20056     786.2877     546.8940
   1416.18530     784.8875     546.3220   1416.18530     784.8875     546.3220
   1416.17004     785.5677     546.8194   1416.17004     785.5677     546.8194
   1416.15479     784.0322     545.9406   1416.15479     784.0322     545.9406
   1416.13953     782.9730     545.6404   1416.13953     782.9730     545.6404
   1416.12427     784.3875     545.2144   1416.12427     784.3875     545.2144
   1416.10901     782.3547     544.7585   1416.10901     782.3547     544.7585
   1416.09375     782.4285     544.3268   1416.09375     782.4285     544.3268
   1416.07849     781.4548     543.4639   1416.07849     781.4548     543.4639
   1416.06323     783.0807     543.2777   1416.06323     783.0807     543.2777
   1416.04797     782.4901     543.0630   1416.04797     782.4901     543.0630
   1416.03271     780.9822     542.8330   1416.03271     780.9822     542.8330
   1416.01746     780.8097     542.4202   1416.01746     780.8097     542.4202
   1416.00220     782.0722     540.7781   1416.00220     782.0722     540.7781
   1415.98694     780.2861     540.6279   1415.98694     780.2861     540.6279
   1415.97168     778.8300     540.3278   1415.97168     778.8300     540.3278
   1415.95642     778.1763     539.3160   1415.95642     778.1763     539.3160
   1415.94116     778.4905     539.5629   1415.94116     778.4905     539.5629
   1415.92590     776.9232     537.7230   1415.92590     776.9232     537.7230
   1415.91064     777.1859     537.0141   1415.91064     777.1859     537.0141
   1415.89539     777.0684     536.2337   1415.89539     777.0684     536.2337
   1415.88013     775.7014     535.7891   1415.88013     775.7014     535.7891
   1415.86487     775.2042     536.1961   1415.86487     775.2042     536.1961
   1415.84961     775.0500     536.0206   1415.84961     775.0500     536.0206
   1415.83435     773.5401     535.8828   1415.83435     773.5401     535.8828
   1415.81909     772.5726     533.9122   1415.81909     772.5726     533.9122
   1415.80383     772.2914     532.6971   1415.80383     772.2914     532.6971
   1415.78857     771.7981     532.7845   1415.78857     771.7981     532.7845
   1415.77332     771.3273     532.1086   1415.77332     771.3273     532.1086
   1415.75806     770.7609     530.5302   1415.75806     770.7609     530.5302
   1415.74280     768.8121     530.3484   1415.74280     768.8121     530.3484
   1415.72754     768.0650     529.2253   1415.72754     768.0650     529.2253
   1415.71228     769.2626     529.2228   1415.71228     769.2626     529.2228
   1415.69702     768.1030     527.6516   1415.69702     768.1030     527.6516
   1415.68176     766.2103     526.9668   1415.68176     766.2103     526.9668
   1415.66650     766.6968     526.6491   1415.66650     766.6968     526.6491
   1415.65125     764.8792     526.0350   1415.65125     764.8792     526.0350
   1415.63599     765.2054     525.4577   1415.63599     765.2054     525.4577
   1415.62073     763.2153     523.8937   1415.62073     763.2153     523.8937
   1415.60547     761.4909     523.6400   1415.60547     761.4909     523.6400
   1415.59021     761.9080     522.9993   1415.59021     761.9080     522.9993
   1415.57495     760.7629     521.6794   1415.57495     760.7629     521.6794
   1415.55969     759.9257     520.8329   1415.55969     759.9257     520.8329
   1415.54443     758.5112     519.5452   1415.54443     758.5112     519.5452
   1415.52917     758.0705     519.0306   1415.52917     758.0705     519.0306
   1415.51392     758.8389     517.8311   1415.51392     758.8389     517.8311
   1415.49866     756.0064     516.5022   1415.49866     756.0064     516.5022
   1415.48340     755.6368     516.3608   1415.48340     755.6368     516.3608
   1415.46814     755.5099     514.7180   1415.46814     755.5099     514.7180
   1415.45288     753.8329     516.0121   1415.45288     753.8329     516.0121
   1415.43762     753.4844     513.7815   1415.43762     753.4844     513.7815
   1415.42236     751.8936     512.4844   1415.42236     751.8936     512.4844
   1415.40710     750.2532     511.7955   1415.40710     750.2532     511.7955
   1415.39185     749.6535     510.2794   1415.39185     749.6535     510.2794
   1415.37659     748.4656     509.1492   1415.37659     748.4656     509.1492
   1415.36133     747.3842     509.1710   1415.36133     747.3842     509.1710
   1415.34607     746.5386     507.8622   1415.34607     746.5386     507.8622
   1415.33081     745.1241     505.8734   1415.33081     745.1241     505.8734
   1415.31555     743.6226     505.6025   1415.31555     743.6226     505.6025
   1415.30029     742.3111     504.8596   1415.30029     742.3111     504.8596
   1415.28503     742.2851     503.9586   1415.28503     742.2851     503.9586
   1415.26978     739.7582     502.7451   1415.26978     739.7582     502.7451
   1415.25452     738.6688     501.8643   1415.25452     738.6688     501.8643
   1415.23926     737.3474     501.0941   1415.23926     737.3474     501.0941
   1415.22400     737.3359     499.9206   1415.22400     737.3359     499.9206
   1415.20874     736.8845     498.2295   1415.20874     736.8845     498.2295
   1415.19348     735.0428     496.8457   1415.19348     735.0428     496.8457
   1415.17822     733.9402     497.1624   1415.17822     733.9402     497.1624
   1415.16296     732.7744     496.7165   1415.16296     732.7744     496.7165
   1415.14771     731.9625     494.8556   1415.14771     731.9625     494.8556
   1415.13245     730.5908     493.9359   1415.13245     730.5908     493.9359
   1415.11719     729.0619     492.4375   1415.11719     729.0619     492.4375
   1415.10193     727.6677     491.5063   1415.10193     727.6677     491.5063
   1415.08667     724.8874     491.0012   1415.08667     724.8874     491.0012
   1415.07141     723.8457     488.9278   1415.07141     723.8457     488.9278
   1415.05615     722.6110     487.8356   1415.05615     722.6110     487.8356
   1415.04089     721.7549     486.6831   1415.04089     721.7549     486.6831
   1415.02563     719.2732     485.8239   1415.02563     719.2732     485.8239
   1415.01038     718.6113     484.2775   1415.01038     718.6113     484.2775
   1414.99512     716.3732     483.1460   1414.99512     716.3732     483.1460
   1414.97986     715.0419     481.3479   1414.97986     715.0419     481.3479
   1414.96460     714.6089     480.9167   1414.96460     714.6089     480.9167
   1414.94934     711.6971     480.4003   1414.94934     711.6971     480.4003
   1414.93408     711.3840     478.1133   1414.93408     711.3840     478.1133
   1414.91882     708.6409     476.6617   1414.91882     708.6409     476.6617
   1414.90356     706.8146     475.5361   1414.90356     706.8146     475.5361
   1414.88831     704.9478     474.6010   1414.88831     704.9478     474.6010
   1414.87305     704.9733     474.0597   1414.87305     704.9733     474.0597
   1414.85779     702.5322     471.3500   1414.85779     702.5322     471.3500
   1414.84253     701.1983     471.4678   1414.84253     701.1983     471.4678
   1414.82727     698.2083     469.1334   1414.82727     698.2083     469.1334
   1414.81201     695.7702     468.2163   1414.81201     695.7702     468.2163
   1414.79675     694.8181     466.6548   1414.79675     694.8181     466.6548
   1414.78149     693.5923     465.8006   1414.78149     693.5923     465.8006
   1414.76624     692.5673     464.2582   1414.76624     692.5673     464.2582
   1414.75098     690.8152     462.8561   1414.75098     690.8152     462.8561
   1414.73572     689.3289     461.3749   1414.73572     689.3289     461.3749
   1414.72046     687.0203     459.9671   1414.72046     687.0203     459.9671
   1414.70520     684.6157     459.7663   1414.70520     684.6157     459.7663
   1414.68994     683.7994     457.8655   1414.68994     683.7994     457.8655
   1414.67468     680.3595     456.7408   1414.67468     680.3595     456.7408
   1414.65942     678.0402     454.7339   1414.65942     678.0402     454.7339
   1414.64417     676.3493     453.2589   1414.64417     676.3493     453.2589
   1414.62891     675.1877     452.3765   1414.62891     675.1877     452.3765
   1414.61365     673.5296     450.5531   1414.61365     673.5296     450.5531
   1414.59839     670.4579     449.3565   1414.59839     670.4579     449.3565
   1414.58313     669.0141     448.1926   1414.58313     669.0141     448.1926
   1414.56787     666.4352     446.3593   1414.56787     666.4352     446.3593
   1414.55261     664.1367     444.8585   1414.55261     664.1367     444.8585
   1414.53735     662.3872     444.5704   1414.53735     662.3872     444.5704
   1414.52209     660.6669     441.9919   1414.52209     660.6669     441.9919
   1414.50684     657.6995     440.7346   1414.50684     657.6995     440.7346
   1414.49158     655.9346     439.6299   1414.49158     655.9346     439.6299
   1414.47632     653.8436     437.8891   1414.47632     653.8436     437.8891
   1414.46106     652.7561     436.1144   1414.46106     652.7561     436.1144
   1414.44580     649.6484     434.4301   1414.44580     649.6484     434.4301
   1414.43054     649.3427     432.8475   1414.43054     649.3427     432.8475
   1414.41528     644.2376     431.4219   1414.41528     644.2376     431.4219
   1414.40002     642.9129     429.1794   1414.40002     642.9129     429.1794
   1414.38477     639.5696     427.9359   1414.38477     639.5696     427.9359
   1414.36951     637.6707     426.8505   1414.36951     637.6707     426.8505
   1414.35425     635.6693     425.3882   1414.35425     635.6693     425.3882
   1414.33899     632.7402     423.7417   1414.33899     632.7402     423.7417
   1414.32373     631.1526     422.1433   1414.32373     631.1526     422.1433
   1414.30847     628.0514     421.0239   1414.30847     628.0514     421.0239
   1414.29321     627.0137     419.8084   1414.29321     627.0137     419.8084
   1414.27795     624.0417     416.8915   1414.27795     624.0417     416.8915
   1414.26270     621.4651     415.5709   1414.26270     621.4651     415.5709
   1414.24744     620.0590     413.8379   1414.24744     620.0590     413.8379
   1414.23218     617.1393     412.6552   1414.23218     617.1393     412.6552
   1414.21692     614.1935     411.0972   1414.21692     614.1935     411.0972
   1414.20166     612.3608     409.4590   1414.20166     612.3608     409.4590
   1414.18640     609.1487     407.6906   1414.18640     609.1487     407.6906
   1414.17114     606.7822     406.1300   1414.17114     606.7822     406.1300
   1414.15588     604.6597     404.6755   1414.15588     604.6597     404.6755
   1414.14062     601.6575     402.3447   1414.14062     601.6575     402.3447
   1414.12537     599.3181     401.1791   1414.12537     599.3181     401.1791
   1414.11011     596.0248     399.6282   1414.11011     596.0248     399.6282
   1414.09485     594.8001     397.9868   1414.09485     594.8001     397.9868
   1414.07959     591.5970     396.2285   1414.07959     591.5970     396.2285
   1414.06433     588.9976     394.3777   1414.06433     588.9976     394.3777
   1414.04907     585.8635     392.2787   1414.04907     585.8635     392.2787
   1414.03381     584.1166     391.3070   1414.03381     584.1166     391.3070
   1414.01855     580.7600     389.2694   1414.01855     580.7600     389.2694
   1414.00330     597.5662     390.6799   1414.00330     597.5662     390.6799
   1413.98804     578.0839     386.7161   1413.98804     578.0839     386.7161
   1413.97278     573.4528     384.7236   1413.97278     573.4528     384.7236
   1413.95752     570.7579     382.7822   1413.95752     570.7579     382.7822
   1413.94226     566.7530     380.3080   1413.94226     566.7530     380.3080
   1413.92700     564.8256     378.9022   1413.92700     564.8256     378.9022
   1413.91174     562.0768     377.1858   1413.91174     562.0768     377.1858
   1413.89648     559.3635     375.9620   1413.89648     559.3635     375.9620
   1413.88123     556.2228     373.2490   1413.88123     556.2228     373.2490
   1413.86597     553.9950     371.9354   1413.86597     553.9950     371.9354
   1413.85071     551.1112     370.1539   1413.85071     551.1112     370.1539
   1413.83545     547.9930     368.8101   1413.83545     547.9930     368.8101
   1413.82019     545.1291     367.5141   1413.82019     545.1291     367.5141
   1413.80493     542.6437     364.7641   1413.80493     542.6437     364.7641
   1413.78967     539.2774     363.5239   1413.78967     539.2774     363.5239
   1413.77441     537.2530     361.8456   1413.77441     537.2530     361.8456
   1413.75916     534.3807     360.7994   1413.75916     534.3807     360.7994
   1413.74390     532.2502     358.3772   1413.74390     532.2502     358.3772
   1413.72864     528.4299     356.4777   1413.72864     528.4299     356.4777
   1413.71338     526.0086     355.0695   1413.71338     526.0086     355.0695
   1413.69812     523.1952     353.0464   1413.69812     523.1952     353.0464
   1413.68286     520.1653     351.6608   1413.68286     520.1653     351.6608
   1413.66760     518.1425     349.7426   1413.66760     518.1425     349.7426
   1413.65234     515.1796     348.0566   1413.65234     515.1796     348.0566
   1413.63708     512.6052     346.5999   1413.63708     512.6052     346.5999
   1413.62183     509.3774     345.6786   1413.62183     509.3774     345.6786
   1413.60657     506.3920     343.0259   1413.60657     506.3920     343.0259
   1413.59131     503.5287     341.7298   1413.59131     503.5287     341.7298
   1413.57605     500.9103     339.6695   1413.57605     500.9103     339.6695
   1413.56079     498.6914     338.2019   1413.56079     498.6914     338.2019
   1413.54553     495.8306     337.0952   1413.54553     495.8306     337.0952
   1413.53027     492.9636     334.7303   1413.53027     492.9636     334.7303
   1413.51501     489.5197     333.2342   1413.51501     489.5197     333.2342
   1413.49976     487.2885     331.5226   1413.49976     487.2885     331.5226
   1413.48450     484.6329     329.9744   1413.48450     484.6329     329.9744
   1413.46924     481.4282     328.5937   1413.46924     481.4282     328.5937
   1413.45398     478.7715     326.5293   1413.45398     478.7715     326.5293
   1413.43872     476.8303     324.9008   1413.43872     476.8303     324.9008
   1413.42346     473.5769     323.1951   1413.42346     473.5769     323.1951
   1413.40820     471.5997     321.8688   1413.40820     471.5997     321.8688
   1413.39294     467.8977     320.1224   1413.39294     467.8977     320.1224
   1413.37769     466.0044     319.2102   1413.37769     466.0044     319.2102
   1413.36243     463.3651     317.3004   1413.36243     463.3651     317.3004
   1413.34717     460.2816     315.5724   1413.34717     460.2816     315.5724
   1413.33191     458.3035     314.2983   1413.33191     458.3035     314.2983
   1413.31665     455.7374     312.5541   1413.31665     455.7374     312.5541
   1413.30139     453.2486     311.3634   1413.30139     453.2486     311.3634
   1413.28613     450.0142     309.3147   1413.28613     450.0142     309.3147
   1413.27087     448.1557     308.6188   1413.27087     448.1557     308.6188
   1413.25562     445.0832     306.8018   1413.25562     445.0832     306.8018
   1413.24036     443.0525     304.7461   1413.24036     443.0525     304.7461
   1413.22510     441.3797     303.9780   1413.22510     441.3797     303.9780
   1413.20984     438.4516     302.2580   1413.20984     438.4516     302.2580
   1413.19458     435.8492     300.9106   1413.19458     435.8492     300.9106
   1413.17932     433.2371     300.2943   1413.17932     433.2371     300.2943
   1413.16406     431.2616     298.2357   1413.16406     431.2616     298.2357
   1413.14880     428.8944     296.9594   1413.14880     428.8944     296.9594
   1413.13354     427.1216     295.7262   1413.13354     427.1216     295.7262
   1413.11829     423.9231     294.5476   1413.11829     423.9231     294.5476
   1413.10303     421.9849     292.9744   1413.10303     421.9849     292.9744
   1413.08777     419.3971     291.2838   1413.08777     419.3971     291.2838
   1413.07251     417.6867     290.4005   1413.07251     417.6867     290.4005
   1413.05725     415.9684     289.1575   1413.05725     415.9684     289.1575
   1413.04199     413.7109     288.0611   1413.04199     413.7109     288.0611
   1413.02673     411.5665     287.1133   1413.02673     411.5665     287.1133
   1413.01147     409.5509     285.8120   1413.01147     409.5509     285.8120
   1412.99622     408.0199     284.5674   1412.99622     408.0199     284.5674
   1412.98096     405.4928     283.1245   1412.98096     405.4928     283.1245
   1412.96570     403.4290     282.7076   1412.96570     403.4290     282.7076
   1412.95044     401.2254     282.0236   1412.95044     401.2254     282.0236
   1412.93518     400.0478     279.9732   1412.93518     400.0478     279.9732
   1412.91992     397.6781     279.4223   1412.91992     397.6781     279.4223
   1412.90466     395.1398     278.0904   1412.90466     395.1398     278.0904
   1412.88940     394.4142     277.6230   1412.88940     394.4142     277.6230
   1412.87415     392.6259     276.4971   1412.87415     392.6259     276.4971
   1412.85889     391.4141     275.6577   1412.85889     391.4141     275.6577
   1412.84363     389.7988     274.9648   1412.84363     389.7988     274.9648
   1412.82837     387.7537     273.6898   1412.82837     387.7537     273.6898
   1412.81311     386.6679     273.0709   1412.81311     386.6679     273.0709
   1412.79785     384.6547     272.4123   1412.79785     384.6547     272.4123
   1412.78259     383.1820     272.2021   1412.78259     383.1820     272.2021
   1412.76733     381.9077     270.7034   1412.76733     381.9077     270.7034
   1412.75208     380.4375     270.2747   1412.75208     380.4375     270.2747
   1412.73682     378.9003     269.6934   1412.73682     378.9003     269.6934
   1412.72156     378.5654     268.9300   1412.72156     378.5654     268.9300
   1412.70630     376.9615     268.1679   1412.70630     376.9615     268.1679
   1412.69104     375.7443     267.3954   1412.69104     375.7443     267.3954
   1412.67578     374.2491     267.5489   1412.67578     374.2491     267.5489
   1412.66052     373.5356     266.9252   1412.66052     373.5356     266.9252
   1412.64526     372.3723     266.3255   1412.64526     372.3723     266.3255
   1412.63000     371.2603     266.0208   1412.63000     371.2603     266.0208
   1412.61475     370.7065     265.2299   1412.61475     370.7065     265.2299
   1412.59949     369.9486     265.2605   1412.59949     369.9486     265.2605
   1412.58423     369.0479     264.4514   1412.58423     369.0479     264.4514
   1412.56897     368.1215     264.3009   1412.56897     368.1215     264.3009
   1412.55371     367.1703     264.1763   1412.55371     367.1703     264.1763
   1412.53845     366.2047     264.3503   1412.53845     366.2047     264.3503
   1412.52319     365.7185     264.1548   1412.52319     365.7185     264.1548
   1412.50793     365.5406     263.8416   1412.50793     365.5406     263.8416
   1412.49268     365.0890     263.9247   1412.49268     365.0890     263.9247
   1412.47742     364.4367     263.4658   1412.47742     364.4367     263.4658
   1412.46216     363.5871     263.4736   1412.46216     363.5871     263.4736
   1412.44690     363.9415     263.7470   1412.44690     363.9415     263.7470
   1412.43164     363.2595     263.5172   1412.43164     363.2595     263.5172
   1412.41638     362.3031     263.9092   1412.41638     362.3031     263.9092
   1412.40112     362.1627     263.7861   1412.40112     362.1627     263.7861
   1412.38586     362.4948     264.0649   1412.38586     362.4948     264.0649
   1412.37061     362.3629     264.4868   1412.37061     362.3629     264.4868
   1412.35535     362.4685     264.7637   1412.35535     362.4685     264.7637
   1412.34009     362.3510     264.8697   1412.34009     362.3510     264.8697
   1412.32483     361.9913     265.5123   1412.32483     361.9913     265.5123
   1412.30957     362.9946     265.5347   1412.30957     362.9946     265.5347
   1412.29431     362.7554     266.1846   1412.29431     362.7554     266.1846
   1412.27905     362.4815     266.4977   1412.27905     362.4815     266.4977
   1412.26379     363.6848     266.8246   1412.26379     363.6848     266.8246
   1412.24854     363.6886     267.5509   1412.24854     363.6886     267.5509
   1412.23328     363.1973     268.0156   1412.23328     363.1973     268.0156
   1412.21802     364.0894     268.7336   1412.21802     364.0894     268.7336
   1412.20276     363.6225     269.3221   1412.20276     363.6225     269.3221