#     FILENAME=!Skynet_57528_lach-cc-216_20626_21043.cyb.fits
#     BASENAME=Skynet_57528_lach-cc-216_20626_21043
#     SRC_NAME=lach-cc-216
#     OBSERVER=ccmadison16_9505
#     DATE_OBS=2016-05-20T20:02:51.750
#        OBSID=20626
#      SCANNUM=21043
#          MJD=57528.8364
#          UTC=72261
#     SCANTYPE=track
#     DATAMODE=HIRES
#     TUNEFREQ=1420.0000
# Actual_FREQ1=1420.0000
# Actual_FREQ2=1420.0000
#    LO1Tuning=6870.000
#     RFFILTER=1355_1435
#        OBSBW=-15.6250
#        NCHAN=1024 
#        FOCUS=37.0709
#           RA=06:57:03.98
#          DEC=-02:43:46.93
#      RA(hrs)=6.951100
#     DEC(deg)=-2.729700
#    AZIM(deg)=172.390
#    ELEV(deg)=48.437
#     IFattens=10.00, 9.00
#      WARNING=None
#    TCAL_XL1=7.9635
#    TCAL_YR1=9.1340
#    TCAL_XL2=7.9635
#    TCAL_YR2=9.1340
#     TRX_XL1=11.7060
#     TRX_YR1=11.7060
#     TRX_XL2=11.7060
#     TRX_YR2=11.7060
#        TAVE=1.0000
#Freq1(MHz)          XL1          YR1  Freq2(MHz)          XL2          YR2 

   1427.81250     353.5681     259.8094   1427.81250     353.5681     259.8094
   1427.79724     354.4747     260.1241   1427.79724     354.4747     260.1241
   1427.78198     355.0571     260.6917   1427.78198     355.0571     260.6917
   1427.76672     355.7312     261.3001   1427.76672     355.7312     261.3001
   1427.75146     356.8269     261.6959   1427.75146     356.8269     261.6959
   1427.73621     357.2690     262.3652   1427.73621     357.2690     262.3652
   1427.72095     358.1626     262.8488   1427.72095     358.1626     262.8488
   1427.70569     358.9523     263.7296   1427.70569     358.9523     263.7296
   1427.69043     360.3932     263.8165   1427.69043     360.3932     263.8165
   1427.67517     361.5277     265.3079   1427.67517     361.5277     265.3079
   1427.65991     362.5666     265.9620   1427.65991     362.5666     265.9620
   1427.64465     362.7774     266.7756   1427.64465     362.7774     266.7756
   1427.62939     364.4975     267.7744   1427.62939     364.4975     267.7744
   1427.61414     365.4406     268.6778   1427.61414     365.4406     268.6778
   1427.59888     366.8619     269.3332   1427.59888     366.8619     269.3332
   1427.58362     368.2954     270.9777   1427.58362     368.2954     270.9777
   1427.56836     369.8430     271.8500   1427.56836     369.8430     271.8500
   1427.55310     370.6570     272.7551   1427.55310     370.6570     272.7551
   1427.53784     372.6265     274.1505   1427.53784     372.6265     274.1505
   1427.52258     373.9455     274.7867   1427.52258     373.9455     274.7867
   1427.50732     375.2710     276.3808   1427.50732     375.2710     276.3808
   1427.49207     377.1029     277.8859   1427.49207     377.1029     277.8859
   1427.47681     378.4558     279.0362   1427.47681     378.4558     279.0362
   1427.46155     380.8331     280.5069   1427.46155     380.8331     280.5069
   1427.44629     382.0434     281.0918   1427.44629     382.0434     281.0918
   1427.43103     383.6342     282.5153   1427.43103     383.6342     282.5153
   1427.41577     385.3996     284.4132   1427.41577     385.3996     284.4132
   1427.40051     386.8604     285.4736   1427.40051     386.8604     285.4736
   1427.38525     389.4978     287.0305   1427.38525     389.4978     287.0305
   1427.37000     390.5364     288.5010   1427.37000     390.5364     288.5010
   1427.35474     392.4725     289.8905   1427.35474     392.4725     289.8905
   1427.33948     395.1827     291.4768   1427.33948     395.1827     291.4768
   1427.32422     397.1112     293.4199   1427.32422     397.1112     293.4199
   1427.30896     399.2745     295.0038   1427.30896     399.2745     295.0038
   1427.29370     400.7844     296.6512   1427.29370     400.7844     296.6512
   1427.27844     403.4079     297.9974   1427.27844     403.4079     297.9974
   1427.26318     404.9761     299.8429   1427.26318     404.9761     299.8429
   1427.24792     407.3070     300.9761   1427.24792     407.3070     300.9761
   1427.23267     409.5604     303.7563   1427.23267     409.5604     303.7563
   1427.21741     412.0070     305.1992   1427.21741     412.0070     305.1992
   1427.20215     414.5314     307.1582   1427.20215     414.5314     307.1582
   1427.18689     416.0463     308.8948   1427.18689     416.0463     308.8948
   1427.17163     418.2686     310.6322   1427.17163     418.2686     310.6322
   1427.15637     421.6580     312.5951   1427.15637     421.6580     312.5951
   1427.14111     423.2610     314.4634   1427.14111     423.2610     314.4634
   1427.12585     425.4585     316.6163   1427.12585     425.4585     316.6163
   1427.11060     428.1277     318.5482   1427.11060     428.1277     318.5482
   1427.09534     430.5473     320.6162   1427.09534     430.5473     320.6162
   1427.08008     433.5277     322.7289   1427.08008     433.5277     322.7289
   1427.06482     435.2829     324.7358   1427.06482     435.2829     324.7358
   1427.04956     438.3595     327.3700   1427.04956     438.3595     327.3700
   1427.03430     440.4980     328.8612   1427.03430     440.4980     328.8612
   1427.01904     443.1872     330.9256   1427.01904     443.1872     330.9256
   1427.00378     445.1577     333.0801   1427.00378     445.1577     333.0801
   1426.98853     448.6339     335.3069   1426.98853     448.6339     335.3069
   1426.97327     451.0622     337.9452   1426.97327     451.0622     337.9452
   1426.95801     454.1449     339.2784   1426.95801     454.1449     339.2784
   1426.94275     455.9455     342.0103   1426.94275     455.9455     342.0103
   1426.92749     458.3232     344.3444   1426.92749     458.3232     344.3444
   1426.91223     461.8210     347.0456   1426.91223     461.8210     347.0456
   1426.89697     463.4226     349.2648   1426.89697     463.4226     349.2648
   1426.88171     465.8893     351.3887   1426.88171     465.8893     351.3887
   1426.86646     468.9881     353.8296   1426.86646     468.9881     353.8296
   1426.85120     471.6317     355.8291   1426.85120     471.6317     355.8291
   1426.83594     474.3005     358.5514   1426.83594     474.3005     358.5514
   1426.82068     477.6655     360.6655   1426.82068     477.6655     360.6655
   1426.80542     480.1915     363.1848   1426.80542     480.1915     363.1848
   1426.79016     483.4945     366.0118   1426.79016     483.4945     366.0118
   1426.77490     485.4576     367.9300   1426.77490     485.4576     367.9300
   1426.75964     488.1373     370.3231   1426.75964     488.1373     370.3231
   1426.74438     491.0570     373.2042   1426.74438     491.0570     373.2042
   1426.72913     493.7586     375.5819   1426.72913     493.7586     375.5819
   1426.71387     495.9398     377.2929   1426.71387     495.9398     377.2929
   1426.69861     499.3708     380.5695   1426.69861     499.3708     380.5695
   1426.68335     501.5373     383.1707   1426.68335     501.5373     383.1707
   1426.66809     504.8799     385.3419   1426.66809     504.8799     385.3419
   1426.65283     507.2063     388.6068   1426.65283     507.2063     388.6068
   1426.63757     509.9604     390.0594   1426.63757     509.9604     390.0594
   1426.62231     512.9776     394.2944   1426.62231     512.9776     394.2944
   1426.60706     514.8062     395.1345   1426.60706     514.8062     395.1345
   1426.59180     518.6390     398.0451   1426.59180     518.6390     398.0451
   1426.57654     521.0602     400.5592   1426.57654     521.0602     400.5592
   1426.56128     523.5125     402.3217   1426.56128     523.5125     402.3217
   1426.54602     526.9714     405.5401   1426.54602     526.9714     405.5401
   1426.53076     528.8647     407.4987   1426.53076     528.8647     407.4987
   1426.51550     531.5860     410.7135   1426.51550     531.5860     410.7135
   1426.50024     533.9080     413.3913   1426.50024     533.9080     413.3913
   1426.48499     536.8015     415.4124   1426.48499     536.8015     415.4124
   1426.46973     539.3609     417.9184   1426.46973     539.3609     417.9184
   1426.45447     542.7869     421.4879   1426.45447     542.7869     421.4879
   1426.43921     545.1411     423.4775   1426.43921     545.1411     423.4775
   1426.42395     547.3247     425.6671   1426.42395     547.3247     425.6671
   1426.40869     550.4023     428.1832   1426.40869     550.4023     428.1832
   1426.39343     552.5185     431.3428   1426.39343     552.5185     431.3428
   1426.37817     555.5803     433.4354   1426.37817     555.5803     433.4354
   1426.36292     558.9907     436.4134   1426.36292     558.9907     436.4134
   1426.34766     560.2250     439.1043   1426.34766     560.2250     439.1043
   1426.33240     562.9867     440.9756   1426.33240     562.9867     440.9756
   1426.31714     566.1863     443.6108   1426.31714     566.1863     443.6108
   1426.30188     568.1342     445.7920   1426.30188     568.1342     445.7920
   1426.28662     570.5197     448.7097   1426.28662     570.5197     448.7097
   1426.27136     573.8561     451.1781   1426.27136     573.8561     451.1781
   1426.25610     575.5231     453.9343   1426.25610     575.5231     453.9343
   1426.24084     577.8665     456.0963   1426.24084     577.8665     456.0963
   1426.22559     579.4394     458.6077   1426.22559     579.4394     458.6077
   1426.21033     582.1154     461.4273   1426.21033     582.1154     461.4273
   1426.19507     585.7253     464.2482   1426.19507     585.7253     464.2482
   1426.17981     587.4403     466.7807   1426.17981     587.4403     466.7807
   1426.16455     590.2184     468.8854   1426.16455     590.2184     468.8854
   1426.14929     592.4061     471.6511   1426.14929     592.4061     471.6511
   1426.13403     593.2807     474.1450   1426.13403     593.2807     474.1450
   1426.11877     596.9412     476.1806   1426.11877     596.9412     476.1806
   1426.10352     599.4387     479.3990   1426.10352     599.4387     479.3990
   1426.08826     601.7050     481.5580   1426.08826     601.7050     481.5580
   1426.07300     603.8217     483.5612   1426.07300     603.8217     483.5612
   1426.05774     605.4636     486.9057   1426.05774     605.4636     486.9057
   1426.04248     607.7276     488.2534   1426.04248     607.7276     488.2534
   1426.02722     609.5789     491.6035   1426.02722     609.5789     491.6035
   1426.01196     612.3143     493.5253   1426.01196     612.3143     493.5253
   1425.99670     613.8315     495.1205   1425.99670     613.8315     495.1205
   1425.98145     616.2942     498.4664   1425.98145     616.2942     498.4664
   1425.96619     617.9415     500.3623   1425.96619     617.9415     500.3623
   1425.95093     619.5978     502.7952   1425.95093     619.5978     502.7952
   1425.93567     621.4565     504.4248   1425.93567     621.4565     504.4248
   1425.92041     624.0660     507.0325   1425.92041     624.0660     507.0325
   1425.90515     625.6392     508.8375   1425.90515     625.6392     508.8375
   1425.88989     627.8370     511.6686   1425.88989     627.8370     511.6686
   1425.87463     630.0181     514.1478   1425.87463     630.0181     514.1478
   1425.85938     630.9842     515.8121   1425.85938     630.9842     515.8121
   1425.84412     633.2819     518.1005   1425.84412     633.2819     518.1005
   1425.82886     635.7225     520.7417   1425.82886     635.7225     520.7417
   1425.81360     637.2488     522.4545   1425.81360     637.2488     522.4545
   1425.79834     638.6730     525.4832   1425.79834     638.6730     525.4832
   1425.78308     640.0811     526.9568   1425.78308     640.0811     526.9568
   1425.76782     641.1240     529.5406   1425.76782     641.1240     529.5406
   1425.75256     643.5635     531.9207   1425.75256     643.5635     531.9207
   1425.73730     644.1933     534.2838   1425.73730     644.1933     534.2838
   1425.72205     646.2378     535.1837   1425.72205     646.2378     535.1837
   1425.70679     648.1884     538.1271   1425.70679     648.1884     538.1271
   1425.69153     650.4677     540.3097   1425.69153     650.4677     540.3097
   1425.67627     650.1778     542.2120   1425.67627     650.1778     542.2120
   1425.66101     652.2247     543.7316   1425.66101     652.2247     543.7316
   1425.64575     654.4496     546.6299   1425.64575     654.4496     546.6299
   1425.63049     656.5350     547.9198   1425.63049     656.5350     547.9198
   1425.61523     657.6567     550.8149   1425.61523     657.6567     550.8149
   1425.59998     659.0015     552.3756   1425.59998     659.0015     552.3756
   1425.58472     658.8290     553.9453   1425.58472     658.8290     553.9453
   1425.56946     660.1500     555.4807   1425.56946     660.1500     555.4807
   1425.55420     661.5407     557.6577   1425.55420     661.5407     557.6577
   1425.53894     664.6125     558.9885   1425.53894     664.6125     558.9885
   1425.52368     664.5391     561.7622   1425.52368     664.5391     561.7622
   1425.50842     665.6588     563.5452   1425.50842     665.6588     563.5452
   1425.49316     668.1577     565.0245   1425.49316     668.1577     565.0245
   1425.47791     669.0665     567.6063   1425.47791     669.0665     567.6063
   1425.46265     669.5195     569.5114   1425.46265     669.5195     569.5114
   1425.44739     671.3116     571.3618   1425.44739     671.3116     571.3618
   1425.43213     671.7605     571.2719   1425.43213     671.7605     571.2719
   1425.41687     673.3039     574.4832   1425.41687     673.3039     574.4832
   1425.40161     673.3348     575.8751   1425.40161     673.3348     575.8751
   1425.38635     674.4860     576.9641   1425.38635     674.4860     576.9641
   1425.37109     675.7516     578.8933   1425.37109     675.7516     578.8933
   1425.35583     677.4980     580.9030   1425.35583     677.4980     580.9030
   1425.34058     677.9941     582.6172   1425.34058     677.9941     582.6172
   1425.32532     678.9562     583.3329   1425.32532     678.9562     583.3329
   1425.31006     680.2047     585.4975   1425.31006     680.2047     585.4975
   1425.29480     680.1896     586.4725   1425.29480     680.1896     586.4725
   1425.27954     680.5187     589.1442   1425.27954     680.5187     589.1442
   1425.26428     680.2953     590.1263   1425.26428     680.2953     590.1263
   1425.24902     682.2770     591.9084   1425.24902     682.2770     591.9084
   1425.23376     683.9224     593.7003   1425.23376     683.9224     593.7003
   1425.21851     684.9559     594.5107   1425.21851     684.9559     594.5107
   1425.20325     684.7309     595.1132   1425.20325     684.7309     595.1132
   1425.18799     685.8221     597.9686   1425.18799     685.8221     597.9686
   1425.17273     685.9968     599.7827   1425.17273     685.9968     599.7827
   1425.15747     685.8712     600.8287   1425.15747     685.8712     600.8287
   1425.14221     687.2171     601.5536   1425.14221     687.2171     601.5536
   1425.12695     687.5880     602.2291   1425.12695     687.5880     602.2291
   1425.11169     688.8109     603.9907   1425.11169     688.8109     603.9907
   1425.09644     690.0400     605.5792   1425.09644     690.0400     605.5792
   1425.08118     688.8904     607.1103   1425.08118     688.8904     607.1103
   1425.06592     689.9211     607.9560   1425.06592     689.9211     607.9560
   1425.05066     690.5189     609.1840   1425.05066     690.5189     609.1840
   1425.03540     690.1890     610.4280   1425.03540     690.1890     610.4280
   1425.02014     691.1529     611.4952   1425.02014     691.1529     611.4952
   1425.00488     691.8163     613.6908   1425.00488     691.8163     613.6908
   1424.98962     692.7980     615.8542   1424.98962     692.7980     615.8542
   1424.97437     691.8829     615.5410   1424.97437     691.8829     615.5410
   1424.95911     693.7141     616.4951   1424.95911     693.7141     616.4951
   1424.94385     694.4840     617.9273   1424.94385     694.4840     617.9273
   1424.92859     694.1484     618.4867   1424.92859     694.1484     618.4867
   1424.91333     693.0342     619.1992   1424.91333     693.0342     619.1992
   1424.89807     695.6468     620.9454   1424.89807     695.6468     620.9454
   1424.88281     695.0660     621.0974   1424.88281     695.0660     621.0974
   1424.86755     696.0014     622.4949   1424.86755     696.0014     622.4949
   1424.85229     695.5264     624.1999   1424.85229     695.5264     624.1999
   1424.83704     696.4165     623.8162   1424.83704     696.4165     623.8162
   1424.82178     694.9520     625.1485   1424.82178     694.9520     625.1485
   1424.80652     695.4716     625.3265   1424.80652     695.4716     625.3265
   1424.79126     696.5960     626.8610   1424.79126     696.5960     626.8610
   1424.77600     696.8859     627.9995   1424.77600     696.8859     627.9995
   1424.76074     696.6038     628.0882   1424.76074     696.6038     628.0882
   1424.74548     696.5938     630.1855   1424.74548     696.5938     630.1855
   1424.73022     695.7587     630.7798   1424.73022     695.7587     630.7798
   1424.71497     696.9258     630.9794   1424.71497     696.9258     630.9794
   1424.69971     696.7527     632.0452   1424.69971     696.7527     632.0452
   1424.68445     697.7177     632.5095   1424.68445     697.7177     632.5095
   1424.66919     696.9419     633.8635   1424.66919     696.9419     633.8635
   1424.65393     697.7626     634.5689   1424.65393     697.7626     634.5689
   1424.63867     696.6782     634.6813   1424.63867     696.6782     634.6813
   1424.62341     697.4742     635.2288   1424.62341     697.4742     635.2288
   1424.60815     697.8571     635.5827   1424.60815     697.8571     635.5827
   1424.59290     697.5712     636.3740   1424.59290     697.5712     636.3740
   1424.57764     698.1716     636.5485   1424.57764     698.1716     636.5485
   1424.56238     698.2090     637.6357   1424.56238     698.2090     637.6357
   1424.54712     697.2206     638.0335   1424.54712     697.2206     638.0335
   1424.53186     697.6739     637.9257   1424.53186     697.6739     637.9257
   1424.51660     697.4485     638.6395   1424.51660     697.4485     638.6395
   1424.50134     697.2097     640.0584   1424.50134     697.2097     640.0584
   1424.48608     696.5820     639.4763   1424.48608     696.5820     639.4763
   1424.47083     696.6837     640.1266   1424.47083     696.6837     640.1266
   1424.45557     697.3362     640.5419   1424.45557     697.3362     640.5419
   1424.44031     697.1954     641.4650   1424.44031     697.1954     641.4650
   1424.42505     696.2642     641.5521   1424.42505     696.2642     641.5521
   1424.40979     696.7366     641.7988   1424.40979     696.7366     641.7988
   1424.39453     697.1871     642.0900   1424.39453     697.1871     642.0900
   1424.37927     695.8970     642.5778   1424.37927     695.8970     642.5778
   1424.36401     696.8397     642.6254   1424.36401     696.8397     642.6254
   1424.34875     697.0286     643.6086   1424.34875     697.0286     643.6086
   1424.33350     696.5286     642.9954   1424.33350     696.5286     642.9954
   1424.31824     696.4797     643.9312   1424.31824     696.4797     643.9312
   1424.30298     696.7088     643.9443   1424.30298     696.7088     643.9443
   1424.28772     696.4205     644.4553   1424.28772     696.4205     644.4553
   1424.27246     695.2789     644.2039   1424.27246     695.2789     644.2039
   1424.25720     696.1227     644.7189   1424.25720     696.1227     644.7189
   1424.24194     695.1161     644.5443   1424.24194     695.1161     644.5443
   1424.22668     695.0315     644.9985   1424.22668     695.0315     644.9985
   1424.21143     695.2301     645.2241   1424.21143     695.2301     645.2241
   1424.19617     694.9881     644.3815   1424.19617     694.9881     644.3815
   1424.18091     693.9349     645.2222   1424.18091     693.9349     645.2222
   1424.16565     694.2507     645.6135   1424.16565     694.2507     645.6135
   1424.15039     694.0729     645.8677   1424.15039     694.0729     645.8677
   1424.13513     693.2511     645.7438   1424.13513     693.2511     645.7438
   1424.11987     694.3751     645.4564   1424.11987     694.3751     645.4564
   1424.10461     694.8177     645.1002   1424.10461     694.8177     645.1002
   1424.08936     693.7502     644.9476   1424.08936     693.7502     644.9476
   1424.07410     693.4584     644.6166   1424.07410     693.4584     644.6166
   1424.05884     693.5137     644.2470   1424.05884     693.5137     644.2470
   1424.04358     692.9905     644.8655   1424.04358     692.9905     644.8655
   1424.02832     693.8940     644.1165   1424.02832     693.8940     644.1165
   1424.01306     692.4641     644.2072   1424.01306     692.4641     644.2072
   1423.99780     692.4832     644.3519   1423.99780     692.4832     644.3519
   1423.98254     691.4144     644.0071   1423.98254     691.4144     644.0071
   1423.96729     691.6171     643.5711   1423.96729     691.6171     643.5711
   1423.95203     691.7543     644.3586   1423.95203     691.7543     644.3586
   1423.93677     691.6418     643.3881   1423.93677     691.6418     643.3881
   1423.92151     692.4206     643.6225   1423.92151     692.4206     643.6225
   1423.90625     691.3188     643.3202   1423.90625     691.3188     643.3202
   1423.89099     690.6050     642.6676   1423.89099     690.6050     642.6676
   1423.87573     690.4507     641.7422   1423.87573     690.4507     641.7422
   1423.86047     689.0115     642.7325   1423.86047     689.0115     642.7325
   1423.84521     690.3952     642.9320   1423.84521     690.3952     642.9320
   1423.82996     689.6835     641.4610   1423.82996     689.6835     641.4610
   1423.81470     689.2118     641.0002   1423.81470     689.2118     641.0002
   1423.79944     689.4989     642.0432   1423.79944     689.4989     642.0432
   1423.78418     688.9852     641.5840   1423.78418     688.9852     641.5840
   1423.76892     689.5659     641.0418   1423.76892     689.5659     641.0418
   1423.75366     689.0474     640.1985   1423.75366     689.0474     640.1985
   1423.73840     688.2931     638.9789   1423.73840     688.2931     638.9789
   1423.72314     688.3081     639.3310   1423.72314     688.3081     639.3310
   1423.70789     687.3386     638.4507   1423.70789     687.3386     638.4507
   1423.69263     686.8746     639.1011   1423.69263     686.8746     639.1011
   1423.67737     687.3901     637.9429   1423.67737     687.3901     637.9429
   1423.66211     687.0079     638.3189   1423.66211     687.0079     638.3189
   1423.64685     687.4137     637.4186   1423.64685     687.4137     637.4186
   1423.63159     687.9319     636.4542   1423.63159     687.9319     636.4542
   1423.61633     685.9901     635.6601   1423.61633     685.9901     635.6601
   1423.60107     686.8961     636.9583   1423.60107     686.8961     636.9583
   1423.58582     686.0887     636.0565   1423.58582     686.0887     636.0565
   1423.57056     686.1990     634.8015   1423.57056     686.1990     634.8015
   1423.55530     685.3594     634.9064   1423.55530     685.3594     634.9064
   1423.54004     684.8815     634.4187   1423.54004     684.8815     634.4187
   1423.52478     685.0949     633.8906   1423.52478     685.0949     633.8906
   1423.50952     684.9258     633.4649   1423.50952     684.9258     633.4649
   1423.49426     684.6770     631.6982   1423.49426     684.6770     631.6982
   1423.47900     683.9796     632.5214   1423.47900     683.9796     632.5214
   1423.46375     683.1643     631.2529   1423.46375     683.1643     631.2529
   1423.44849     683.3414     631.4457   1423.44849     683.3414     631.4457
   1423.43323     682.1359     629.1259   1423.43323     682.1359     629.1259
   1423.41797     683.5898     629.2112   1423.41797     683.5898     629.2112
   1423.40271     682.7071     629.2119   1423.40271     682.7071     629.2119
   1423.38745     683.3864     628.3312   1423.38745     683.3864     628.3312
   1423.37219     683.6061     628.0042   1423.37219     683.6061     628.0042
   1423.35693     682.1962     626.0009   1423.35693     682.1962     626.0009
   1423.34167     681.8409     626.1592   1423.34167     681.8409     626.1592
   1423.32642     681.4675     624.2484   1423.32642     681.4675     624.2484
   1423.31116     681.2521     623.8110   1423.31116     681.2521     623.8110
   1423.29590     680.5687     623.1636   1423.29590     680.5687     623.1636
   1423.28064     680.1887     622.6676   1423.28064     680.1887     622.6676
   1423.26538     681.7830     621.9770   1423.26538     681.7830     621.9770
   1423.25012     680.7358     620.9010   1423.25012     680.7358     620.9010
   1423.23486     680.6996     619.9492   1423.23486     680.6996     619.9492
   1423.21960     680.4919     619.2172   1423.21960     680.4919     619.2172
   1423.20435     679.3211     618.6501   1423.20435     679.3211     618.6501
   1423.18909     680.5436     618.3661   1423.18909     680.5436     618.3661
   1423.17383     678.0949     616.1555   1423.17383     678.0949     616.1555
   1423.15857     678.8931     616.0629   1423.15857     678.8931     616.0629
   1423.14331     678.2708     614.5300   1423.14331     678.2708     614.5300
   1423.12805     678.8195     614.1751   1423.12805     678.8195     614.1751
   1423.11279     679.1665     612.8290   1423.11279     679.1665     612.8290
   1423.09753     677.3931     613.1597   1423.09753     677.3931     613.1597
   1423.08228     678.9318     611.2142   1423.08228     678.9318     611.2142
   1423.06702     677.9431     610.6539   1423.06702     677.9431     610.6539
   1423.05176     677.6840     609.5955   1423.05176     677.6840     609.5955
   1423.03650     677.9326     608.8252   1423.03650     677.9326     608.8252
   1423.02124     677.0563     608.0098   1423.02124     677.0563     608.0098
   1423.00598     677.3739     606.8199   1423.00598     677.3739     606.8199
   1422.99072     677.1761     605.4421   1422.99072     677.1761     605.4421
   1422.97546     677.2408     605.6934   1422.97546     677.2408     605.6934
   1422.96021     676.7878     604.5381   1422.96021     676.7878     604.5381
   1422.94495     675.6439     602.2271   1422.94495     675.6439     602.2271
   1422.92969     676.1991     601.8841   1422.92969     676.1991     601.8841
   1422.91443     675.3602     600.8268   1422.91443     675.3602     600.8268
   1422.89917     675.9061     600.0505   1422.89917     675.9061     600.0505
   1422.88391     676.1001     599.9048   1422.88391     676.1001     599.9048
   1422.86865     676.9476     598.5472   1422.86865     676.9476     598.5472
   1422.85339     675.0524     596.8012   1422.85339     675.0524     596.8012
   1422.83813     675.1758     595.6861   1422.83813     675.1758     595.6861
   1422.82288     675.5754     594.3615   1422.82288     675.5754     594.3615
   1422.80762     674.8922     593.9160   1422.80762     674.8922     593.9160
   1422.79236     674.5549     592.8647   1422.79236     674.5549     592.8647
   1422.77710     674.0245     591.1405   1422.77710     674.0245     591.1405
   1422.76184     673.5437     591.4137   1422.76184     673.5437     591.4137
   1422.74658     674.6087     589.4745   1422.74658     674.6087     589.4745
   1422.73132     673.5532     588.5140   1422.73132     673.5532     588.5140
   1422.71606     672.0916     587.7335   1422.71606     672.0916     587.7335
   1422.70081     673.2811     585.9774   1422.70081     673.2811     585.9774
   1422.68555     673.0444     585.6900   1422.68555     673.0444     585.6900
   1422.67029     672.6562     584.2189   1422.67029     672.6562     584.2189
   1422.65503     672.3253     582.9685   1422.65503     672.3253     582.9685
   1422.63977     673.3268     582.8510   1422.63977     673.3268     582.8510
   1422.62451     672.1900     581.1719   1422.62451     672.1900     581.1719
   1422.60925     672.1785     580.4065   1422.60925     672.1785     580.4065
   1422.59399     672.2570     579.5513   1422.59399     672.2570     579.5513
   1422.57874     671.0677     577.0316   1422.57874     671.0677     577.0316
   1422.56348     671.5216     575.8694   1422.56348     671.5216     575.8694
   1422.54822     671.5726     574.7683   1422.54822     671.5726     574.7683
   1422.53296     670.5060     573.5203   1422.53296     670.5060     573.5203
   1422.51770     671.3121     572.6132   1422.51770     671.3121     572.6132
   1422.50244     670.5007     572.9008   1422.50244     670.5007     572.9008
   1422.48718     670.8696     571.4070   1422.48718     670.8696     571.4070
   1422.47192     670.8276     569.3751   1422.47192     670.8276     569.3751
   1422.45667     670.3153     567.8221   1422.45667     670.3153     567.8221
   1422.44141     670.2051     567.4467   1422.44141     670.2051     567.4467
   1422.42615     671.5339     565.9153   1422.42615     671.5339     565.9153
   1422.41089     668.9251     564.5812   1422.41089     668.9251     564.5812
   1422.39563     670.4088     562.5278   1422.39563     670.4088     562.5278
   1422.38037     669.2466     562.6044   1422.38037     669.2466     562.6044
   1422.36511     670.0009     561.3321   1422.36511     670.0009     561.3321
   1422.34985     668.8305     559.7712   1422.34985     668.8305     559.7712
   1422.33459     669.1409     558.5302   1422.33459     669.1409     558.5302
   1422.31934     667.7738     557.2984   1422.31934     667.7738     557.2984
   1422.30408     669.2608     556.5050   1422.30408     669.2608     556.5050
   1422.28882     668.1307     555.4279   1422.28882     668.1307     555.4279
   1422.27356     668.6998     554.2836   1422.27356     668.6998     554.2836
   1422.25830     668.5134     553.3886   1422.25830     668.5134     553.3886
   1422.24304     668.4040     552.4952   1422.24304     668.4040     552.4952
   1422.22778     668.7508     551.0319   1422.22778     668.7508     551.0319
   1422.21252     668.4398     550.1093   1422.21252     668.4398     550.1093
   1422.19727     668.4211     549.0888   1422.19727     668.4211     549.0888
   1422.18201     667.6136     547.1098   1422.18201     667.6136     547.1098
   1422.16675     667.8059     545.9199   1422.16675     667.8059     545.9199
   1422.15149     668.1254     544.3958   1422.15149     668.1254     544.3958
   1422.13623     667.3796     543.5085   1422.13623     667.3796     543.5085
   1422.12097     667.3490     542.4474   1422.12097     667.3490     542.4474
   1422.10571     667.4167     542.0502   1422.10571     667.4167     542.0502
   1422.09045     666.7297     540.7367   1422.09045     666.7297     540.7367
   1422.07520     666.6183     538.6346   1422.07520     666.6183     538.6346
   1422.05994     665.8005     538.5380   1422.05994     665.8005     538.5380
   1422.04468     666.7626     536.6945   1422.04468     666.7626     536.6945
   1422.02942     665.5627     535.0471   1422.02942     665.5627     535.0471
   1422.01416     665.7398     534.5210   1422.01416     665.7398     534.5210
   1421.99890     664.8353     533.6661   1421.99890     664.8353     533.6661
   1421.98364     664.9535     531.4761   1421.98364     664.9535     531.4761
   1421.96838     665.4796     530.4886   1421.96838     665.4796     530.4886
   1421.95312     666.1152     529.4738   1421.95312     666.1152     529.4738
   1421.93787     664.3193     527.8250   1421.93787     664.3193     527.8250
   1421.92261     664.7303     527.2604   1421.92261     664.7303     527.2604
   1421.90735     663.9887     526.7404   1421.90735     663.9887     526.7404
   1421.89209     663.4633     524.7693   1421.89209     663.4633     524.7693
   1421.87683     664.3243     523.3649   1421.87683     664.3243     523.3649
   1421.86157     663.6656     523.1109   1421.86157     663.6656     523.1109
   1421.84631     663.4652     521.5831   1421.84631     663.4652     521.5831
   1421.83105     664.5687     519.9348   1421.83105     664.5687     519.9348
   1421.81580     663.9773     518.7958   1421.81580     663.9773     518.7958
   1421.80054     661.9908     517.5104   1421.80054     661.9908     517.5104
   1421.78528     662.1498     516.7542   1421.78528     662.1498     516.7542
   1421.77002     662.4356     516.1151   1421.77002     662.4356     516.1151
   1421.75476     662.4723     513.9245   1421.75476     662.4723     513.9245
   1421.73950     662.8038     513.0611   1421.73950     662.8038     513.0611
   1421.72424     662.4565     511.9613   1421.72424     662.4565     511.9613
   1421.70898     662.2286     510.9219   1421.70898     662.2286     510.9219
   1421.69373     661.4396     509.5931   1421.69373     661.4396     509.5931
   1421.67847     661.2859     508.2085   1421.67847     661.2859     508.2085
   1421.66321     662.1895     507.5985   1421.66321     662.1895     507.5985
   1421.64795     662.0416     506.3255   1421.64795     662.0416     506.3255
   1421.63269     661.4356     504.6158   1421.63269     661.4356     504.6158
   1421.61743     661.4612     503.3849   1421.61743     661.4612     503.3849
   1421.60217     660.5099     502.2285   1421.60217     660.5099     502.2285
   1421.58691     660.4564     501.2602   1421.58691     660.4564     501.2602
   1421.57166     660.8814     499.2347   1421.57166     660.8814     499.2347
   1421.55640     659.7661     499.2045   1421.55640     659.7661     499.2045
   1421.54114     659.8894     498.3406   1421.54114     659.8894     498.3406
   1421.52588     660.8399     497.5656   1421.52588     660.8399     497.5656
   1421.51062     659.1991     495.8782   1421.51062     659.1991     495.8782
   1421.49536     659.9593     494.4916   1421.49536     659.9593     494.4916
   1421.48010     659.3187     493.7209   1421.48010     659.3187     493.7209
   1421.46484     658.9331     492.3121   1421.46484     658.9331     492.3121
   1421.44958     657.8464     491.0616   1421.44958     657.8464     491.0616
   1421.43433     657.8022     489.8349   1421.43433     657.8022     489.8349
   1421.41907     658.4587     489.3385   1421.41907     658.4587     489.3385
   1421.40381     658.5659     488.0052   1421.40381     658.5659     488.0052
   1421.38855     657.9133     486.4764   1421.38855     657.9133     486.4764
   1421.37329     657.5886     485.3822   1421.37329     657.5886     485.3822
   1421.35803     657.7181     484.2194   1421.35803     657.7181     484.2194
   1421.34277     657.2040     483.9959   1421.34277     657.2040     483.9959
   1421.32751     657.7238     482.5768   1421.32751     657.7238     482.5768
   1421.31226     657.0744     482.2354   1421.31226     657.0744     482.2354
   1421.29700     655.8814     480.1680   1421.29700     655.8814     480.1680
   1421.28174     656.1812     478.9948   1421.28174     656.1812     478.9948
   1421.26648     655.7280     478.0822   1421.26648     655.7280     478.0822
   1421.25122     655.2106     476.9153   1421.25122     655.2106     476.9153
   1421.23596     654.9523     475.8135   1421.23596     654.9523     475.8135
   1421.22070     654.8210     475.3835   1421.22070     654.8210     475.3835
   1421.20544     654.1136     474.2021   1421.20544     654.1136     474.2021
   1421.19019     655.1500     471.9852   1421.19019     655.1500     471.9852
   1421.17493     654.8671     472.1952   1421.17493     654.8671     472.1952
   1421.15967     655.4780     470.9775   1421.15967     655.4780     470.9775
   1421.14441     654.7021     469.8841   1421.14441     654.7021     469.8841
   1421.12915     654.8677     468.0425   1421.12915     654.8677     468.0425
   1421.11389     654.2864     467.4282   1421.11389     654.2864     467.4282
   1421.09863     652.8638     466.8659   1421.09863     652.8638     466.8659
   1421.08337     653.3139     465.4114   1421.08337     653.3139     465.4114
   1421.06812     652.7855     464.5246   1421.06812     652.7855     464.5246
   1421.05286     652.9792     463.5278   1421.05286     652.9792     463.5278
   1421.03760     652.4351     462.0287   1421.03760     652.4351     462.0287
   1421.02234     652.7256     461.7324   1421.02234     652.7256     461.7324
   1421.00708     652.1821     460.8890   1421.00708     652.1821     460.8890
   1420.99182     652.5225     459.1836   1420.99182     652.5225     459.1836
   1420.97656     651.9144     458.9514   1420.97656     651.9144     458.9514
   1420.96130     653.2245     457.7324   1420.96130     653.2245     457.7324
   1420.94604     652.0585     456.4759   1420.94604     652.0585     456.4759
   1420.93079     652.1462     456.7794   1420.93079     652.1462     456.7794
   1420.91553     651.8190     455.2967   1420.91553     651.8190     455.2967
   1420.90027     651.3612     454.2968   1420.90027     651.3612     454.2968
   1420.88501     650.8369     453.0403   1420.88501     650.8369     453.0403
   1420.86975     651.3982     452.5609   1420.86975     651.3982     452.5609
   1420.85449     650.8085     451.4275   1420.85449     650.8085     451.4275
   1420.83923     652.4182     451.4089   1420.83923     652.4182     451.4089
   1420.82397     651.3463     450.4163   1420.82397     651.3463     450.4163
   1420.80872     650.4520     449.3640   1420.80872     650.4520     449.3640
   1420.79346     650.3406     447.5037   1420.79346     650.3406     447.5037
   1420.77820     651.0114     448.1252   1420.77820     651.0114     448.1252
   1420.76294     651.4429     446.8010   1420.76294     651.4429     446.8010
   1420.74768     651.4586     446.0233   1420.74768     651.4586     446.0233
   1420.73242     650.9658     445.7472   1420.73242     650.9658     445.7472
   1420.71716     651.1176     444.3493   1420.71716     651.1176     444.3493
   1420.70190     650.1473     443.7164   1420.70190     650.1473     443.7164
   1420.68665     651.3369     442.6578   1420.68665     651.3369     442.6578
   1420.67139     650.1151     442.6592   1420.67139     650.1151     442.6592
   1420.65613     650.2238     441.0208   1420.65613     650.2238     441.0208
   1420.64087     650.3349     439.7725   1420.64087     650.3349     439.7725
   1420.62561     649.4111     440.0555   1420.62561     649.4111     440.0555
   1420.61035     649.1239     439.1522   1420.61035     649.1239     439.1522
   1420.59509     649.7857     438.0522   1420.59509     649.7857     438.0522
   1420.57983     651.1388     438.2786   1420.57983     651.1388     438.2786
   1420.56458     651.7242     437.8824   1420.56458     651.7242     437.8824
   1420.54932     653.6602     438.2266   1420.54932     653.6602     438.2266
   1420.53406     655.1705     438.6999   1420.53406     655.1705     438.6999
   1420.51880     655.8304     437.5965   1420.51880     655.8304     437.5965
   1420.50354     656.1885     437.4290   1420.50354     656.1885     437.4290
   1420.48828     655.5027     436.0258   1420.48828     655.5027     436.0258
   1420.47302     654.4422     434.8894   1420.47302     654.4422     434.8894
   1420.45776     652.1815     434.2445   1420.45776     652.1815     434.2445
   1420.44250     652.0181     433.0380   1420.44250     652.0181     433.0380
   1420.42725     652.5442     432.3834   1420.42725     652.5442     432.3834
   1420.41199     652.3318     431.9175   1420.41199     652.3318     431.9175
   1420.39673     652.4992     431.5040   1420.39673     652.4992     431.5040
   1420.38147     652.9130     431.3246   1420.38147     652.9130     431.3246
   1420.36621     652.7665     430.2061   1420.36621     652.7665     430.2061
   1420.35095     654.6796     430.8487   1420.35095     654.6796     430.8487
   1420.33569     656.4507     431.7005   1420.33569     656.4507     431.7005
   1420.32043     659.6311     432.9738   1420.32043     659.6311     432.9738
   1420.30518     667.9863     436.7606   1420.30518     667.9863     436.7606
   1420.28992     678.0433     442.8373   1420.28992     678.0433     442.8373
   1420.27466     695.7103     454.8179   1420.27466     695.7103     454.8179
   1420.25940     733.0723     476.4030   1420.25940     733.0723     476.4030
   1420.24414     810.2238     523.8552   1420.24414     810.2238     523.8552
   1420.22888     988.1099     636.2023   1420.22888     988.1099     636.2023
   1420.21362    1248.2919     798.8505   1420.21362    1248.2919     798.8505
   1420.19836    1429.2628     909.8677   1420.19836    1429.2628     909.8677
   1420.18311    1321.5608     843.3292   1420.18311    1321.5608     843.3292
   1420.16785    1213.9093     775.7281   1420.16785    1213.9093     775.7281
   1420.15259    1248.9253     795.9907   1420.15259    1248.9253     795.9907
   1420.13733    1569.9320     996.5878   1420.13733    1569.9320     996.5878
   1420.12207    1941.1190    1222.6599   1420.12207    1941.1190    1222.6599
   1420.10681    2045.9476    1292.3795   1420.10681    2045.9476    1292.3795
   1420.09155    1964.1448    1237.7651   1420.09155    1964.1448    1237.7651
   1420.07629    1766.7668    1112.2920   1420.07629    1766.7668    1112.2920
   1420.06104    1583.2997     996.5552   1420.06104    1583.2997     996.5552
   1420.04578    1479.1688     931.1077   1420.04578    1479.1688     931.1077
   1420.03052    1684.3666    1060.5820   1420.03052    1684.3666    1060.5820
   1420.01526    1923.2365    1205.5776   1420.01526    1923.2365    1205.5776
   1420.00000    1944.8290    1218.9094   1420.00000    1944.8290    1218.9094
   1419.98474    1966.4210    1232.2415   1419.98474    1966.4210    1232.2415
   1419.96948    1777.2297    1110.1538   1419.96948    1777.2297    1110.1538
   1419.95422    1477.6647     924.3640   1419.95422    1477.6647     924.3640
   1419.93896    1179.1357     740.3289   1419.93896    1179.1357     740.3289
   1419.92371     980.8038     616.9307   1419.92371     980.8038     616.9307
   1419.90845     869.8979     547.4009   1419.90845     869.8979     547.4009
   1419.89319     802.9635     506.4848   1419.89319     802.9635     506.4848
   1419.87793     759.2916     478.3272   1419.87793     759.2916     478.3272
   1419.86267     727.4369     458.3750   1419.86267     727.4369     458.3750
   1419.84741     705.6221     445.4446   1419.84741     705.6221     445.4446
   1419.83215     691.5089     434.8379   1419.83215     691.5089     434.8379
   1419.81689     678.0993     426.6723   1419.81689     678.0993     426.6723
   1419.80164     669.4470     420.7087   1419.80164     669.4470     420.7087
   1419.78638     662.0919     415.8484   1419.78638     662.0919     415.8484
   1419.77112     655.8522     411.9288   1419.77112     655.8522     411.9288
   1419.75586     651.9512     409.6790   1419.75586     651.9512     409.6790
   1419.74060     651.4733     407.5805   1419.74060     651.4733     407.5805
   1419.72534     648.2350     405.7150   1419.72534     648.2350     405.7150
   1419.71008     646.9749     405.3881   1419.71008     646.9749     405.3881
   1419.69482     646.6772     404.1393   1419.69482     646.6772     404.1393
   1419.67957     647.0751     404.2987   1419.67957     647.0751     404.2987
   1419.66431     646.6065     403.4154   1419.66431     646.6065     403.4154
   1419.64905     647.2232     403.1899   1419.64905     647.2232     403.1899
   1419.63379     647.2451     402.4338   1419.63379     647.2451     402.4338
   1419.61853     647.1421     402.2732   1419.61853     647.1421     402.2732
   1419.60327     647.4005     402.2390   1419.60327     647.4005     402.2390
   1419.58801     646.4211     401.9131   1419.58801     646.4211     401.9131
   1419.57275     646.9752     401.7610   1419.57275     646.9752     401.7610
   1419.55750     647.5692     400.9589   1419.55750     647.5692     400.9589
   1419.54224     648.2123     401.2386   1419.54224     648.2123     401.2386
   1419.52698     648.3688     400.8645   1419.52698     648.3688     400.8645
   1419.51172     647.7919     400.6984   1419.51172     647.7919     400.6984
   1419.49646     648.3308     400.8703   1419.49646     648.3308     400.8703
   1419.48120     649.2081     400.4254   1419.48120     649.2081     400.4254
   1419.46594     648.7735     400.2717   1419.46594     648.7735     400.2717
   1419.45068     648.8271     400.6365   1419.45068     648.8271     400.6365
   1419.43542     649.9714     400.4872   1419.43542     649.9714     400.4872
   1419.42017     650.2344     400.0949   1419.42017     650.2344     400.0949
   1419.40491     650.4884     401.0655   1419.40491     650.4884     401.0655
   1419.38965     650.5028     399.7059   1419.38965     650.5028     399.7059
   1419.37439     651.5958     400.0018   1419.37439     651.5958     400.0018
   1419.35913     651.7822     400.0094   1419.35913     651.7822     400.0094
   1419.34387     650.9545     399.5526   1419.34387     650.9545     399.5526
   1419.32861     652.4116     400.4185   1419.32861     652.4116     400.4185
   1419.31335     652.7183     399.7979   1419.31335     652.7183     399.7979
   1419.29810     653.2679     399.6648   1419.29810     653.2679     399.6648
   1419.28284     654.3532     399.7633   1419.28284     654.3532     399.7633
   1419.26758     654.0532     400.8846   1419.26758     654.0532     400.8846
   1419.25232     655.5032     399.4409   1419.25232     655.5032     399.4409
   1419.23706     654.9134     400.1422   1419.23706     654.9134     400.1422
   1419.22180     655.6460     400.3541   1419.22180     655.6460     400.3541
   1419.20654     655.4656     399.7745   1419.20654     655.4656     399.7745
   1419.19128     656.5026     400.2312   1419.19128     656.5026     400.2312
   1419.17603     657.3922     400.0229   1419.17603     657.3922     400.0229
   1419.16077     656.9323     400.4264   1419.16077     656.9323     400.4264
   1419.14551     658.3237     400.3294   1419.14551     658.3237     400.3294
   1419.13025     658.3213     400.4370   1419.13025     658.3213     400.4370
   1419.11499     659.8387     400.7424   1419.11499     659.8387     400.7424
   1419.09973     659.8281     400.2749   1419.09973     659.8281     400.2749
   1419.08447     659.9305     400.9631   1419.08447     659.9305     400.9631
   1419.06921     660.7004     400.7222   1419.06921     660.7004     400.7222
   1419.05396     660.9893     401.6276   1419.05396     660.9893     401.6276
   1419.03870     662.0604     401.1932   1419.03870     662.0604     401.1932
   1419.02344     662.1575     401.6310   1419.02344     662.1575     401.6310
   1419.00818     663.7599     401.9409   1419.00818     663.7599     401.9409
   1418.99292     663.7525     401.8386   1418.99292     663.7525     401.8386
   1418.97766     664.1247     401.5447   1418.97766     664.1247     401.5447
   1418.96240     665.9552     401.8850   1418.96240     665.9552     401.8850
   1418.94714     665.5359     403.0121   1418.94714     665.5359     403.0121
   1418.93188     666.9369     402.5099   1418.93188     666.9369     402.5099
   1418.91663     666.4466     402.9557   1418.91663     666.4466     402.9557
   1418.90137     667.2021     402.8353   1418.90137     667.2021     402.8353
   1418.88611     668.9996     403.1700   1418.88611     668.9996     403.1700
   1418.87085     668.9565     404.3012   1418.87085     668.9565     404.3012
   1418.85559     670.0851     404.0003   1418.85559     670.0851     404.0003
   1418.84033     670.2714     404.4323   1418.84033     670.2714     404.4323
   1418.82507     669.8069     404.1448   1418.82507     669.8069     404.1448
   1418.80981     672.4215     404.3438   1418.80981     672.4215     404.3438
   1418.79456     671.8616     405.0728   1418.79456     671.8616     405.0728
   1418.77930     673.4963     405.0443   1418.77930     673.4963     405.0443
   1418.76404     674.0759     405.2752   1418.76404     674.0759     405.2752
   1418.74878     676.0381     406.2629   1418.74878     676.0381     406.2629
   1418.73352     676.1403     405.8848   1418.73352     676.1403     405.8848
   1418.71826     677.0828     405.9163   1418.71826     677.0828     405.9163
   1418.70300     676.9914     407.1451   1418.70300     676.9914     407.1451
   1418.68774     678.3683     407.1727   1418.68774     678.3683     407.1727
   1418.67249     678.4103     407.2102   1418.67249     678.4103     407.2102
   1418.65723     679.5870     407.8138   1418.65723     679.5870     407.8138
   1418.64197     681.2911     408.2272   1418.64197     681.2911     408.2272
   1418.62671     682.3163     408.3813   1418.62671     682.3163     408.3813
   1418.61145     683.4494     409.3617   1418.61145     683.4494     409.3617
   1418.59619     683.7446     410.0731   1418.59619     683.7446     410.0731
   1418.58093     684.4897     410.1035   1418.58093     684.4897     410.1035
   1418.56567     685.0022     409.8603   1418.56567     685.0022     409.8603
   1418.55042     686.1550     410.3610   1418.55042     686.1550     410.3610
   1418.53516     686.3101     410.6793   1418.53516     686.3101     410.6793
   1418.51990     687.6904     410.6908   1418.51990     687.6904     410.6908
   1418.50464     688.5290     411.7312   1418.50464     688.5290     411.7312
   1418.48938     690.0176     411.8307   1418.48938     690.0176     411.8307
   1418.47412     691.4026     413.2662   1418.47412     691.4026     413.2662
   1418.45886     690.6218     413.7766   1418.45886     690.6218     413.7766
   1418.44360     691.0037     413.8201   1418.44360     691.0037     413.8201
   1418.42834     692.6736     414.2282   1418.42834     692.6736     414.2282
   1418.41309     692.9899     414.9012   1418.41309     692.9899     414.9012
   1418.39783     694.5433     415.4159   1418.39783     694.5433     415.4159
   1418.38257     695.5538     415.6705   1418.38257     695.5538     415.6705
   1418.36731     697.0758     415.9549   1418.36731     697.0758     415.9549
   1418.35205     698.5872     417.1357   1418.35205     698.5872     417.1357
   1418.33679     698.8534     416.7346   1418.33679     698.8534     416.7346
   1418.32153     700.1158     417.5503   1418.32153     700.1158     417.5503
   1418.30627     702.1064     417.9075   1418.30627     702.1064     417.9075
   1418.29102     702.6524     419.0861   1418.29102     702.6524     419.0861
   1418.27576     701.2532     419.3917   1418.27576     701.2532     419.3917
   1418.26050     704.2543     419.8893   1418.26050     704.2543     419.8893
   1418.24524     704.7961     420.9275   1418.24524     704.7961     420.9275
   1418.22998     705.8035     421.9660   1418.22998     705.8035     421.9660
   1418.21472     706.5861     421.9731   1418.21472     706.5861     421.9731
   1418.19946     707.1325     422.8004   1418.19946     707.1325     422.8004
   1418.18420     709.0892     423.4670   1418.18420     709.0892     423.4670
   1418.16895     708.5292     423.1587   1418.16895     708.5292     423.1587
   1418.15369     710.0156     424.0091   1418.15369     710.0156     424.0091
   1418.13843     712.2350     425.2323   1418.13843     712.2350     425.2323
   1418.12317     713.8647     425.4770   1418.12317     713.8647     425.4770
   1418.10791     712.8808     425.6660   1418.10791     712.8808     425.6660
   1418.09265     715.6006     426.4656   1418.09265     715.6006     426.4656
   1418.07739     715.8850     426.7971   1418.07739     715.8850     426.7971
   1418.06213     717.5403     427.4601   1418.06213     717.5403     427.4601
   1418.04688     718.6790     428.4653   1418.04688     718.6790     428.4653
   1418.03162     717.7902     428.4429   1418.03162     717.7902     428.4429
   1418.01636     719.9134     429.8951   1418.01636     719.9134     429.8951
   1418.00110     720.9474     430.3364   1418.00110     720.9474     430.3364
   1417.98584     723.3372     430.8786   1417.98584     723.3372     430.8786
   1417.97058     723.5471     431.3537   1417.97058     723.5471     431.3537
   1417.95532     724.5259     432.4127   1417.95532     724.5259     432.4127
   1417.94006     725.3949     432.9921   1417.94006     725.3949     432.9921
   1417.92480     726.2926     432.8861   1417.92480     726.2926     432.8861
   1417.90955     728.3906     434.1563   1417.90955     728.3906     434.1563
   1417.89429     728.6575     434.6349   1417.89429     728.6575     434.6349
   1417.87903     730.3636     435.7023   1417.87903     730.3636     435.7023
   1417.86377     730.9160     435.7234   1417.86377     730.9160     435.7234
   1417.84851     730.9531     436.5784   1417.84851     730.9531     436.5784
   1417.83325     733.1000     437.5709   1417.83325     733.1000     437.5709
   1417.81799     733.1464     437.7383   1417.81799     733.1464     437.7383
   1417.80273     735.7228     438.8332   1417.80273     735.7228     438.8332
   1417.78748     736.6353     439.9418   1417.78748     736.6353     439.9418
   1417.77222     737.2950     440.5939   1417.77222     737.2950     440.5939
   1417.75696     738.7961     441.0328   1417.75696     738.7961     441.0328
   1417.74170     739.3828     441.8867   1417.74170     739.3828     441.8867
   1417.72644     740.6142     442.1278   1417.72644     740.6142     442.1278
   1417.71118     740.7770     443.3774   1417.71118     740.7770     443.3774
   1417.69592     741.3430     443.2723   1417.69592     741.3430     443.2723
   1417.68066     742.7787     444.0346   1417.68066     742.7787     444.0346
   1417.66541     744.1586     444.3361   1417.66541     744.1586     444.3361
   1417.65015     746.8699     446.2595   1417.65015     746.8699     446.2595
   1417.63489     746.1816     446.2358   1417.63489     746.1816     446.2358
   1417.61963     748.5429     447.6447   1417.61963     748.5429     447.6447
   1417.60437     749.6698     447.7107   1417.60437     749.6698     447.7107
   1417.58911     749.1543     448.9890   1417.58911     749.1543     448.9890
   1417.57385     751.7509     448.2995   1417.57385     751.7509     448.2995
   1417.55859     752.7413     449.5442   1417.55859     752.7413     449.5442
   1417.54333     753.4306     450.1949   1417.54333     753.4306     450.1949
   1417.52808     753.7744     450.9175   1417.52808     753.7744     450.9175
   1417.51282     755.2676     451.6011   1417.51282     755.2676     451.6011
   1417.49756     755.0467     452.2752   1417.49756     755.0467     452.2752
   1417.48230     757.8163     452.5738   1417.48230     757.8163     452.5738
   1417.46704     757.6356     454.0103   1417.46704     757.6356     454.0103
   1417.45178     760.0699     454.3618   1417.45178     760.0699     454.3618
   1417.43652     760.9320     455.2837   1417.43652     760.9320     455.2837
   1417.42126     761.0750     455.7771   1417.42126     761.0750     455.7771
   1417.40601     762.2932     456.9348   1417.40601     762.2932     456.9348
   1417.39075     763.5759     457.9348   1417.39075     763.5759     457.9348
   1417.37549     763.4581     458.2168   1417.37549     763.4581     458.2168
   1417.36023     764.2498     458.2748   1417.36023     764.2498     458.2748
   1417.34497     765.1713     458.9982   1417.34497     765.1713     458.9982
   1417.32971     766.1485     459.7805   1417.32971     766.1485     459.7805
   1417.31445     767.5695     460.5072   1417.31445     767.5695     460.5072
   1417.29919     768.1730     460.8401   1417.29919     768.1730     460.8401
   1417.28394     769.0500     461.9662   1417.28394     769.0500     461.9662
   1417.26868     770.3289     462.3224   1417.26868     770.3289     462.3224
   1417.25342     769.9827     462.8857   1417.25342     769.9827     462.8857
   1417.23816     770.5057     463.6161   1417.23816     770.5057     463.6161
   1417.22290     773.5960     465.1636   1417.22290     773.5960     465.1636
   1417.20764     772.6815     465.1766   1417.20764     772.6815     465.1766
   1417.19238     775.5972     465.6540   1417.19238     775.5972     465.6540
   1417.17712     775.4544     466.2708   1417.17712     775.4544     466.2708
   1417.16187     776.7071     466.6266   1417.16187     776.7071     466.6266
   1417.14661     777.6440     467.8417   1417.14661     777.6440     467.8417
   1417.13135     778.4263     468.6659   1417.13135     778.4263     468.6659
   1417.11609     777.9229     468.4227   1417.11609     777.9229     468.4227
   1417.10083     778.5840     469.2863   1417.10083     778.5840     469.2863
   1417.08557     779.2812     469.5612   1417.08557     779.2812     469.5612
   1417.07031     779.7739     470.9791   1417.07031     779.7739     470.9791
   1417.05505     780.6573     471.5262   1417.05505     780.6573     471.5262
   1417.03979     782.3349     471.6841   1417.03979     782.3349     471.6841
   1417.02454     782.5192     472.6107   1417.02454     782.5192     472.6107
   1417.00928     782.5839     473.0984   1417.00928     782.5839     473.0984
   1416.99402     784.5906     473.8347   1416.99402     784.5906     473.8347
   1416.97876     786.6864     473.5546   1416.97876     786.6864     473.5546
   1416.96350     785.7395     474.6140   1416.96350     785.7395     474.6140
   1416.94824     786.3320     475.1794   1416.94824     786.3320     475.1794
   1416.93298     786.1761     475.9233   1416.93298     786.1761     475.9233
   1416.91772     786.4806     476.3435   1416.91772     786.4806     476.3435
   1416.90247     787.9230     476.7398   1416.90247     787.9230     476.7398
   1416.88721     787.4158     476.9268   1416.88721     787.4158     476.9268
   1416.87195     788.3865     476.7064   1416.87195     788.3865     476.7064
   1416.85669     789.2657     477.9361   1416.85669     789.2657     477.9361
   1416.84143     789.3981     478.4069   1416.84143     789.3981     478.4069
   1416.82617     789.5790     479.2725   1416.82617     789.5790     479.2725
   1416.81091     789.8246     478.8708   1416.81091     789.8246     478.8708
   1416.79565     791.5591     479.8498   1416.79565     791.5591     479.8498
   1416.78040     791.7694     479.5496   1416.78040     791.7694     479.5496
   1416.76514     791.9389     480.1182   1416.76514     791.9389     480.1182
   1416.74988     791.8856     480.4330   1416.74988     791.8856     480.4330
   1416.73462     792.1917     480.8162   1416.73462     792.1917     480.8162
   1416.71936     792.9825     481.3767   1416.71936     792.9825     481.3767
   1416.70410     793.2759     482.3482   1416.70410     793.2759     482.3482
   1416.68884     793.9880     481.9601   1416.68884     793.9880     481.9601
   1416.67358     793.8259     482.2234   1416.67358     793.8259     482.2234
   1416.65833     793.5870     482.5298   1416.65833     793.5870     482.5298
   1416.64307     794.0989     483.2657   1416.64307     794.0989     483.2657
   1416.62781     794.1323     483.5110   1416.62781     794.1323     483.5110
   1416.61255     795.1691     484.0279   1416.61255     795.1691     484.0279
   1416.59729     794.7289     483.7921   1416.59729     794.7289     483.7921
   1416.58203     794.0759     484.3895   1416.58203     794.0759     484.3895
   1416.56677     796.2874     483.8137   1416.56677     796.2874     483.8137
   1416.55151     795.6813     484.3358   1416.55151     795.6813     484.3358
   1416.53625     795.7650     484.4669   1416.53625     795.7650     484.4669
   1416.52100     795.0346     483.7445   1416.52100     795.0346     483.7445
   1416.50574     795.6161     484.6834   1416.50574     795.6161     484.6834
   1416.49048     796.4329     484.8274   1416.49048     796.4329     484.8274
   1416.47522     795.1151     485.4473   1416.47522     795.1151     485.4473
   1416.45996     795.1666     484.5849   1416.45996     795.1666     484.5849
   1416.44470     796.2722     484.5938   1416.44470     796.2722     484.5938
   1416.42944     795.7251     484.9350   1416.42944     795.7251     484.9350
   1416.41418     796.0120     485.2471   1416.41418     796.0120     485.2471
   1416.39893     795.8078     486.2521   1416.39893     795.8078     486.2521
   1416.38367     795.5864     486.3098   1416.38367     795.5864     486.3098
   1416.36841     796.8512     485.6075   1416.36841     796.8512     485.6075
   1416.35315     795.9088     486.1248   1416.35315     795.9088     486.1248
   1416.33789     793.4254     485.2995   1416.33789     793.4254     485.2995
   1416.32263     794.4077     486.3522   1416.32263     794.4077     486.3522
   1416.30737     794.1828     485.4336   1416.30737     794.1828     485.4336
   1416.29211     795.5645     486.0420   1416.29211     795.5645     486.0420
   1416.27686     793.7211     485.9707   1416.27686     793.7211     485.9707
   1416.26160     794.7032     485.3557   1416.26160     794.7032     485.3557
   1416.24634     794.7282     485.6957   1416.24634     794.7282     485.6957
   1416.23108     793.3708     485.2924   1416.23108     793.3708     485.2924
   1416.21582     794.3589     486.7073   1416.21582     794.3589     486.7073
   1416.20056     792.0897     485.2775   1416.20056     792.0897     485.2775
   1416.18530     792.9761     485.4370   1416.18530     792.9761     485.4370
   1416.17004     791.7164     485.6640   1416.17004     791.7164     485.6640
   1416.15479     792.4217     485.0686   1416.15479     792.4217     485.0686
   1416.13953     791.5906     485.0744   1416.13953     791.5906     485.0744
   1416.12427     791.0293     485.2405   1416.12427     791.0293     485.2405
   1416.10901     791.9384     485.0812   1416.10901     791.9384     485.0812
   1416.09375     790.2403     484.4050   1416.09375     790.2403     484.4050
   1416.07849     790.5150     484.4833   1416.07849     790.5150     484.4833
   1416.06323     788.5682     484.4900   1416.06323     788.5682     484.4900
   1416.04797     789.6400     483.9545   1416.04797     789.6400     483.9545
   1416.03271     789.0901     484.9820   1416.03271     789.0901     484.9820
   1416.01746     788.9217     484.1107   1416.01746     788.9217     484.1107
   1416.00220     787.8165     483.5054   1416.00220     787.8165     483.5054
   1415.98694     786.2612     482.7687   1415.98694     786.2612     482.7687
   1415.97168     786.0203     483.4954   1415.97168     786.0203     483.4954
   1415.95642     786.2836     482.9183   1415.95642     786.2836     482.9183
   1415.94116     785.0714     482.8342   1415.94116     785.0714     482.8342
   1415.92590     784.7969     483.6457   1415.92590     784.7969     483.6457
   1415.91064     784.8868     482.9847   1415.91064     784.8868     482.9847
   1415.89539     782.2964     483.0193   1415.89539     782.2964     483.0193
   1415.88013     783.5276     482.7164   1415.88013     783.5276     482.7164
   1415.86487     781.2690     482.4095   1415.86487     781.2690     482.4095
   1415.84961     781.1661     481.9990   1415.84961     781.1661     481.9990
   1415.83435     781.0242     481.4481   1415.83435     781.0242     481.4481
   1415.81909     780.9747     480.6637   1415.81909     780.9747     480.6637
   1415.80383     779.3010     481.4900   1415.80383     779.3010     481.4900
   1415.78857     777.7431     481.2599   1415.78857     777.7431     481.2599
   1415.77332     777.3679     480.8893   1415.77332     777.3679     480.8893
   1415.75806     776.6220     480.6862   1415.75806     776.6220     480.6862
   1415.74280     777.2378     480.5180   1415.74280     777.2378     480.5180
   1415.72754     777.0836     480.0711   1415.72754     777.0836     480.0711
   1415.71228     773.8528     479.9060   1415.71228     773.8528     479.9060
   1415.69702     774.9210     479.3594   1415.69702     774.9210     479.3594
   1415.68176     774.7419     478.9045   1415.68176     774.7419     478.9045
   1415.66650     771.8075     478.3711   1415.66650     771.8075     478.3711
   1415.65125     771.7181     478.6805   1415.65125     771.7181     478.6805
   1415.63599     771.5045     478.2845   1415.63599     771.5045     478.2845
   1415.62073     769.4128     477.7782   1415.62073     769.4128     477.7782
   1415.60547     769.5116     477.6075   1415.60547     769.5116     477.6075
   1415.59021     767.8556     476.6877   1415.59021     767.8556     476.6877
   1415.57495     767.5984     477.2461   1415.57495     767.5984     477.2461
   1415.55969     766.3635     476.7555   1415.55969     766.3635     476.7555
   1415.54443     763.5490     477.0375   1415.54443     763.5490     477.0375
   1415.52917     764.4026     476.6192   1415.52917     764.4026     476.6192
   1415.51392     764.3101     475.2273   1415.51392     764.3101     475.2273
   1415.49866     762.7823     475.1992   1415.49866     762.7823     475.1992
   1415.48340     761.1906     475.4074   1415.48340     761.1906     475.4074
   1415.46814     760.3842     474.8570   1415.46814     760.3842     474.8570
   1415.45288     758.6708     473.9507   1415.45288     758.6708     473.9507
   1415.43762     757.5245     473.8411   1415.43762     757.5245     473.8411
   1415.42236     756.1564     472.5782   1415.42236     756.1564     472.5782
   1415.40710     756.0154     472.9324   1415.40710     756.0154     472.9324
   1415.39185     754.1081     472.5013   1415.39185     754.1081     472.5013
   1415.37659     752.3608     472.0046   1415.37659     752.3608     472.0046
   1415.36133     752.0801     472.0599   1415.36133     752.0801     472.0599
   1415.34607     750.3999     471.4290   1415.34607     750.3999     471.4290
   1415.33081     750.8290     470.8260   1415.33081     750.8290     470.8260
   1415.31555     747.8215     469.3480   1415.31555     747.8215     469.3480
   1415.30029     746.7215     469.4357   1415.30029     746.7215     469.4357
   1415.28503     745.7679     468.8123   1415.28503     745.7679     468.8123
   1415.26978     744.0950     469.2946   1415.26978     744.0950     469.2946
   1415.25452     743.9357     468.1400   1415.25452     743.9357     468.1400
   1415.23926     742.1144     467.7442   1415.23926     742.1144     467.7442
   1415.22400     740.0090     467.5217   1415.22400     740.0090     467.5217
   1415.20874     738.7734     466.6902   1415.20874     738.7734     466.6902
   1415.19348     737.9507     466.2296   1415.19348     737.9507     466.2296
   1415.17822     737.3056     466.1253   1415.17822     737.3056     466.1253
   1415.16296     734.1027     465.5795   1415.16296     734.1027     465.5795
   1415.14771     732.9169     465.5539   1415.14771     732.9169     465.5539
   1415.13245     732.3273     463.3181   1415.13245     732.3273     463.3181
   1415.11719     730.8959     463.4598   1415.11719     730.8959     463.4598
   1415.10193     729.9632     462.5620   1415.10193     729.9632     462.5620
   1415.08667     728.4299     462.1746   1415.08667     728.4299     462.1746
   1415.07141     726.1457     461.3914   1415.07141     726.1457     461.3914
   1415.05615     724.4749     461.2197   1415.05615     724.4749     461.2197
   1415.04089     723.2487     460.3978   1415.04089     723.2487     460.3978
   1415.02563     720.7220     459.5637   1415.02563     720.7220     459.5637
   1415.01038     720.3560     458.8996   1415.01038     720.3560     458.8996
   1414.99512     718.7703     457.8592   1414.99512     718.7703     457.8592
   1414.97986     715.9954     458.1791   1414.97986     715.9954     458.1791
   1414.96460     714.2980     457.3298   1414.96460     714.2980     457.3298
   1414.94934     713.5713     456.2870   1414.94934     713.5713     456.2870
   1414.93408     711.2502     456.1343   1414.93408     711.2502     456.1343
   1414.91882     710.4988     455.6543   1414.91882     710.4988     455.6543
   1414.90356     708.4003     454.0050   1414.90356     708.4003     454.0050
   1414.88831     705.0451     453.5013   1414.88831     705.0451     453.5013
   1414.87305     705.2427     452.8773   1414.87305     705.2427     452.8773
   1414.85779     702.5771     451.5388   1414.85779     702.5771     451.5388
   1414.84253     700.9891     450.4305   1414.84253     700.9891     450.4305
   1414.82727     699.2045     449.7728   1414.82727     699.2045     449.7728
   1414.81201     697.4105     448.9837   1414.81201     697.4105     448.9837
   1414.79675     696.4343     448.4418   1414.79675     696.4343     448.4418
   1414.78149     693.5919     448.2972   1414.78149     693.5919     448.2972
   1414.76624     691.3208     447.3988   1414.76624     691.3208     447.3988
   1414.75098     687.7465     446.3384   1414.75098     687.7465     446.3384
   1414.73572     688.4947     444.9723   1414.73572     688.4947     444.9723
   1414.72046     686.2873     443.9554   1414.72046     686.2873     443.9554
   1414.70520     683.1467     443.4582   1414.70520     683.1467     443.4582
   1414.68994     682.1072     442.8314   1414.68994     682.1072     442.8314
   1414.67468     679.3563     440.9207   1414.67468     679.3563     440.9207
   1414.65942     677.7247     440.9599   1414.65942     677.7247     440.9599
   1414.64417     675.3780     438.8568   1414.64417     675.3780     438.8568
   1414.62891     673.0643     438.5699   1414.62891     673.0643     438.5699
   1414.61365     671.3253     437.3541   1414.61365     671.3253     437.3541
   1414.59839     669.0980     436.6431   1414.59839     669.0980     436.6431
   1414.58313     666.7443     435.4144   1414.58313     666.7443     435.4144
   1414.56787     664.4044     434.1331   1414.56787     664.4044     434.1331
   1414.55261     661.9238     433.3083   1414.55261     661.9238     433.3083
   1414.53735     658.9415     431.2484   1414.53735     658.9415     431.2484
   1414.52209     658.1647     430.9380   1414.52209     658.1647     430.9380
   1414.50684     656.1414     430.0926   1414.50684     656.1414     430.0926
   1414.49158     653.2592     428.9541   1414.49158     653.2592     428.9541
   1414.47632     651.7968     427.3853   1414.47632     651.7968     427.3853
   1414.46106     649.4379     426.1266   1414.46106     649.4379     426.1266
   1414.44580     646.1196     425.1131   1414.44580     646.1196     425.1131
   1414.43054     644.7720     423.7783   1414.43054     644.7720     423.7783
   1414.41528     641.5870     423.1208   1414.41528     641.5870     423.1208
   1414.40002     638.2272     422.3102   1414.40002     638.2272     422.3102
   1414.38477     635.4874     420.7604   1414.38477     635.4874     420.7604
   1414.36951     633.3114     419.0019   1414.36951     633.3114     419.0019
   1414.35425     631.1989     417.3491   1414.35425     631.1989     417.3491
   1414.33899     629.9562     417.3021   1414.33899     629.9562     417.3021
   1414.32373     626.5751     415.4298   1414.32373     626.5751     415.4298
   1414.30847     623.7567     414.1530   1414.30847     623.7567     414.1530
   1414.29321     621.8387     413.1023   1414.29321     621.8387     413.1023
   1414.27795     619.1868     411.8983   1414.27795     619.1868     411.8983
   1414.26270     615.8929     410.1326   1414.26270     615.8929     410.1326
   1414.24744     613.1952     408.6946   1414.24744     613.1952     408.6946
   1414.23218     611.1611     407.7351   1414.23218     611.1611     407.7351
   1414.21692     607.6605     406.1265   1414.21692     607.6605     406.1265
   1414.20166     604.8318     404.6829   1414.20166     604.8318     404.6829
   1414.18640     602.2436     403.7707   1414.18640     602.2436     403.7707
   1414.17114     599.6967     401.8606   1414.17114     599.6967     401.8606
   1414.15588     598.1524     400.2357   1414.15588     598.1524     400.2357
   1414.14062     595.1048     399.5438   1414.14062     595.1048     399.5438
   1414.12537     592.5166     397.7391   1414.12537     592.5166     397.7391
   1414.11011     589.1718     395.6996   1414.11011     589.1718     395.6996
   1414.09485     586.8105     394.0312   1414.09485     586.8105     394.0312
   1414.07959     584.1052     393.6594   1414.07959     584.1052     393.6594
   1414.06433     580.6075     391.5805   1414.06433     580.6075     391.5805
   1414.04907     577.5745     390.2310   1414.04907     577.5745     390.2310
   1414.03381     576.0109     388.7674   1414.03381     576.0109     388.7674
   1414.01855     572.8482     388.0909   1414.01855     572.8482     388.0909
   1414.00330     591.4301     391.4839   1414.00330     591.4301     391.4839
   1413.98804     568.8275     384.7010   1413.98804     568.8275     384.7010
   1413.97278     564.5397     383.0256   1413.97278     564.5397     383.0256
   1413.95752     561.5558     381.4703   1413.95752     561.5558     381.4703
   1413.94226     558.8481     379.1101   1413.94226     558.8481     379.1101
   1413.92700     554.8729     378.7216   1413.92700     554.8729     378.7216
   1413.91174     552.7265     376.5607   1413.91174     552.7265     376.5607
   1413.89648     549.7709     375.5499   1413.89648     549.7709     375.5499
   1413.88123     546.3210     373.0809   1413.88123     546.3210     373.0809
   1413.86597     543.7665     371.8516   1413.86597     543.7665     371.8516
   1413.85071     541.5115     370.4885   1413.85071     541.5115     370.4885
   1413.83545     538.1505     369.1331   1413.83545     538.1505     369.1331
   1413.82019     535.8856     366.9096   1413.82019     535.8856     366.9096
   1413.80493     532.0172     365.9807   1413.80493     532.0172     365.9807
   1413.78967     529.9282     363.8782   1413.78967     529.9282     363.8782
   1413.77441     526.0283     362.4353   1413.77441     526.0283     362.4353
   1413.75916     523.1187     360.8631   1413.75916     523.1187     360.8631
   1413.74390     520.6907     358.8181   1413.74390     520.6907     358.8181
   1413.72864     517.6268     357.2965   1413.72864     517.6268     357.2965
   1413.71338     514.9711     355.7037   1413.71338     514.9711     355.7037
   1413.69812     512.3852     354.3630   1413.69812     512.3852     354.3630
   1413.68286     508.8744     352.6282   1413.68286     508.8744     352.6282
   1413.66760     505.3692     351.2559   1413.66760     505.3692     351.2559
   1413.65234     503.0410     349.8477   1413.65234     503.0410     349.8477
   1413.63708     500.4846     347.8241   1413.63708     500.4846     347.8241
   1413.62183     497.9016     346.3685   1413.62183     497.9016     346.3685
   1413.60657     494.3091     344.5495   1413.60657     494.3091     344.5495
   1413.59131     491.5180     342.2513   1413.59131     491.5180     342.2513
   1413.57605     488.0420     341.4015   1413.57605     488.0420     341.4015
   1413.56079     485.1439     339.5707   1413.56079     485.1439     339.5707
   1413.54553     482.9804     337.7117   1413.54553     482.9804     337.7117
   1413.53027     480.4060     336.5014   1413.53027     480.4060     336.5014
   1413.51501     476.6047     334.3214   1413.51501     476.6047     334.3214
   1413.49976     474.2031     332.9991   1413.49976     474.2031     332.9991
   1413.48450     471.5866     331.3812   1413.48450     471.5866     331.3812
   1413.46924     469.0836     329.6990   1413.46924     469.0836     329.6990
   1413.45398     466.4697     328.2034   1413.45398     466.4697     328.2034
   1413.43872     463.9926     326.4123   1413.43872     463.9926     326.4123
   1413.42346     460.1696     325.3670   1413.42346     460.1696     325.3670
   1413.40820     457.3080     323.4898   1413.40820     457.3080     323.4898
   1413.39294     454.9690     321.9731   1413.39294     454.9690     321.9731
   1413.37769     452.2123     320.0658   1413.37769     452.2123     320.0658
   1413.36243     450.2292     317.9668   1413.36243     450.2292     317.9668
   1413.34717     446.6198     317.2359   1413.34717     446.6198     317.2359
   1413.33191     444.2986     316.3817   1413.33191     444.2986     316.3817
   1413.31665     442.0309     314.0482   1413.31665     442.0309     314.0482
   1413.30139     439.0094     312.4373   1413.30139     439.0094     312.4373
   1413.28613     437.6418     311.0971   1413.28613     437.6418     311.0971
   1413.27087     434.0423     309.4026   1413.27087     434.0423     309.4026
   1413.25562     431.8070     307.9847   1413.25562     431.8070     307.9847
   1413.24036     429.1376     306.0791   1413.24036     429.1376     306.0791
   1413.22510     427.3138     304.6086   1413.22510     427.3138     304.6086
   1413.20984     424.1395     303.8874   1413.20984     424.1395     303.8874
   1413.19458     422.2445     301.7129   1413.19458     422.2445     301.7129
   1413.17932     419.2925     300.4893   1413.17932     419.2925     300.4893
   1413.16406     416.8627     298.7202   1413.16406     416.8627     298.7202
   1413.14880     414.9156     297.4492   1413.14880     414.9156     297.4492
   1413.13354     412.5298     296.6468   1413.13354     412.5298     296.6468
   1413.11829     410.6535     294.9540   1413.11829     410.6535     294.9540
   1413.10303     407.7432     293.4603   1413.10303     407.7432     293.4603
   1413.08777     405.7103     292.2441   1413.08777     405.7103     292.2441
   1413.07251     403.4131     290.6054   1413.07251     403.4131     290.6054
   1413.05725     401.5894     289.5725   1413.05725     401.5894     289.5725
   1413.04199     399.7489     288.4260   1413.04199     399.7489     288.4260
   1413.02673     396.6095     287.1446   1413.02673     396.6095     287.1446
   1413.01147     394.8616     285.4677   1413.01147     394.8616     285.4677
   1412.99622     392.9145     284.4063   1412.99622     392.9145     284.4063
   1412.98096     391.1449     283.2738   1412.98096     391.1449     283.2738
   1412.96570     389.3172     282.1382   1412.96570     389.3172     282.1382
   1412.95044     387.6673     280.8983   1412.95044     387.6673     280.8983
   1412.93518     385.4978     279.4345   1412.93518     385.4978     279.4345
   1412.91992     384.0297     278.7890   1412.91992     384.0297     278.7890
   1412.90466     381.9050     277.4639   1412.90466     381.9050     277.4639
   1412.88940     380.5899     275.7885   1412.88940     380.5899     275.7885
   1412.87415     378.9223     275.0861   1412.87415     378.9223     275.0861
   1412.85889     377.0563     274.3290   1412.85889     377.0563     274.3290
   1412.84363     375.4085     272.9737   1412.84363     375.4085     272.9737
   1412.82837     373.8598     272.4241   1412.82837     373.8598     272.4241
   1412.81311     372.4270     271.2975   1412.81311     372.4270     271.2975
   1412.79785     370.8484     270.5727   1412.79785     370.8484     270.5727
   1412.78259     369.8611     269.7062   1412.78259     369.8611     269.7062
   1412.76733     367.5984     268.3362   1412.76733     367.5984     268.3362
   1412.75208     366.8900     267.8638   1412.75208     366.8900     267.8638
   1412.73682     365.9444     266.9936   1412.73682     365.9444     266.9936
   1412.72156     364.3188     266.2529   1412.72156     364.3188     266.2529
   1412.70630     363.0575     265.1715   1412.70630     363.0575     265.1715
   1412.69104     362.6058     264.8790   1412.69104     362.6058     264.8790
   1412.67578     360.6786     264.1908   1412.67578     360.6786     264.1908
   1412.66052     359.7346     263.2940   1412.66052     359.7346     263.2940
   1412.64526     359.0161     262.4230   1412.64526     359.0161     262.4230
   1412.63000     359.0524     262.1675   1412.63000     359.0524     262.1675
   1412.61475     356.6436     261.5894   1412.61475     356.6436     261.5894
   1412.59949     356.4277     261.0215   1412.59949     356.4277     261.0215
   1412.58423     355.4926     260.7346   1412.58423     355.4926     260.7346
   1412.56897     355.0373     259.9378   1412.56897     355.0373     259.9378
   1412.55371     353.8342     259.4641   1412.55371     353.8342     259.4641
   1412.53845     353.1278     259.1240   1412.53845     353.1278     259.1240
   1412.52319     352.8721     258.9263   1412.52319     352.8721     258.9263
   1412.50793     352.8016     258.6096   1412.50793     352.8016     258.6096
   1412.49268     352.3103     257.9406   1412.49268     352.3103     257.9406
   1412.47742     351.7343     258.0099   1412.47742     351.7343     258.0099
   1412.46216     350.6498     257.8415   1412.46216     350.6498     257.8415
   1412.44690     350.5575     257.7594   1412.44690     350.5575     257.7594
   1412.43164     351.1259     257.3430   1412.43164     351.1259     257.3430
   1412.41638     351.3607     256.7917   1412.41638     351.3607     256.7917
   1412.40112     350.5186     256.8883   1412.40112     350.5186     256.8883
   1412.38586     350.3370     256.5903   1412.38586     350.3370     256.5903
   1412.37061     350.0485     256.9675   1412.37061     350.0485     256.9675
   1412.35535     350.4505     257.2135   1412.35535     350.4505     257.2135
   1412.34009     349.5102     256.9640   1412.34009     349.5102     256.9640
   1412.32483     351.0643     257.2313   1412.32483     351.0643     257.2313
   1412.30957     350.2745     256.8340   1412.30957     350.2745     256.8340
   1412.29431     350.8027     257.5988   1412.29431     350.8027     257.5988
   1412.27905     351.2928     257.9496   1412.27905     351.2928     257.9496
   1412.26379     350.8994     258.1175   1412.26379     350.8994     258.1175
   1412.24854     351.3066     258.1222   1412.24854     351.3066     258.1222
   1412.23328     351.7961     258.5456   1412.23328     351.7961     258.5456
   1412.21802     352.4724     258.7523   1412.21802     352.4724     258.7523
   1412.20276     352.6431     259.3111   1412.20276     352.6431     259.3111