#     FILENAME=!Skynet_57528_lach-hhg-113_20384_20937.cyb.fits
#     BASENAME=Skynet_57528_lach-hhg-113_20384_20937
#     SRC_NAME=lach-hhg-113
#     OBSERVER=hhgmadison16_9500
#     DATE_OBS=2016-05-20T16:23:41.250
#        OBSID=20384
#      SCANNUM=20937
#          MJD=57528.6842
#          UTC=59111
#     SCANTYPE=track
#     DATAMODE=HIRES
#     TUNEFREQ=1420.0000
# Actual_FREQ1=1420.0000
# Actual_FREQ2=1420.0000
#    LO1Tuning=6870.000
#     RFFILTER=1355_1435
#        OBSBW=-15.6250
#        NCHAN=1024 
#        FOCUS=37.0709
#           RA=23:27:33.47
#          DEC=61:14:27.19
#      RA(hrs)=23.459300
#     DEC(deg)=61.240900
#    AZIM(deg)=322.460
#    ELEV(deg)=50.489
#     IFattens=11.00, 10.00
#      WARNING=None
#    TCAL_XL1=7.9635
#    TCAL_YR1=9.1340
#    TCAL_XL2=7.9635
#    TCAL_YR2=9.1340
#     TRX_XL1=11.7060
#     TRX_YR1=11.7060
#     TRX_XL2=11.7060
#     TRX_YR2=11.7060
#        TAVE=1.0000
#Freq1(MHz)          XL1          YR1  Freq2(MHz)          XL2          YR2 

   1427.81250     301.2888     228.6637   1427.81250     301.2888     228.6637
   1427.79724     302.3837     228.7463   1427.79724     302.3837     228.7463
   1427.78198     302.5891     229.3673   1427.78198     302.5891     229.3673
   1427.76672     303.3017     230.0864   1427.76672     303.3017     230.0864
   1427.75146     304.5242     230.7951   1427.75146     304.5242     230.7951
   1427.73621     305.2056     231.0252   1427.73621     305.2056     231.0252
   1427.72095     305.9457     231.6260   1427.72095     305.9457     231.6260
   1427.70569     306.2032     232.3508   1427.70569     306.2032     232.3508
   1427.69043     306.8760     233.4978   1427.69043     306.8760     233.4978
   1427.67517     307.9725     234.1386   1427.67517     307.9725     234.1386
   1427.65991     309.2363     234.9407   1427.65991     309.2363     234.9407
   1427.64465     310.1057     236.3965   1427.64465     310.1057     236.3965
   1427.62939     311.4248     236.9873   1427.62939     311.4248     236.9873
   1427.61414     312.5218     237.8593   1427.61414     312.5218     237.8593
   1427.59888     313.1807     238.4150   1427.59888     313.1807     238.4150
   1427.58362     314.1124     239.5036   1427.58362     314.1124     239.5036
   1427.56836     315.3598     240.5062   1427.56836     315.3598     240.5062
   1427.55310     316.4565     241.8456   1427.55310     316.4565     241.8456
   1427.53784     318.1059     242.6011   1427.53784     318.1059     242.6011
   1427.52258     318.6675     243.6705   1427.52258     318.6675     243.6705
   1427.50732     320.5978     244.7228   1427.50732     320.5978     244.7228
   1427.49207     322.0183     246.3060   1427.49207     322.0183     246.3060
   1427.47681     323.0667     247.2577   1427.47681     323.0667     247.2577
   1427.46155     325.4406     248.6975   1427.46155     325.4406     248.6975
   1427.44629     325.9838     249.8943   1427.44629     325.9838     249.8943
   1427.43103     327.8740     251.1681   1427.43103     327.8740     251.1681
   1427.41577     328.7299     252.7109   1427.41577     328.7299     252.7109
   1427.40051     330.5056     254.0290   1427.40051     330.5056     254.0290
   1427.38525     332.3163     254.8393   1427.38525     332.3163     254.8393
   1427.37000     334.1444     256.5200   1427.37000     334.1444     256.5200
   1427.35474     335.9121     258.3836   1427.35474     335.9121     258.3836
   1427.33948     337.5575     258.9025   1427.33948     337.5575     258.9025
   1427.32422     339.2738     261.0659   1427.32422     339.2738     261.0659
   1427.30896     340.9953     262.5217   1427.30896     340.9953     262.5217
   1427.29370     342.6220     263.6862   1427.29370     342.6220     263.6862
   1427.27844     344.4706     265.8131   1427.27844     344.4706     265.8131
   1427.26318     345.9489     267.5117   1427.26318     345.9489     267.5117
   1427.24792     348.2734     268.7107   1427.24792     348.2734     268.7107
   1427.23267     350.0870     270.2411   1427.23267     350.0870     270.2411
   1427.21741     351.8209     272.3043   1427.21741     351.8209     272.3043
   1427.20215     354.2132     273.7246   1427.20215     354.2132     273.7246
   1427.18689     356.1557     275.1924   1427.18689     356.1557     275.1924
   1427.17163     357.7038     277.2489   1427.17163     357.7038     277.2489
   1427.15637     359.8309     278.8728   1427.15637     359.8309     278.8728
   1427.14111     361.7119     281.1006   1427.14111     361.7119     281.1006
   1427.12585     363.9288     282.3090   1427.12585     363.9288     282.3090
   1427.11060     365.9489     284.3937   1427.11060     365.9489     284.3937
   1427.09534     368.5297     286.3733   1427.09534     368.5297     286.3733
   1427.08008     369.7995     287.5854   1427.08008     369.7995     287.5854
   1427.06482     372.7231     289.4715   1427.06482     372.7231     289.4715
   1427.04956     374.7843     291.6005   1427.04956     374.7843     291.6005
   1427.03430     377.1959     293.4185   1427.03430     377.1959     293.4185
   1427.01904     379.3998     295.5898   1427.01904     379.3998     295.5898
   1427.00378     381.1020     297.2634   1427.00378     381.1020     297.2634
   1426.98853     383.8058     299.1141   1426.98853     383.8058     299.1141
   1426.97327     385.8966     301.0999   1426.97327     385.8966     301.0999
   1426.95801     388.4809     303.3516   1426.95801     388.4809     303.3516
   1426.94275     390.3119     305.0773   1426.94275     390.3119     305.0773
   1426.92749     392.9175     306.6363   1426.92749     392.9175     306.6363
   1426.91223     395.0536     308.7639   1426.91223     395.0536     308.7639
   1426.89697     397.3386     311.0437   1426.89697     397.3386     311.0437
   1426.88171     399.9943     312.6773   1426.88171     399.9943     312.6773
   1426.86646     401.8197     314.8885   1426.86646     401.8197     314.8885
   1426.85120     404.9019     317.0420   1426.85120     404.9019     317.0420
   1426.83594     406.6788     318.9288   1426.83594     406.6788     318.9288
   1426.82068     409.2962     321.5337   1426.82068     409.2962     321.5337
   1426.80542     411.9241     323.6392   1426.80542     411.9241     323.6392
   1426.79016     414.4666     325.4313   1426.79016     414.4666     325.4313
   1426.77490     416.2928     327.2045   1426.77490     416.2928     327.2045
   1426.75964     418.6930     329.2627   1426.75964     418.6930     329.2627
   1426.74438     421.2968     331.4995   1426.74438     421.2968     331.4995
   1426.72913     423.4644     333.1511   1426.72913     423.4644     333.1511
   1426.71387     425.7886     335.1312   1426.71387     425.7886     335.1312
   1426.69861     428.2406     337.7639   1426.69861     428.2406     337.7639
   1426.68335     430.7552     339.3104   1426.68335     430.7552     339.3104
   1426.66809     433.3293     342.0453   1426.66809     433.3293     342.0453
   1426.65283     435.8052     343.8238   1426.65283     435.8052     343.8238
   1426.63757     438.2642     346.1572   1426.63757     438.2642     346.1572
   1426.62231     440.0891     351.0531   1426.62231     440.0891     351.0531
   1426.60706     442.1675     351.3159   1426.60706     442.1675     351.3159
   1426.59180     444.8416     352.1450   1426.59180     444.8416     352.1450
   1426.57654     446.7133     354.3166   1426.57654     446.7133     354.3166
   1426.56128     450.0052     356.5109   1426.56128     450.0052     356.5109
   1426.54602     451.7952     358.2180   1426.54602     451.7952     358.2180
   1426.53076     454.6081     360.1425   1426.53076     454.6081     360.1425
   1426.51550     456.8863     363.1768   1426.51550     456.8863     363.1768
   1426.50024     458.9766     364.5209   1426.50024     458.9766     364.5209
   1426.48499     460.9614     366.1958   1426.48499     460.9614     366.1958
   1426.46973     464.5395     368.6875   1426.46973     464.5395     368.6875
   1426.45447     466.6865     370.6331   1426.45447     466.6865     370.6331
   1426.43921     468.5974     372.8762   1426.43921     468.5974     372.8762
   1426.42395     471.2010     375.6306   1426.42395     471.2010     375.6306
   1426.40869     472.9500     376.9643   1426.40869     472.9500     376.9643
   1426.39343     475.2900     379.0617   1426.39343     475.2900     379.0617
   1426.37817     477.7727     381.5219   1426.37817     477.7727     381.5219
   1426.36292     479.8108     383.5003   1426.36292     479.8108     383.5003
   1426.34766     482.8601     384.8137   1426.34766     482.8601     384.8137
   1426.33240     484.6958     386.5967   1426.33240     484.6958     386.5967
   1426.31714     486.9914     389.0210   1426.31714     486.9914     389.0210
   1426.30188     489.0117     390.8229   1426.30188     489.0117     390.8229
   1426.28662     490.8729     392.7078   1426.28662     490.8729     392.7078
   1426.27136     492.6475     395.2054   1426.27136     492.6475     395.2054
   1426.25610     495.1387     397.2050   1426.25610     495.1387     397.2050
   1426.24084     497.7431     398.5605   1426.24084     497.7431     398.5605
   1426.22559     499.3316     400.2434   1426.22559     499.3316     400.2434
   1426.21033     500.4738     402.6986   1426.21033     500.4738     402.6986
   1426.19507     502.9547     404.5691   1426.19507     502.9547     404.5691
   1426.17981     505.5154     406.5460   1426.17981     505.5154     406.5460
   1426.16455     507.9756     407.8304   1426.16455     507.9756     407.8304
   1426.14929     510.1741     410.5258   1426.14929     510.1741     410.5258
   1426.13403     511.8930     412.3965   1426.13403     511.8930     412.3965
   1426.11877     514.4055     413.7228   1426.11877     514.4055     413.7228
   1426.10352     516.3430     415.2934   1426.10352     516.3430     415.2934
   1426.08826     517.6712     417.7065   1426.08826     517.6712     417.7065
   1426.07300     518.9670     419.7803   1426.07300     518.9670     419.7803
   1426.05774     522.0577     421.5811   1426.05774     522.0577     421.5811
   1426.04248     523.1980     422.7094   1426.04248     523.1980     422.7094
   1426.02722     525.4230     424.7576   1426.02722     525.4230     424.7576
   1426.01196     527.0972     427.3099   1426.01196     527.0972     427.3099
   1425.99670     529.6168     428.0777   1425.99670     529.6168     428.0777
   1425.98145     530.9901     430.0568   1425.98145     530.9901     430.0568
   1425.96619     533.2474     431.5884   1425.96619     533.2474     431.5884
   1425.95093     534.0699     433.2248   1425.95093     534.0699     433.2248
   1425.93567     536.0300     435.2122   1425.93567     536.0300     435.2122
   1425.92041     537.0129     436.8977   1425.92041     537.0129     436.8977
   1425.90515     539.8209     438.1636   1425.90515     539.8209     438.1636
   1425.88989     540.8341     440.1782   1425.88989     540.8341     440.1782
   1425.87463     542.5676     441.9139   1425.87463     542.5676     441.9139
   1425.85938     544.9063     443.9322   1425.85938     544.9063     443.9322
   1425.84412     546.0850     444.9071   1425.84412     546.0850     444.9071
   1425.82886     548.1181     447.2052   1425.82886     548.1181     447.2052
   1425.81360     549.0673     448.5225   1425.81360     549.0673     448.5225
   1425.79834     550.5438     450.5289   1425.79834     550.5438     450.5289
   1425.78308     552.6092     451.6295   1425.78308     552.6092     451.6295
   1425.76782     553.2611     452.8555   1425.76782     553.2611     452.8555
   1425.75256     554.0983     454.8786   1425.75256     554.0983     454.8786
   1425.73730     556.4916     456.2320   1425.73730     556.4916     456.2320
   1425.72205     557.7061     457.1969   1425.72205     557.7061     457.1969
   1425.70679     559.5658     458.5925   1425.70679     559.5658     458.5925
   1425.69153     560.6947     461.1958   1425.69153     560.6947     461.1958
   1425.67627     561.1922     461.7664   1425.67627     561.1922     461.7664
   1425.66101     563.1454     463.8210   1425.66101     563.1454     463.8210
   1425.64575     564.8468     465.4961   1425.64575     564.8468     465.4961
   1425.63049     566.2152     466.2348   1425.63049     566.2152     466.2348
   1425.61523     567.2009     467.7376   1425.61523     567.2009     467.7376
   1425.59998     568.9557     470.3335   1425.59998     568.9557     470.3335
   1425.58472     569.3071     471.7255   1425.58472     569.3071     471.7255
   1425.56946     570.5309     472.5332   1425.56946     570.5309     472.5332
   1425.55420     571.3434     473.3161   1425.55420     571.3434     473.3161
   1425.53894     573.1463     474.9845   1425.53894     573.1463     474.9845
   1425.52368     574.6475     477.3199   1425.52368     574.6475     477.3199
   1425.50842     575.9358     478.2313   1425.50842     575.9358     478.2313
   1425.49316     576.3131     479.2704   1425.49316     576.3131     479.2704
   1425.47791     577.4656     480.3567   1425.47791     577.4656     480.3567
   1425.46265     577.6395     481.9201   1425.46265     577.6395     481.9201
   1425.44739     578.8051     483.0450   1425.44739     578.8051     483.0450
   1425.43213     579.4634     484.3697   1425.43213     579.4634     484.3697
   1425.41687     581.2563     485.2910   1425.41687     581.2563     485.2910
   1425.40161     582.2094     486.2861   1425.40161     582.2094     486.2861
   1425.38635     582.3604     487.5900   1425.38635     582.3604     487.5900
   1425.37109     583.5692     489.2988   1425.37109     583.5692     489.2988
   1425.35583     584.1696     489.9725   1425.35583     584.1696     489.9725
   1425.34058     585.0725     491.7151   1425.34058     585.0725     491.7151
   1425.32532     586.6212     492.9775   1425.32532     586.6212     492.9775
   1425.31006     587.1934     493.9532   1425.31006     587.1934     493.9532
   1425.29480     587.6733     495.4856   1425.29480     587.6733     495.4856
   1425.27954     589.0259     496.4082   1425.27954     589.0259     496.4082
   1425.26428     589.0031     497.5760   1425.26428     589.0031     497.5760
   1425.24902     590.4745     498.2126   1425.24902     590.4745     498.2126
   1425.23376     590.7660     498.7260   1425.23376     590.7660     498.7260
   1425.21851     591.2586     500.9469   1425.21851     591.2586     500.9469
   1425.20325     591.4510     501.2263   1425.20325     591.4510     501.2263
   1425.18799     592.1188     502.8584   1425.18799     592.1188     502.8584
   1425.17273     592.7126     503.6859   1425.17273     592.7126     503.6859
   1425.15747     594.6740     505.3530   1425.15747     594.6740     505.3530
   1425.14221     594.2336     505.9568   1425.14221     594.2336     505.9568
   1425.12695     595.7021     506.7660   1425.12695     595.7021     506.7660
   1425.11169     594.6154     508.3188   1425.11169     594.6154     508.3188
   1425.09644     595.8379     508.6737   1425.09644     595.8379     508.6737
   1425.08118     596.4176     509.5199   1425.08118     596.4176     509.5199
   1425.06592     596.8809     510.1779   1425.06592     596.8809     510.1779
   1425.05066     597.1556     513.1639   1425.05066     597.1556     513.1639
   1425.03540     597.6970     512.0563   1425.03540     597.6970     512.0563
   1425.02014     597.7944     514.0092   1425.02014     597.7944     514.0092
   1425.00488     598.0869     514.9936   1425.00488     598.0869     514.9936
   1424.98962     598.2278     516.0488   1424.98962     598.2278     516.0488
   1424.97437     599.3254     517.0576   1424.97437     599.3254     517.0576
   1424.95911     598.5637     517.5558   1424.95911     598.5637     517.5558
   1424.94385     599.0889     519.0991   1424.94385     599.0889     519.0991
   1424.92859     599.5327     518.6769   1424.92859     599.5327     518.6769
   1424.91333     600.1694     520.2473   1424.91333     600.1694     520.2473
   1424.89807     601.3496     520.8514   1424.89807     601.3496     520.8514
   1424.88281     599.8926     521.9180   1424.88281     599.8926     521.9180
   1424.86755     600.6392     523.5271   1424.86755     600.6392     523.5271
   1424.85229     601.6444     523.9535   1424.85229     601.6444     523.9535
   1424.83704     601.6411     524.2774   1424.83704     601.6411     524.2774
   1424.82178     602.1500     524.8694   1424.82178     602.1500     524.8694
   1424.80652     601.6285     526.3898   1424.80652     601.6285     526.3898
   1424.79126     601.5038     525.6414   1424.79126     601.5038     525.6414
   1424.77600     601.9525     527.1542   1424.77600     601.9525     527.1542
   1424.76074     603.3024     527.5140   1424.76074     603.3024     527.5140
   1424.74548     603.2637     527.8306   1424.74548     603.2637     527.8306
   1424.73022     602.7537     529.1125   1424.73022     602.7537     529.1125
   1424.71497     602.1807     529.8610   1424.71497     602.1807     529.8610
   1424.69971     602.1763     530.9610   1424.69971     602.1763     530.9610
   1424.68445     602.0274     531.7374   1424.68445     602.0274     531.7374
   1424.66919     602.7932     532.0717   1424.66919     602.7932     532.0717
   1424.65393     602.4225     531.9098   1424.65393     602.4225     531.9098
   1424.63867     602.8578     533.6602   1424.63867     602.8578     533.6602
   1424.62341     602.8489     533.4348   1424.62341     602.8489     533.4348
   1424.60815     603.9816     534.8784   1424.60815     603.9816     534.8784
   1424.59290     603.5316     534.7725   1424.59290     603.5316     534.7725
   1424.57764     603.6822     535.6059   1424.57764     603.6822     535.6059
   1424.56238     602.3701     537.2677   1424.56238     602.3701     537.2677
   1424.54712     603.3826     536.6819   1424.54712     603.3826     536.6819
   1424.53186     602.3729     537.7518   1424.53186     602.3729     537.7518
   1424.51660     603.3057     537.9801   1424.51660     603.3057     537.9801
   1424.50134     602.4619     538.3954   1424.50134     602.4619     538.3954
   1424.48608     603.2905     538.8193   1424.48608     603.2905     538.8193
   1424.47083     603.0095     539.2983   1424.47083     603.0095     539.2983
   1424.45557     602.9726     540.9756   1424.45557     602.9726     540.9756
   1424.44031     603.3509     541.0211   1424.44031     603.3509     541.0211
   1424.42505     602.9543     540.7223   1424.42505     602.9543     540.7223
   1424.40979     603.0397     542.1151   1424.40979     603.0397     542.1151
   1424.39453     602.7827     543.0685   1424.39453     602.7827     543.0685
   1424.37927     603.0131     542.6300   1424.37927     603.0131     542.6300
   1424.36401     602.8450     543.5498   1424.36401     602.8450     543.5498
   1424.34875     602.8794     544.3645   1424.34875     602.8794     544.3645
   1424.33350     601.5878     544.2105   1424.33350     601.5878     544.2105
   1424.31824     601.1868     544.3046   1424.31824     601.1868     544.3046
   1424.30298     601.6757     544.3410   1424.30298     601.6757     544.3410
   1424.28772     601.5795     545.9258   1424.28772     601.5795     545.9258
   1424.27246     601.4377     545.5887   1424.27246     601.4377     545.5887
   1424.25720     601.3362     546.5178   1424.25720     601.3362     546.5178
   1424.24194     602.1921     547.0219   1424.24194     602.1921     547.0219
   1424.22668     600.7403     547.0630   1424.22668     600.7403     547.0630
   1424.21143     600.4391     546.9168   1424.21143     600.4391     546.9168
   1424.19617     600.9938     548.7034   1424.19617     600.9938     548.7034
   1424.18091     600.7050     548.2668   1424.18091     600.7050     548.2668
   1424.16565     600.8230     548.7875   1424.16565     600.8230     548.7875
   1424.15039     599.8732     549.1976   1424.15039     599.8732     549.1976
   1424.13513     599.7384     549.4028   1424.13513     599.7384     549.4028
   1424.11987     599.8467     550.1772   1424.11987     599.8467     550.1772
   1424.10461     599.4425     549.7958   1424.10461     599.4425     549.7958
   1424.08936     599.2491     549.9715   1424.08936     599.2491     549.9715
   1424.07410     599.4167     550.3358   1424.07410     599.4167     550.3358
   1424.05884     598.6500     549.5186   1424.05884     598.6500     549.5186
   1424.04358     597.8757     551.1938   1424.04358     597.8757     551.1938
   1424.02832     598.9760     552.1608   1424.02832     598.9760     552.1608
   1424.01306     599.2543     551.3419   1424.01306     599.2543     551.3419
   1423.99780     598.5632     551.7416   1423.99780     598.5632     551.7416
   1423.98254     598.9053     551.9661   1423.98254     598.9053     551.9661
   1423.96729     598.1495     552.1830   1423.96729     598.1495     552.1830
   1423.95203     598.0085     552.0672   1423.95203     598.0085     552.0672
   1423.93677     598.0477     552.6791   1423.93677     598.0477     552.6791
   1423.92151     596.9477     552.3925   1423.92151     596.9477     552.3925
   1423.90625     597.2124     552.3863   1423.90625     597.2124     552.3863
   1423.89099     597.2437     553.0815   1423.89099     597.2437     553.0815
   1423.87573     595.8325     552.6111   1423.87573     595.8325     552.6111
   1423.86047     595.9874     553.1440   1423.86047     595.9874     553.1440
   1423.84521     595.8903     552.9970   1423.84521     595.8903     552.9970
   1423.82996     596.3949     553.3072   1423.82996     596.3949     553.3072
   1423.81470     595.2026     552.5875   1423.81470     595.2026     552.5875
   1423.79944     595.5148     553.0663   1423.79944     595.5148     553.0663
   1423.78418     595.2061     553.1800   1423.78418     595.2061     553.1800
   1423.76892     594.9348     553.3997   1423.76892     594.9348     553.3997
   1423.75366     595.1385     552.9098   1423.75366     595.1385     552.9098
   1423.73840     594.4224     553.0405   1423.73840     594.4224     553.0405
   1423.72314     594.3913     554.2522   1423.72314     594.3913     554.2522
   1423.70789     594.7365     553.4631   1423.70789     594.7365     553.4631
   1423.69263     593.3925     553.5056   1423.69263     593.3925     553.5056
   1423.67737     593.9418     553.3456   1423.67737     593.9418     553.3456
   1423.66211     593.8301     553.6532   1423.66211     593.8301     553.6532
   1423.64685     592.7581     553.0441   1423.64685     592.7581     553.0441
   1423.63159     593.3895     552.0474   1423.63159     593.3895     552.0474
   1423.61633     593.2419     553.7880   1423.61633     593.2419     553.7880
   1423.60107     592.6172     552.9174   1423.60107     592.6172     552.9174
   1423.58582     591.5692     552.5540   1423.58582     591.5692     552.5540
   1423.57056     592.9587     552.5048   1423.57056     592.9587     552.5048
   1423.55530     591.4823     552.5709   1423.55530     591.4823     552.5709
   1423.54004     591.7750     552.6918   1423.54004     591.7750     552.6918
   1423.52478     590.8680     552.8557   1423.52478     590.8680     552.8557
   1423.50952     590.3227     551.8772   1423.50952     590.3227     551.8772
   1423.49426     590.7928     552.1211   1423.49426     590.7928     552.1211
   1423.47900     590.7321     551.9124   1423.47900     590.7321     551.9124
   1423.46375     589.7635     551.6444   1423.46375     589.7635     551.6444
   1423.44849     589.6269     549.9791   1423.44849     589.6269     549.9791
   1423.43323     590.6825     551.8081   1423.43323     590.6825     551.8081
   1423.41797     589.7076     550.6653   1423.41797     589.7076     550.6653
   1423.40271     588.9738     550.5359   1423.40271     588.9738     550.5359
   1423.38745     587.8118     550.6064   1423.38745     587.8118     550.6064
   1423.37219     588.1446     548.7982   1423.37219     588.1446     548.7982
   1423.35693     589.3541     548.9071   1423.35693     589.3541     548.9071
   1423.34167     589.2661     549.3005   1423.34167     589.2661     549.3005
   1423.32642     588.8367     548.3421   1423.32642     588.8367     548.3421
   1423.31116     589.1706     548.2162   1423.31116     589.1706     548.2162
   1423.29590     589.1275     547.7391   1423.29590     589.1275     547.7391
   1423.28064     588.1202     548.3211   1423.28064     588.1202     548.3211
   1423.26538     587.6833     547.6796   1423.26538     587.6833     547.6796
   1423.25012     586.9790     546.7098   1423.25012     586.9790     546.7098
   1423.23486     586.4771     546.1148   1423.23486     586.4771     546.1148
   1423.21960     587.9710     546.4506   1423.21960     587.9710     546.4506
   1423.20435     585.3461     545.3727   1423.20435     585.3461     545.3727
   1423.18909     586.6542     545.3166   1423.18909     586.6542     545.3166
   1423.17383     586.3110     544.7579   1423.17383     586.3110     544.7579
   1423.15857     585.8790     543.5397   1423.15857     585.8790     543.5397
   1423.14331     585.1340     543.5999   1423.14331     585.1340     543.5999
   1423.12805     585.3351     542.6442   1423.12805     585.3351     542.6442
   1423.11279     585.2841     542.2881   1423.11279     585.2841     542.2881
   1423.09753     585.0523     541.2897   1423.09753     585.0523     541.2897
   1423.08228     584.2811     541.1777   1423.08228     584.2811     541.1777
   1423.06702     584.3913     540.6202   1423.06702     584.3913     540.6202
   1423.05176     584.8156     539.6400   1423.05176     584.8156     539.6400
   1423.03650     584.5192     539.0898   1423.03650     584.5192     539.0898
   1423.02124     584.7829     538.9374   1423.02124     584.7829     538.9374
   1423.00598     584.2238     538.0909   1423.00598     584.2238     538.0909
   1422.99072     583.9862     538.0483   1422.99072     583.9862     538.0483
   1422.97546     583.3196     537.3423   1422.97546     583.3196     537.3423
   1422.96021     582.9618     535.7267   1422.96021     582.9618     535.7267
   1422.94495     582.6107     535.5717   1422.94495     582.6107     535.5717
   1422.92969     583.0490     534.9052   1422.92969     583.0490     534.9052
   1422.91443     583.2443     534.4083   1422.91443     583.2443     534.4083
   1422.89917     582.4885     533.3359   1422.89917     582.4885     533.3359
   1422.88391     582.9373     532.6968   1422.88391     582.9373     532.6968
   1422.86865     582.9672     532.7249   1422.86865     582.9672     532.7249
   1422.85339     582.7144     530.7972   1422.85339     582.7144     530.7972
   1422.83813     581.8113     531.0762   1422.83813     581.8113     531.0762
   1422.82288     581.4665     530.4908   1422.82288     581.4665     530.4908
   1422.80762     581.6427     529.1985   1422.80762     581.6427     529.1985
   1422.79236     581.9073     527.7278   1422.79236     581.9073     527.7278
   1422.77710     580.8235     527.4895   1422.77710     580.8235     527.4895
   1422.76184     580.9580     526.1841   1422.76184     580.9580     526.1841
   1422.74658     581.0516     525.6569   1422.74658     581.0516     525.6569
   1422.73132     579.6523     524.5555   1422.73132     579.6523     524.5555
   1422.71606     579.6287     523.9974   1422.71606     579.6287     523.9974
   1422.70081     579.7596     523.1735   1422.70081     579.7596     523.1735
   1422.68555     579.9368     521.9509   1422.68555     579.9368     521.9509
   1422.67029     579.7612     522.0078   1422.67029     579.7612     522.0078
   1422.65503     579.7984     520.4814   1422.65503     579.7984     520.4814
   1422.63977     579.5483     519.4290   1422.63977     579.5483     519.4290
   1422.62451     579.1522     518.8021   1422.62451     579.1522     518.8021
   1422.60925     578.7719     517.5499   1422.60925     578.7719     517.5499
   1422.59399     577.3837     516.7523   1422.59399     577.3837     516.7523
   1422.57874     577.8618     515.1047   1422.57874     577.8618     515.1047
   1422.56348     578.8829     514.8275   1422.56348     578.8829     514.8275
   1422.54822     577.9531     513.7718   1422.54822     577.9531     513.7718
   1422.53296     578.3593     512.9219   1422.53296     578.3593     512.9219
   1422.51770     577.1479     512.1750   1422.51770     577.1479     512.1750
   1422.50244     577.6025     510.4884   1422.50244     577.6025     510.4884
   1422.48718     577.9799     511.1816   1422.48718     577.9799     511.1816
   1422.47192     577.5728     508.5829   1422.47192     577.5728     508.5829
   1422.45667     577.4473     508.9311   1422.45667     577.4473     508.9311
   1422.44141     577.0655     507.0102   1422.44141     577.0655     507.0102
   1422.42615     577.2229     506.1004   1422.42615     577.2229     506.1004
   1422.41089     576.6511     505.0401   1422.41089     576.6511     505.0401
   1422.39563     576.5447     503.8643   1422.39563     576.5447     503.8643
   1422.38037     576.6669     503.3924   1422.38037     576.6669     503.3924
   1422.36511     576.2387     501.7792   1422.36511     576.2387     501.7792
   1422.34985     575.0472     500.1639   1422.34985     575.0472     500.1639
   1422.33459     575.8091     500.3701   1422.33459     575.8091     500.3701
   1422.31934     575.6755     498.4719   1422.31934     575.6755     498.4719
   1422.30408     575.2315     498.6537   1422.30408     575.2315     498.6537
   1422.28882     575.3087     495.7385   1422.28882     575.3087     495.7385
   1422.27356     574.7779     495.3722   1422.27356     574.7779     495.3722
   1422.25830     574.8909     493.6351   1422.25830     574.8909     493.6351
   1422.24304     575.6979     493.5286   1422.24304     575.6979     493.5286
   1422.22778     575.2999     491.3944   1422.22778     575.2999     491.3944
   1422.21252     574.4235     491.0785   1422.21252     574.4235     491.0785
   1422.19727     574.0782     489.9055   1422.19727     574.0782     489.9055
   1422.18201     574.3018     488.4263   1422.18201     574.3018     488.4263
   1422.16675     574.0898     486.9606   1422.16675     574.0898     486.9606
   1422.15149     574.2856     485.9239   1422.15149     574.2856     485.9239
   1422.13623     574.5348     485.4717   1422.13623     574.5348     485.4717
   1422.12097     574.4655     483.9290   1422.12097     574.4655     483.9290
   1422.10571     574.2147     482.4355   1422.10571     574.2147     482.4355
   1422.09045     574.1277     482.0274   1422.09045     574.1277     482.0274
   1422.07520     573.6479     480.8714   1422.07520     573.6479     480.8714
   1422.05994     573.3749     479.2677   1422.05994     573.3749     479.2677
   1422.04468     573.1270     478.5117   1422.04468     573.1270     478.5117
   1422.02942     573.5289     476.4769   1422.02942     573.5289     476.4769
   1422.01416     573.2868     476.0797   1422.01416     573.2868     476.0797
   1421.99890     573.7224     475.4890   1421.99890     573.7224     475.4890
   1421.98364     572.3906     473.2553   1421.98364     572.3906     473.2553
   1421.96838     571.2728     472.3390   1421.96838     571.2728     472.3390
   1421.95312     572.0352     471.1743   1421.95312     572.0352     471.1743
   1421.93787     572.1431     469.2129   1421.93787     572.1431     469.2129
   1421.92261     572.2742     468.5343   1421.92261     572.2742     468.5343
   1421.90735     571.8233     467.8793   1421.90735     571.8233     467.8793
   1421.89209     571.3826     466.0143   1421.89209     571.3826     466.0143
   1421.87683     570.7321     464.5797   1421.87683     570.7321     464.5797
   1421.86157     570.8459     463.2419   1421.86157     570.8459     463.2419
   1421.84631     572.5684     462.4958   1421.84631     572.5684     462.4958
   1421.83105     572.0146     461.4318   1421.83105     572.0146     461.4318
   1421.81580     570.8477     460.4284   1421.81580     570.8477     460.4284
   1421.80054     571.1843     459.0889   1421.80054     571.1843     459.0889
   1421.78528     570.4592     456.8103   1421.78528     570.4592     456.8103
   1421.77002     570.3096     456.8278   1421.77002     570.3096     456.8278
   1421.75476     570.2651     454.9625   1421.75476     570.2651     454.9625
   1421.73950     570.3995     454.1279   1421.73950     570.3995     454.1279
   1421.72424     570.0049     453.4253   1421.72424     570.0049     453.4253
   1421.70898     569.5620     451.8795   1421.70898     569.5620     451.8795
   1421.69373     570.0126     450.9174   1421.69373     570.0126     450.9174
   1421.67847     569.2672     449.3666   1421.67847     569.2672     449.3666
   1421.66321     568.9696     448.0618   1421.66321     568.9696     448.0618
   1421.64795     569.9114     447.4514   1421.64795     569.9114     447.4514
   1421.63269     568.9192     445.9528   1421.63269     568.9192     445.9528
   1421.61743     568.4418     445.1838   1421.61743     568.4418     445.1838
   1421.60217     568.8502     443.7147   1421.60217     568.8502     443.7147
   1421.58691     568.8589     441.8614   1421.58691     568.8589     441.8614
   1421.57166     568.3348     441.6037   1421.57166     568.3348     441.6037
   1421.55640     568.4727     439.7688   1421.55640     568.4727     439.7688
   1421.54114     567.9383     439.0402   1421.54114     567.9383     439.0402
   1421.52588     568.1555     437.6961   1421.52588     568.1555     437.6961
   1421.51062     567.3583     436.4954   1421.51062     567.3583     436.4954
   1421.49536     568.2135     434.7758   1421.49536     568.2135     434.7758
   1421.48010     566.8906     433.3156   1421.48010     566.8906     433.3156
   1421.46484     567.4666     433.1787   1421.46484     567.4666     433.1787
   1421.44958     567.2176     431.3988   1421.44958     567.2176     431.3988
   1421.43433     567.3480     430.4584   1421.43433     567.3480     430.4584
   1421.41907     567.7699     429.5736   1421.41907     567.7699     429.5736
   1421.40381     566.8746     428.4379   1421.40381     566.8746     428.4379
   1421.38855     566.8253     427.0198   1421.38855     566.8253     427.0198
   1421.37329     567.1606     426.3109   1421.37329     567.1606     426.3109
   1421.35803     566.9407     425.7238   1421.35803     566.9407     425.7238
   1421.34277     566.9965     424.8980   1421.34277     566.9965     424.8980
   1421.32751     568.4367     423.5443   1421.32751     568.4367     423.5443
   1421.31226     567.9637     422.7546   1421.31226     567.9637     422.7546
   1421.29700     567.9149     422.5792   1421.29700     567.9149     422.5792
   1421.28174     569.2747     421.3938   1421.28174     569.2747     421.3938
   1421.26648     570.0210     420.9973   1421.26648     570.0210     420.9973
   1421.25122     571.2974     421.4669   1421.25122     571.2974     421.4669
   1421.23596     572.8025     421.5225   1421.23596     572.8025     421.5225
   1421.22070     573.1713     420.1027   1421.22070     573.1713     420.1027
   1421.20544     573.3444     419.8957   1421.20544     573.3444     419.8957
   1421.19019     574.5113     418.4890   1421.19019     574.5113     418.4890
   1421.17493     572.8938     418.0514   1421.17493     572.8938     418.0514
   1421.15967     573.6275     417.6423   1421.15967     573.6275     417.6423
   1421.14441     574.7557     416.7580   1421.14441     574.7557     416.7580
   1421.12915     576.7440     416.9265   1421.12915     576.7440     416.9265
   1421.11389     579.9278     418.7226   1421.11389     579.9278     418.7226
   1421.09863     587.0477     422.4366   1421.09863     587.0477     422.4366
   1421.08337     598.7001     429.3501   1421.08337     598.7001     429.3501
   1421.06812     617.9046     441.6892   1421.06812     617.9046     441.6892
   1421.05286     635.2800     452.7544   1421.05286     635.2800     452.7544
   1421.03760     636.5711     453.3453   1421.03760     636.5711     453.3453
   1421.02234     639.0860     453.7062   1421.02234     639.0860     453.7062
   1421.00708     655.0746     463.7926   1421.00708     655.0746     463.7926
   1420.99182     686.5605     484.5570   1420.99182     686.5605     484.5570
   1420.97656     721.7229     507.8499   1420.97656     721.7229     507.8499
   1420.96130     765.0163     536.0641   1420.96130     765.0163     536.0641
   1420.94604     780.9814     545.6396   1420.94604     780.9814     545.6396
   1420.93079     736.5251     514.9427   1420.93079     736.5251     514.9427
   1420.91553     705.9591     492.2517   1420.91553     705.9591     492.2517
   1420.90027     699.0497     487.0604   1420.90027     699.0497     487.0604
   1420.88501     706.7257     490.9389   1420.88501     706.7257     490.9389
   1420.86975     702.9095     486.6208   1420.86975     702.9095     486.6208
   1420.85449     692.2598     478.4799   1420.85449     692.2598     478.4799
   1420.83923     706.7276     487.7519   1420.83923     706.7276     487.7519
   1420.82397     765.4365     525.9989   1420.82397     765.4365     525.9989
   1420.80872     911.8934     623.9557   1420.80872     911.8934     623.9557
   1420.79346    1139.8138     774.8066   1420.79346    1139.8138     774.8066
   1420.77820    1223.9541     830.4227   1420.77820    1223.9541     830.4227
   1420.76294    1264.2487     855.3975   1420.76294    1264.2487     855.3975
   1420.74768    1295.7687     871.7151   1420.74768    1295.7687     871.7151
   1420.73242    1368.2513     917.6584   1420.73242    1368.2513     917.6584
   1420.71716    1408.9425     945.0775   1420.71716    1408.9425     945.0775
   1420.70190    1410.4402     942.7385   1420.70190    1410.4402     942.7385
   1420.68665    1342.8125     895.7072   1420.68665    1342.8125     895.7072
   1420.67139    1170.8496     783.3701   1420.67139    1170.8496     783.3701
   1420.65613     976.9998     656.0628   1420.65613     976.9998     656.0628
   1420.64087     839.3467     563.0858   1420.64087     839.3467     563.0858
   1420.62561     783.1649     523.5999   1420.62561     783.1649     523.5999
   1420.61035     786.8237     524.6122   1420.61035     786.8237     524.6122
   1420.59509     845.4318     561.7850   1420.59509     845.4318     561.7850
   1420.57983    1026.6503     680.3912   1420.57983    1026.6503     680.3912
   1420.56458    1274.9635     839.3496   1420.56458    1274.9635     839.3496
   1420.54932    1368.6903     897.4016   1420.54932    1368.6903     897.4016
   1420.53406    1352.1190     885.4994   1420.53406    1352.1190     885.4994
   1420.51880    1330.1562     869.3583   1420.51880    1330.1562     869.3583
   1420.50354    1414.4197     921.7679   1420.50354    1414.4197     921.7679
   1420.48828    1426.4893     927.8730   1420.48828    1426.4893     927.8730
   1420.47302    1105.6396     718.8793   1420.47302    1105.6396     718.8793
   1420.45776     877.0993     571.7764   1420.45776     877.0993     571.7764
   1420.44250     743.2713     484.9263   1420.44250     743.2713     484.9263
   1420.42725     663.4631     433.9141   1420.42725     663.4631     433.9141
   1420.41199     617.0939     403.1071   1420.41199     617.0939     403.1071
   1420.39673     593.3204     388.1882   1420.39673     593.3204     388.1882
   1420.38147     580.7163     379.5813   1420.38147     580.7163     379.5813
   1420.36621     574.5494     374.2310   1420.36621     574.5494     374.2310
   1420.35095     569.4086     371.2500   1420.35095     569.4086     371.2500
   1420.33569     567.5439     368.4125   1420.33569     567.5439     368.4125
   1420.32043     565.9285     367.6539   1420.32043     565.9285     367.6539
   1420.30518     564.3560     366.0185   1420.30518     564.3560     366.0185
   1420.28992     564.0571     365.0299   1420.28992     564.0571     365.0299
   1420.27466     562.1993     363.2641   1420.27466     562.1993     363.2641
   1420.25940     563.1708     363.5067   1420.25940     563.1708     363.5067
   1420.24414     562.7847     362.1700   1420.24414     562.7847     362.1700
   1420.22888     561.8387     361.3145   1420.22888     561.8387     361.3145
   1420.21362     561.9736     360.2621   1420.21362     561.9736     360.2621
   1420.19836     560.5963     359.5941   1420.19836     560.5963     359.5941
   1420.18311     560.1884     358.5166   1420.18311     560.1884     358.5166
   1420.16785     560.4673     357.6517   1420.16785     560.4673     357.6517
   1420.15259     559.4628     356.8531   1420.15259     559.4628     356.8531
   1420.13733     559.0908     356.3438   1420.13733     559.0908     356.3438
   1420.12207     557.9476     354.7957   1420.12207     557.9476     354.7957
   1420.10681     557.8063     354.0987   1420.10681     557.8063     354.0987
   1420.09155     557.3480     353.4489   1420.09155     557.3480     353.4489
   1420.07629     556.6050     352.1640   1420.07629     556.6050     352.1640
   1420.06104     556.7512     351.9362   1420.06104     556.7512     351.9362
   1420.04578     556.9954     351.8523   1420.04578     556.9954     351.8523
   1420.03052     555.9173     351.2205   1420.03052     555.9173     351.2205
   1420.01526     559.0280     351.3629   1420.01526     559.0280     351.3629
   1420.00000     558.8478     351.8651   1420.00000     558.8478     351.8651
   1419.98474     558.6675     352.3670   1419.98474     558.6675     352.3670
   1419.96948     560.4001     350.3680   1419.96948     560.4001     350.3680
   1419.95422     556.4819     349.0054   1419.95422     556.4819     349.0054
   1419.93896     557.1172     348.1404   1419.93896     557.1172     348.1404
   1419.92371     556.0329     347.3135   1419.92371     556.0329     347.3135
   1419.90845     557.0908     347.6411   1419.90845     557.0908     347.6411
   1419.89319     556.5191     346.9987   1419.89319     556.5191     346.9987
   1419.87793     556.2689     346.6823   1419.87793     556.2689     346.6823
   1419.86267     556.1684     346.0559   1419.86267     556.1684     346.0559
   1419.84741     556.5995     345.6062   1419.84741     556.5995     345.6062
   1419.83215     557.0682     345.7345   1419.83215     557.0682     345.7345
   1419.81689     556.1524     345.2509   1419.81689     556.1524     345.2509
   1419.80164     556.9460     344.7565   1419.80164     556.9460     344.7565
   1419.78638     558.0116     345.2607   1419.78638     558.0116     345.2607
   1419.77112     557.3135     344.3330   1419.77112     557.3135     344.3330
   1419.75586     558.3585     344.5267   1419.75586     558.3585     344.5267
   1419.74060     558.2280     343.9628   1419.74060     558.2280     343.9628
   1419.72534     558.0345     343.8609   1419.72534     558.0345     343.8609
   1419.71008     558.7900     343.0016   1419.71008     558.7900     343.0016
   1419.69482     558.6871     343.1623   1419.69482     558.6871     343.1623
   1419.67957     558.5869     342.9793   1419.67957     558.5869     342.9793
   1419.66431     558.1100     342.9319   1419.66431     558.1100     342.9319
   1419.64905     559.0231     341.9110   1419.64905     559.0231     341.9110
   1419.63379     558.4993     341.7473   1419.63379     558.4993     341.7473
   1419.61853     558.8730     341.9322   1419.61853     558.8730     341.9322
   1419.60327     559.1842     341.5070   1419.60327     559.1842     341.5070
   1419.58801     559.7966     342.2249   1419.58801     559.7966     342.2249
   1419.57275     559.4398     341.9297   1419.57275     559.4398     341.9297
   1419.55750     561.4205     341.4039   1419.55750     561.4205     341.4039
   1419.54224     560.8148     341.6164   1419.54224     560.8148     341.6164
   1419.52698     561.0420     341.7418   1419.52698     561.0420     341.7418
   1419.51172     561.3023     340.9907   1419.51172     561.3023     340.9907
   1419.49646     560.8829     341.5482   1419.49646     560.8829     341.5482
   1419.48120     561.2369     340.8722   1419.48120     561.2369     340.8722
   1419.46594     562.6450     340.8616   1419.46594     562.6450     340.8616
   1419.45068     561.6614     340.9524   1419.45068     561.6614     340.9524
   1419.43542     561.5212     340.8627   1419.43542     561.5212     340.8627
   1419.42017     563.0775     340.7184   1419.42017     563.0775     340.7184
   1419.40491     563.5121     340.9710   1419.40491     563.5121     340.9710
   1419.38965     562.0021     340.4745   1419.38965     562.0021     340.4745
   1419.37439     563.1611     341.3735   1419.37439     563.1611     341.3735
   1419.35913     563.6223     341.5329   1419.35913     563.6223     341.5329
   1419.34387     564.2114     340.9702   1419.34387     564.2114     340.9702
   1419.32861     564.8153     340.9905   1419.32861     564.8153     340.9905
   1419.31335     563.8745     341.0743   1419.31335     563.8745     341.0743
   1419.29810     564.3894     341.0133   1419.29810     564.3894     341.0133
   1419.28284     565.5393     341.0060   1419.28284     565.5393     341.0060
   1419.26758     564.9988     341.3648   1419.26758     564.9988     341.3648
   1419.25232     566.0569     341.2323   1419.25232     566.0569     341.2323
   1419.23706     565.6077     340.9721   1419.23706     565.6077     340.9721
   1419.22180     567.0052     341.7323   1419.22180     567.0052     341.7323
   1419.20654     567.2227     341.2315   1419.20654     567.2227     341.2315
   1419.19128     568.2618     341.2528   1419.19128     568.2618     341.2528
   1419.17603     568.1403     341.7729   1419.17603     568.1403     341.7729
   1419.16077     568.5534     341.7496   1419.16077     568.5534     341.7496
   1419.14551     568.2776     341.9120   1419.14551     568.2776     341.9120
   1419.13025     569.2566     342.2866   1419.13025     569.2566     342.2866
   1419.11499     569.8956     342.3447   1419.11499     569.8956     342.3447
   1419.09973     570.3884     342.3445   1419.09973     570.3884     342.3445
   1419.08447     569.6606     342.6247   1419.08447     569.6606     342.6247
   1419.06921     570.3722     343.0559   1419.06921     570.3722     343.0559
   1419.05396     571.8276     342.8512   1419.05396     571.8276     342.8512
   1419.03870     571.1959     342.6704   1419.03870     571.1959     342.6704
   1419.02344     572.5302     343.0078   1419.02344     572.5302     343.0078
   1419.00818     571.8780     343.1023   1419.00818     571.8780     343.1023
   1418.99292     573.1450     343.8027   1418.99292     573.1450     343.8027
   1418.97766     573.4178     344.1892   1418.97766     573.4178     344.1892
   1418.96240     574.8309     344.0460   1418.96240     574.8309     344.0460
   1418.94714     574.6073     344.3351   1418.94714     574.6073     344.3351
   1418.93188     574.6350     344.6302   1418.93188     574.6350     344.6302
   1418.91663     575.6311     345.1518   1418.91663     575.6311     345.1518
   1418.90137     575.4373     345.5533   1418.90137     575.4373     345.5533
   1418.88611     576.6588     345.1552   1418.88611     576.6588     345.1552
   1418.87085     577.1876     345.6319   1418.87085     577.1876     345.6319
   1418.85559     577.3269     345.9020   1418.85559     577.3269     345.9020
   1418.84033     576.9814     345.8925   1418.84033     576.9814     345.8925
   1418.82507     578.3234     346.7724   1418.82507     578.3234     346.7724
   1418.80981     577.9973     346.8427   1418.80981     577.9973     346.8427
   1418.79456     578.9673     346.8683   1418.79456     578.9673     346.8683
   1418.77930     580.2653     346.9875   1418.77930     580.2653     346.9875
   1418.76404     580.2405     347.5815   1418.76404     580.2405     347.5815
   1418.74878     580.3034     348.1626   1418.74878     580.3034     348.1626
   1418.73352     581.4832     349.1436   1418.73352     581.4832     349.1436
   1418.71826     582.2789     348.4818   1418.71826     582.2789     348.4818
   1418.70300     582.9059     348.9939   1418.70300     582.9059     348.9939
   1418.68774     581.9487     349.6899   1418.68774     581.9487     349.6899
   1418.67249     585.0880     349.6789   1418.67249     585.0880     349.6789
   1418.65723     585.2808     350.3277   1418.65723     585.2808     350.3277
   1418.64197     584.3457     350.3065   1418.64197     584.3457     350.3065
   1418.62671     585.0121     351.2620   1418.62671     585.0121     351.2620
   1418.61145     587.1524     351.4615   1418.61145     587.1524     351.4615
   1418.59619     586.8174     351.3664   1418.59619     586.8174     351.3664
   1418.58093     587.4728     352.6388   1418.58093     587.4728     352.6388
   1418.56567     587.9211     353.1123   1418.56567     587.9211     353.1123
   1418.55042     588.5168     353.0195   1418.55042     588.5168     353.0195
   1418.53516     588.8396     353.7636   1418.53516     588.8396     353.7636
   1418.51990     589.4131     354.4730   1418.51990     589.4131     354.4730
   1418.50464     590.8317     354.4420   1418.50464     590.8317     354.4420
   1418.48938     591.4630     355.0496   1418.48938     591.4630     355.0496
   1418.47412     592.3372     355.3608   1418.47412     592.3372     355.3608
   1418.45886     592.6312     355.8479   1418.45886     592.6312     355.8479
   1418.44360     593.6085     356.6862   1418.44360     593.6085     356.6862
   1418.42834     593.8947     356.7526   1418.42834     593.8947     356.7526
   1418.41309     594.8082     357.5450   1418.41309     594.8082     357.5450
   1418.39783     595.4215     357.9910   1418.39783     595.4215     357.9910
   1418.38257     595.6542     358.0800   1418.38257     595.6542     358.0800
   1418.36731     596.6215     359.1955   1418.36731     596.6215     359.1955
   1418.35205     596.8207     359.4407   1418.35205     596.8207     359.4407
   1418.33679     597.7910     360.0296   1418.33679     597.7910     360.0296
   1418.32153     598.9003     360.5633   1418.32153     598.9003     360.5633
   1418.30627     599.5429     360.8208   1418.30627     599.5429     360.8208
   1418.29102     600.4916     361.3557   1418.29102     600.4916     361.3557
   1418.27576     600.4694     361.6862   1418.27576     600.4694     361.6862
   1418.26050     602.1389     362.2430   1418.26050     602.1389     362.2430
   1418.24524     602.9664     363.1618   1418.24524     602.9664     363.1618
   1418.22998     603.7853     364.1387   1418.22998     603.7853     364.1387
   1418.21472     603.6637     364.2339   1418.21472     603.6637     364.2339
   1418.19946     604.9338     365.2715   1418.19946     604.9338     365.2715
   1418.18420     604.9759     365.6410   1418.18420     604.9759     365.6410
   1418.16895     605.8054     366.1007   1418.16895     605.8054     366.1007
   1418.15369     608.0917     366.7477   1418.15369     608.0917     366.7477
   1418.13843     607.7860     367.2860   1418.13843     607.7860     367.2860
   1418.12317     608.2208     367.9362   1418.12317     608.2208     367.9362
   1418.10791     609.7123     368.6283   1418.10791     609.7123     368.6283
   1418.09265     610.5399     369.2261   1418.09265     610.5399     369.2261
   1418.07739     610.7918     369.6783   1418.07739     610.7918     369.6783
   1418.06213     611.2081     370.6188   1418.06213     611.2081     370.6188
   1418.04688     610.9956     370.6626   1418.04688     610.9956     370.6626
   1418.03162     613.2282     371.6171   1418.03162     613.2282     371.6171
   1418.01636     614.5569     371.7998   1418.01636     614.5569     371.7998
   1418.00110     614.7390     372.9307   1418.00110     614.7390     372.9307
   1417.98584     616.1957     373.1867   1417.98584     616.1957     373.1867
   1417.97058     616.6600     374.2270   1417.97058     616.6600     374.2270
   1417.95532     617.6309     374.3464   1417.95532     617.6309     374.3464
   1417.94006     617.8846     374.8420   1417.94006     617.8846     374.8420
   1417.92480     619.1504     375.4526   1417.92480     619.1504     375.4526
   1417.90955     619.5995     376.6407   1417.90955     619.5995     376.6407
   1417.89429     620.1877     376.8637   1417.89429     620.1877     376.8637
   1417.87903     621.7082     377.7106   1417.87903     621.7082     377.7106
   1417.86377     622.4008     378.2263   1417.86377     622.4008     378.2263
   1417.84851     624.2247     379.0675   1417.84851     624.2247     379.0675
   1417.83325     623.5602     379.2307   1417.83325     623.5602     379.2307
   1417.81799     624.8994     380.3423   1417.81799     624.8994     380.3423
   1417.80273     625.4742     381.0984   1417.80273     625.4742     381.0984
   1417.78748     627.3355     381.6538   1417.78748     627.3355     381.6538
   1417.77222     627.3263     382.9163   1417.77222     627.3263     382.9163
   1417.75696     627.8327     383.4637   1417.75696     627.8327     383.4637
   1417.74170     629.2034     383.9405   1417.74170     629.2034     383.9405
   1417.72644     629.9595     384.4793   1417.72644     629.9595     384.4793
   1417.71118     630.2400     384.8977   1417.71118     630.2400     384.8977
   1417.69592     631.5477     386.1824   1417.69592     631.5477     386.1824
   1417.68066     632.7492     386.5744   1417.68066     632.7492     386.5744
   1417.66541     632.7256     386.6716   1417.66541     632.7256     386.6716
   1417.65015     634.4794     387.5179   1417.65015     634.4794     387.5179
   1417.63489     634.9036     388.4815   1417.63489     634.9036     388.4815
   1417.61963     636.2726     389.7555   1417.61963     636.2726     389.7555
   1417.60437     636.0349     389.5934   1417.60437     636.0349     389.5934
   1417.58911     636.8611     390.0201   1417.58911     636.8611     390.0201
   1417.57385     637.9426     391.0723   1417.57385     637.9426     391.0723
   1417.55859     639.5798     391.7708   1417.55859     639.5798     391.7708
   1417.54333     639.7786     392.8412   1417.54333     639.7786     392.8412
   1417.52808     640.4101     393.6178   1417.52808     640.4101     393.6178
   1417.51282     640.6758     393.2692   1417.51282     640.6758     393.2692
   1417.49756     643.2590     394.5056   1417.49756     643.2590     394.5056
   1417.48230     643.2805     395.0969   1417.48230     643.2805     395.0969
   1417.46704     644.7743     395.2850   1417.46704     644.7743     395.2850
   1417.45178     646.0947     397.0034   1417.45178     646.0947     397.0034
   1417.43652     645.2723     396.9511   1417.43652     645.2723     396.9511
   1417.42126     646.8472     398.0027   1417.42126     646.8472     398.0027
   1417.40601     645.9216     398.9321   1417.40601     645.9216     398.9321
   1417.39075     649.1089     399.8036   1417.39075     649.1089     399.8036
   1417.37549     648.9802     399.9041   1417.37549     648.9802     399.9041
   1417.36023     649.7294     400.2101   1417.36023     649.7294     400.2101
   1417.34497     649.7789     400.9683   1417.34497     649.7789     400.9683
   1417.32971     650.9305     401.7473   1417.32971     650.9305     401.7473
   1417.31445     651.7231     402.1607   1417.31445     651.7231     402.1607
   1417.29919     653.1039     403.2419   1417.29919     653.1039     403.2419
   1417.28394     653.9064     403.1677   1417.28394     653.9064     403.1677
   1417.26868     653.8658     403.9460   1417.26868     653.8658     403.9460
   1417.25342     654.8532     405.0889   1417.25342     654.8532     405.0889
   1417.23816     655.5844     405.8682   1417.23816     655.5844     405.8682
   1417.22290     656.3794     406.8023   1417.22290     656.3794     406.8023
   1417.20764     657.5799     407.2266   1417.20764     657.5799     407.2266
   1417.19238     658.3939     407.5282   1417.19238     658.3939     407.5282
   1417.17712     658.5030     407.6084   1417.17712     658.5030     407.6084
   1417.16187     658.9428     408.7834   1417.16187     658.9428     408.7834
   1417.14661     660.2336     409.1946   1417.14661     660.2336     409.1946
   1417.13135     660.0293     410.1535   1417.13135     660.0293     410.1535
   1417.11609     661.2914     409.7922   1417.11609     661.2914     409.7922
   1417.10083     662.0956     410.5614   1417.10083     662.0956     410.5614
   1417.08557     662.8790     411.8894   1417.08557     662.8790     411.8894
   1417.07031     663.3279     411.3885   1417.07031     663.3279     411.3885
   1417.05505     663.3285     412.6055   1417.05505     663.3285     412.6055
   1417.03979     665.5120     413.3925   1417.03979     665.5120     413.3925
   1417.02454     665.2948     413.8806   1417.02454     665.2948     413.8806
   1417.00928     666.3666     413.9963   1417.00928     666.3666     413.9963
   1416.99402     666.4800     414.2563   1416.99402     666.4800     414.2563
   1416.97876     666.7745     415.3251   1416.97876     666.7745     415.3251
   1416.96350     667.4369     415.2541   1416.96350     667.4369     415.2541
   1416.94824     669.2573     416.4457   1416.94824     669.2573     416.4457
   1416.93298     669.3908     417.1550   1416.93298     669.3908     417.1550
   1416.91772     669.6246     416.9235   1416.91772     669.6246     416.9235
   1416.90247     670.8272     417.5770   1416.90247     670.8272     417.5770
   1416.88721     670.1384     417.8736   1416.88721     670.1384     417.8736
   1416.87195     670.9946     418.3048   1416.87195     670.9946     418.3048
   1416.85669     670.7924     418.7002   1416.85669     670.7924     418.7002
   1416.84143     671.1678     419.1902   1416.84143     671.1678     419.1902
   1416.82617     672.4276     420.3307   1416.82617     672.4276     420.3307
   1416.81091     671.8802     420.3983   1416.81091     671.8802     420.3983
   1416.79565     673.2934     420.5754   1416.79565     673.2934     420.5754
   1416.78040     674.2524     421.1780   1416.78040     674.2524     421.1780
   1416.76514     674.0588     421.0956   1416.76514     674.0588     421.0956
   1416.74988     673.9672     421.4016   1416.74988     673.9672     421.4016
   1416.73462     674.4973     421.8511   1416.73462     674.4973     421.8511
   1416.71936     675.0552     422.3311   1416.71936     675.0552     422.3311
   1416.70410     675.8898     422.5896   1416.70410     675.8898     422.5896
   1416.68884     675.6793     422.7856   1416.68884     675.6793     422.7856
   1416.67358     677.0662     423.0268   1416.67358     677.0662     423.0268
   1416.65833     677.3348     423.8648   1416.65833     677.3348     423.8648
   1416.64307     677.4015     424.1246   1416.64307     677.4015     424.1246
   1416.62781     676.8891     423.4884   1416.62781     676.8891     423.4884
   1416.61255     677.4794     424.1001   1416.61255     677.4794     424.1001
   1416.59729     677.7580     423.6994   1416.59729     677.7580     423.6994
   1416.58203     678.6016     424.6096   1416.58203     678.6016     424.6096
   1416.56677     678.1137     424.6557   1416.56677     678.1137     424.6557
   1416.55151     677.9078     424.3477   1416.55151     677.9078     424.3477
   1416.53625     678.5236     424.9115   1416.53625     678.5236     424.9115
   1416.52100     678.9874     425.1717   1416.52100     678.9874     425.1717
   1416.50574     679.5566     425.3909   1416.50574     679.5566     425.3909
   1416.49048     679.5114     425.6370   1416.49048     679.5114     425.6370
   1416.47522     678.0298     425.4185   1416.47522     678.0298     425.4185
   1416.45996     679.5912     424.7916   1416.45996     679.5912     424.7916
   1416.44470     680.3850     425.2900   1416.44470     680.3850     425.2900
   1416.42944     680.6390     425.6550   1416.42944     680.6390     425.6550
   1416.41418     680.1182     425.9834   1416.41418     680.1182     425.9834
   1416.39893     680.3019     425.8083   1416.39893     680.3019     425.8083
   1416.38367     680.1235     426.1444   1416.38367     680.1235     426.1444
   1416.36841     679.5474     425.4884   1416.36841     679.5474     425.4884
   1416.35315     679.2718     425.7358   1416.35315     679.2718     425.7358
   1416.33789     680.1469     425.4120   1416.33789     680.1469     425.4120
   1416.32263     679.5268     425.9533   1416.32263     679.5268     425.9533
   1416.30737     679.6848     425.3949   1416.30737     679.6848     425.3949
   1416.29211     680.4670     425.5787   1416.29211     680.4670     425.5787
   1416.27686     679.9469     424.9409   1416.27686     679.9469     424.9409
   1416.26160     679.6566     426.3242   1416.26160     679.6566     426.3242
   1416.24634     679.3620     425.3430   1416.24634     679.3620     425.3430
   1416.23108     679.0575     425.8943   1416.23108     679.0575     425.8943
   1416.21582     679.4584     425.6769   1416.21582     679.4584     425.6769
   1416.20056     679.9015     424.6411   1416.20056     679.9015     424.6411
   1416.18530     679.5292     425.6206   1416.18530     679.5292     425.6206
   1416.17004     680.3516     424.3802   1416.17004     680.3516     424.3802
   1416.15479     679.7305     425.0307   1416.15479     679.7305     425.0307
   1416.13953     677.9573     424.1638   1416.13953     677.9573     424.1638
   1416.12427     678.7439     424.9320   1416.12427     678.7439     424.9320
   1416.10901     677.9885     424.4583   1416.10901     677.9885     424.4583
   1416.09375     677.9405     424.5774   1416.09375     677.9405     424.5774
   1416.07849     677.8616     425.4002   1416.07849     677.8616     425.4002
   1416.06323     678.2688     423.4883   1416.06323     678.2688     423.4883
   1416.04797     678.9899     423.3325   1416.04797     678.9899     423.3325
   1416.03271     678.6078     423.1539   1416.03271     678.6078     423.1539
   1416.01746     676.3291     423.2737   1416.01746     676.3291     423.2737
   1416.00220     677.4608     423.6456   1416.00220     677.4608     423.6456
   1415.98694     676.7850     422.9156   1415.98694     676.7850     422.9156
   1415.97168     676.5674     422.4253   1415.97168     676.5674     422.4253
   1415.95642     676.4946     423.1492   1415.95642     676.4946     423.1492
   1415.94116     675.7279     421.9359   1415.94116     675.7279     421.9359
   1415.92590     675.3710     422.0572   1415.92590     675.3710     422.0572
   1415.91064     674.4850     421.3986   1415.91064     674.4850     421.3986
   1415.89539     674.2401     421.8657   1415.89539     674.2401     421.8657
   1415.88013     674.0471     421.9839   1415.88013     674.0471     421.9839
   1415.86487     673.4061     421.2689   1415.86487     673.4061     421.2689
   1415.84961     673.0279     420.6320   1415.84961     673.0279     420.6320
   1415.83435     672.4116     420.5026   1415.83435     672.4116     420.5026
   1415.81909     671.9087     420.4648   1415.81909     671.9087     420.4648
   1415.80383     671.6624     419.6974   1415.80383     671.6624     419.6974
   1415.78857     671.7534     419.5814   1415.78857     671.7534     419.5814
   1415.77332     671.5580     418.4016   1415.77332     671.5580     418.4016
   1415.75806     670.0967     419.1914   1415.75806     670.0967     419.1914
   1415.74280     670.6321     419.1199   1415.74280     670.6321     419.1199
   1415.72754     669.0084     418.9375   1415.72754     669.0084     418.9375
   1415.71228     670.2649     418.1540   1415.71228     670.2649     418.1540
   1415.69702     668.6198     418.2322   1415.69702     668.6198     418.2322
   1415.68176     668.9686     418.0674   1415.68176     668.9686     418.0674
   1415.66650     667.7512     417.7521   1415.66650     667.7512     417.7521
   1415.65125     668.0735     417.0756   1415.65125     668.0735     417.0756
   1415.63599     666.6351     416.9145   1415.63599     666.6351     416.9145
   1415.62073     665.2115     416.6189   1415.62073     665.2115     416.6189
   1415.60547     665.3383     416.4867   1415.60547     665.3383     416.4867
   1415.59021     664.4242     415.6938   1415.59021     664.4242     415.6938
   1415.57495     663.0728     414.9790   1415.57495     663.0728     414.9790
   1415.55969     663.1951     414.9912   1415.55969     663.1951     414.9912
   1415.54443     662.4699     414.3040   1415.54443     662.4699     414.3040
   1415.52917     660.7078     414.1734   1415.52917     660.7078     414.1734
   1415.51392     661.2941     413.8025   1415.51392     661.2941     413.8025
   1415.49866     659.8234     413.1581   1415.49866     659.8234     413.1581
   1415.48340     659.2872     412.6142   1415.48340     659.2872     412.6142
   1415.46814     658.4368     412.8468   1415.46814     658.4368     412.8468
   1415.45288     658.0131     412.6188   1415.45288     658.0131     412.6188
   1415.43762     656.1144     412.1343   1415.43762     656.1144     412.1343
   1415.42236     656.3208     411.2814   1415.42236     656.3208     411.2814
   1415.40710     654.1784     410.5069   1415.40710     654.1784     410.5069
   1415.39185     654.3552     410.4629   1415.39185     654.3552     410.4629
   1415.37659     655.0248     410.0237   1415.37659     655.0248     410.0237
   1415.36133     652.9376     409.5809   1415.36133     652.9376     409.5809
   1415.34607     652.4597     409.3899   1415.34607     652.4597     409.3899
   1415.33081     651.1660     409.6537   1415.33081     651.1660     409.6537
   1415.31555     651.0942     408.8377   1415.31555     651.0942     408.8377
   1415.30029     648.6622     407.4051   1415.30029     648.6622     407.4051
   1415.28503     648.2917     407.4358   1415.28503     648.2917     407.4358
   1415.26978     646.5829     406.9425   1415.26978     646.5829     406.9425
   1415.25452     646.9254     406.8507   1415.25452     646.9254     406.8507
   1415.23926     644.4749     405.1842   1415.23926     644.4749     405.1842
   1415.22400     643.7269     405.2643   1415.22400     643.7269     405.2643
   1415.20874     642.9643     405.4448   1415.20874     642.9643     405.4448
   1415.19348     642.2219     404.2628   1415.19348     642.2219     404.2628
   1415.17822     641.1714     404.8958   1415.17822     641.1714     404.8958
   1415.16296     639.7764     403.0577   1415.16296     639.7764     403.0577
   1415.14771     638.3197     402.8420   1415.14771     638.3197     402.8420
   1415.13245     636.2766     402.7669   1415.13245     636.2766     402.7669
   1415.11719     636.6233     402.1472   1415.11719     636.6233     402.1472
   1415.10193     634.8328     400.9525   1415.10193     634.8328     400.9525
   1415.08667     634.0255     401.1092   1415.08667     634.0255     401.1092
   1415.07141     632.7256     399.8551   1415.07141     632.7256     399.8551
   1415.05615     632.1390     398.8296   1415.05615     632.1390     398.8296
   1415.04089     630.1760     398.3151   1415.04089     630.1760     398.3151
   1415.02563     628.7129     398.1113   1415.02563     628.7129     398.1113
   1415.01038     627.0805     397.5777   1415.01038     627.0805     397.5777
   1414.99512     626.7552     397.0370   1414.99512     626.7552     397.0370
   1414.97986     624.5904     396.5340   1414.97986     624.5904     396.5340
   1414.96460     622.0844     395.9245   1414.96460     622.0844     395.9245
   1414.94934     622.4172     395.0670   1414.94934     622.4172     395.0670
   1414.93408     620.1849     394.1303   1414.93408     620.1849     394.1303
   1414.91882     620.4340     393.4133   1414.91882     620.4340     393.4133
   1414.90356     617.3587     392.9833   1414.90356     617.3587     392.9833
   1414.88831     615.3038     392.0723   1414.88831     615.3038     392.0723
   1414.87305     614.0225     391.5353   1414.87305     614.0225     391.5353
   1414.85779     612.6829     391.1288   1414.85779     612.6829     391.1288
   1414.84253     611.3132     389.6420   1414.84253     611.3132     389.6420
   1414.82727     609.8669     389.3519   1414.82727     609.8669     389.3519
   1414.81201     609.0281     388.8501   1414.81201     609.0281     388.8501
   1414.79675     605.8286     387.5768   1414.79675     605.8286     387.5768
   1414.78149     605.1176     387.1200   1414.78149     605.1176     387.1200
   1414.76624     603.9625     385.7311   1414.76624     603.9625     385.7311
   1414.75098     601.0334     385.1409   1414.75098     601.0334     385.1409
   1414.73572     599.6583     384.6133   1414.73572     599.6583     384.6133
   1414.72046     597.8618     384.0516   1414.72046     597.8618     384.0516
   1414.70520     597.2336     382.8738   1414.70520     597.2336     382.8738
   1414.68994     594.9355     381.6441   1414.68994     594.9355     381.6441
   1414.67468     593.6009     381.2185   1414.67468     593.6009     381.2185
   1414.65942     591.2621     380.2063   1414.65942     591.2621     380.2063
   1414.64417     589.7731     379.3289   1414.64417     589.7731     379.3289
   1414.62891     587.2043     378.0408   1414.62891     587.2043     378.0408
   1414.61365     585.8087     377.6410   1414.61365     585.8087     377.6410
   1414.59839     583.6688     376.6646   1414.59839     583.6688     376.6646
   1414.58313     581.2233     375.4115   1414.58313     581.2233     375.4115
   1414.56787     580.0806     374.5253   1414.56787     580.0806     374.5253
   1414.55261     578.4742     373.6420   1414.55261     578.4742     373.6420
   1414.53735     576.4012     372.4848   1414.53735     576.4012     372.4848
   1414.52209     573.3819     371.7093   1414.52209     573.3819     371.7093
   1414.50684     571.9778     370.9701   1414.50684     571.9778     370.9701
   1414.49158     569.7455     370.0944   1414.49158     569.7455     370.0944
   1414.47632     568.3116     368.8778   1414.47632     568.3116     368.8778
   1414.46106     565.5295     367.1480   1414.46106     565.5295     367.1480
   1414.44580     564.6433     366.4235   1414.44580     564.6433     366.4235
   1414.43054     562.0308     365.9033   1414.43054     562.0308     365.9033
   1414.41528     559.9883     364.1244   1414.41528     559.9883     364.1244
   1414.40002     557.5844     363.0373   1414.40002     557.5844     363.0373
   1414.38477     555.2492     362.5999   1414.38477     555.2492     362.5999
   1414.36951     553.5449     361.1245   1414.36951     553.5449     361.1245
   1414.35425     551.2300     359.4925   1414.35425     551.2300     359.4925
   1414.33899     548.7012     358.8836   1414.33899     548.7012     358.8836
   1414.32373     546.4343     358.3007   1414.32373     546.4343     358.3007
   1414.30847     543.0547     356.6681   1414.30847     543.0547     356.6681
   1414.29321     541.8528     355.9160   1414.29321     541.8528     355.9160
   1414.27795     540.8221     354.8379   1414.27795     540.8221     354.8379
   1414.26270     537.6995     353.2224   1414.26270     537.6995     353.2224
   1414.24744     535.0338     352.0345   1414.24744     535.0338     352.0345
   1414.23218     532.5559     351.3348   1414.23218     532.5559     351.3348
   1414.21692     531.0849     349.9300   1414.21692     531.0849     349.9300
   1414.20166     527.9286     348.9672   1414.20166     527.9286     348.9672
   1414.18640     526.4931     347.5455   1414.18640     526.4931     347.5455
   1414.17114     523.6812     346.2494   1414.17114     523.6812     346.2494
   1414.15588     520.9753     345.1451   1414.15588     520.9753     345.1451
   1414.14062     519.2428     344.0840   1414.14062     519.2428     344.0840
   1414.12537     516.5103     343.0084   1414.12537     516.5103     343.0084
   1414.11011     514.2164     341.5056   1414.11011     514.2164     341.5056
   1414.09485     511.0605     340.6109   1414.09485     511.0605     340.6109
   1414.07959     509.3944     339.2003   1414.07959     509.3944     339.2003
   1414.06433     506.0974     337.1706   1414.06433     506.0974     337.1706
   1414.04907     504.7595     335.9374   1414.04907     504.7595     335.9374
   1414.03381     501.0906     335.1013   1414.03381     501.0906     335.1013
   1414.01855     500.1582     333.6597   1414.01855     500.1582     333.6597
   1414.00330     522.9274     341.2867   1414.00330     522.9274     341.2867
   1413.98804     496.3991     331.5931   1413.98804     496.3991     331.5931
   1413.97278     491.0857     329.9325   1413.97278     491.0857     329.9325
   1413.95752     489.2414     328.8894   1413.95752     489.2414     328.8894
   1413.94226     486.4215     326.8021   1413.94226     486.4215     326.8021
   1413.92700     484.2206     325.5978   1413.92700     484.2206     325.5978
   1413.91174     481.5201     324.0550   1413.91174     481.5201     324.0550
   1413.89648     478.3425     322.9321   1413.89648     478.3425     322.9321
   1413.88123     476.2904     321.4509   1413.88123     476.2904     321.4509
   1413.86597     473.1862     320.4971   1413.86597     473.1862     320.4971
   1413.85071     470.6692     319.2396   1413.85071     470.6692     319.2396
   1413.83545     468.7064     317.7574   1413.83545     468.7064     317.7574
   1413.82019     466.3639     316.2841   1413.82019     466.3639     316.2841
   1413.80493     462.7482     315.0003   1413.80493     462.7482     315.0003
   1413.78967     460.3957     313.6516   1413.78967     460.3957     313.6516
   1413.77441     458.0456     312.1093   1413.77441     458.0456     312.1093
   1413.75916     455.3945     310.6846   1413.75916     455.3945     310.6846
   1413.74390     452.6461     309.2521   1413.74390     452.6461     309.2521
   1413.72864     450.5586     308.0612   1413.72864     450.5586     308.0612
   1413.71338     448.0041     306.6744   1413.71338     448.0041     306.6744
   1413.69812     445.7750     304.9307   1413.69812     445.7750     304.9307
   1413.68286     442.3849     303.7772   1413.68286     442.3849     303.7772
   1413.66760     440.1001     302.3309   1413.66760     440.1001     302.3309
   1413.65234     437.0475     301.1549   1413.65234     437.0475     301.1549
   1413.63708     434.8266     299.6480   1413.63708     434.8266     299.6480
   1413.62183     431.8097     298.0672   1413.62183     431.8097     298.0672
   1413.60657     429.0569     296.7943   1413.60657     429.0569     296.7943
   1413.59131     426.9234     294.8658   1413.59131     426.9234     294.8658
   1413.57605     424.1748     294.2274   1413.57605     424.1748     294.2274
   1413.56079     422.2550     293.0865   1413.56079     422.2550     293.0865
   1413.54553     418.9868     291.3264   1413.54553     418.9868     291.3264
   1413.53027     416.9388     289.4618   1413.53027     416.9388     289.4618
   1413.51501     414.2816     288.7904   1413.51501     414.2816     288.7904
   1413.49976     412.0416     286.6850   1413.49976     412.0416     286.6850
   1413.48450     408.3602     285.5031   1413.48450     408.3602     285.5031
   1413.46924     407.0142     284.0541   1413.46924     407.0142     284.0541
   1413.45398     404.3745     282.8221   1413.45398     404.3745     282.8221
   1413.43872     401.7305     281.4335   1413.43872     401.7305     281.4335
   1413.42346     399.6206     279.9865   1413.42346     399.6206     279.9865
   1413.40820     397.8172     278.8110   1413.40820     397.8172     278.8110
   1413.39294     394.2769     277.5267   1413.39294     394.2769     277.5267
   1413.37769     391.7200     275.7589   1413.37769     391.7200     275.7589
   1413.36243     389.7447     274.7507   1413.36243     389.7447     274.7507
   1413.34717     387.1281     273.3190   1413.34717     387.1281     273.3190
   1413.33191     384.7335     271.9584   1413.33191     384.7335     271.9584
   1413.31665     382.1999     270.8997   1413.31665     382.1999     270.8997
   1413.30139     379.8024     269.7398   1413.30139     379.8024     269.7398
   1413.28613     377.7327     268.0182   1413.28613     377.7327     268.0182
   1413.27087     375.3749     266.6296   1413.27087     375.3749     266.6296
   1413.25562     373.3512     265.6284   1413.25562     373.3512     265.6284
   1413.24036     371.2599     264.3782   1413.24036     371.2599     264.3782
   1413.22510     368.9961     263.5639   1413.22510     368.9961     263.5639
   1413.20984     367.5298     261.7760   1413.20984     367.5298     261.7760
   1413.19458     364.4527     260.8311   1413.19458     364.4527     260.8311
   1413.17932     362.1568     259.1383   1413.17932     362.1568     259.1383
   1413.16406     360.1443     257.8842   1413.16406     360.1443     257.8842
   1413.14880     357.7362     257.0507   1413.14880     357.7362     257.0507
   1413.13354     356.3625     255.6800   1413.13354     356.3625     255.6800
   1413.11829     354.1158     254.4742   1413.11829     354.1158     254.4742
   1413.10303     351.5068     253.2608   1413.10303     351.5068     253.2608
   1413.08777     350.0464     252.1560   1413.08777     350.0464     252.1560
   1413.07251     348.1474     251.5252   1413.07251     348.1474     251.5252
   1413.05725     346.4548     249.9539   1413.05725     346.4548     249.9539
   1413.04199     344.2263     249.1537   1413.04199     344.2263     249.1537
   1413.02673     342.4614     247.8984   1413.02673     342.4614     247.8984
   1413.01147     340.3683     247.1244   1413.01147     340.3683     247.1244
   1412.99622     339.3536     245.8792   1412.99622     339.3536     245.8792
   1412.98096     336.8596     244.6755   1412.98096     336.8596     244.6755
   1412.96570     335.2207     243.6993   1412.96570     335.2207     243.6993
   1412.95044     333.8065     242.8612   1412.95044     333.8065     242.8612
   1412.93518     332.1377     241.9108   1412.93518     332.1377     241.9108
   1412.91992     330.6875     240.6841   1412.91992     330.6875     240.6841
   1412.90466     328.5186     240.0021   1412.90466     328.5186     240.0021
   1412.88940     327.5856     239.3450   1412.88940     327.5856     239.3450
   1412.87415     325.5637     238.2554   1412.87415     325.5637     238.2554
   1412.85889     323.7551     237.4550   1412.85889     323.7551     237.4550
   1412.84363     322.9190     236.8463   1412.84363     322.9190     236.8463
   1412.82837     321.2642     235.4438   1412.82837     321.2642     235.4438
   1412.81311     319.7133     235.4016   1412.81311     319.7133     235.4016
   1412.79785     318.3109     234.7534   1412.79785     318.3109     234.7534
   1412.78259     317.3957     233.7440   1412.78259     317.3957     233.7440
   1412.76733     316.9340     233.2711   1412.76733     316.9340     233.2711
   1412.75208     314.8557     232.2706   1412.75208     314.8557     232.2706
   1412.73682     313.8086     231.6606   1412.73682     313.8086     231.6606
   1412.72156     312.3548     231.2086   1412.72156     312.3548     231.2086
   1412.70630     312.0063     230.1771   1412.70630     312.0063     230.1771
   1412.69104     310.5343     230.1809   1412.69104     310.5343     230.1809
   1412.67578     309.8602     229.4130   1412.67578     309.8602     229.4130
   1412.66052     308.6077     228.7937   1412.66052     308.6077     228.7937
   1412.64526     308.0291     228.6348   1412.64526     308.0291     228.6348
   1412.63000     307.0811     227.8039   1412.63000     307.0811     227.8039
   1412.61475     306.1528     227.6386   1412.61475     306.1528     227.6386
   1412.59949     305.2491     227.1115   1412.59949     305.2491     227.1115
   1412.58423     304.2202     226.5363   1412.58423     304.2202     226.5363
   1412.56897     303.8395     226.5414   1412.56897     303.8395     226.5414
   1412.55371     303.4642     226.2489   1412.55371     303.4642     226.2489
   1412.53845     302.7628     225.9058   1412.53845     302.7628     225.9058
   1412.52319     301.7511     225.3073   1412.52319     301.7511     225.3073
   1412.50793     301.6137     224.9992   1412.50793     301.6137     224.9992
   1412.49268     300.8886     225.0838   1412.49268     300.8886     225.0838
   1412.47742     300.9932     224.9894   1412.47742     300.9932     224.9894
   1412.46216     300.9346     224.5962   1412.46216     300.9346     224.5962
   1412.44690     300.3552     224.4633   1412.44690     300.3552     224.4633
   1412.43164     299.6628     224.7920   1412.43164     299.6628     224.7920
   1412.41638     299.7711     224.8457   1412.41638     299.7711     224.8457
   1412.40112     299.3416     224.7475   1412.40112     299.3416     224.7475
   1412.38586     299.8473     224.4741   1412.38586     299.8473     224.4741
   1412.37061     299.4279     224.5881   1412.37061     299.4279     224.5881
   1412.35535     299.0474     224.9580   1412.35535     299.0474     224.9580
   1412.34009     299.0328     225.0274   1412.34009     299.0328     225.0274
   1412.32483     299.2079     225.1910   1412.32483     299.2079     225.1910
   1412.30957     299.6991     225.4856   1412.30957     299.6991     225.4856
   1412.29431     299.5719     225.7341   1412.29431     299.5719     225.7341
   1412.27905     299.8487     225.8403   1412.27905     299.8487     225.8403
   1412.26379     300.3492     226.2753   1412.26379     300.3492     226.2753
   1412.24854     300.1031     226.6669   1412.24854     300.1031     226.6669
   1412.23328     300.5737     227.1560   1412.23328     300.5737     227.1560
   1412.21802     300.7828     227.5040   1412.21802     300.7828     227.5040
   1412.20276     301.7609     227.8458   1412.20276     301.7609     227.8458