#     FILENAME=!Skynet_57528_lach-hhg-163_20534_20987.cyb.fits
#     BASENAME=Skynet_57528_lach-hhg-163_20534_20987
#     SRC_NAME=lach-hhg-163
#     OBSERVER=hhgmadison16_9500
#     DATE_OBS=2016-05-20T18:04:15.500
#        OBSID=20534
#      SCANNUM=20987
#          MJD=57528.7540
#          UTC=65144
#     SCANTYPE=track
#     DATAMODE=HIRES
#     TUNEFREQ=1420.0000
# Actual_FREQ1=1420.0000
# Actual_FREQ2=1420.0000
#    LO1Tuning=6870.000
#     RFFILTER=1355_1435
#        OBSBW=-15.6250
#        NCHAN=1024 
#        FOCUS=37.0709
#           RA=04:57:32.90
#          DEC=42:55:44.51
#      RA(hrs)=4.959100
#     DEC(deg)=42.929000
#    AZIM(deg)=36.104
#    ELEV(deg)=84.227
#     IFattens=10.00, 9.00
#      WARNING=None
#    TCAL_XL1=7.9635
#    TCAL_YR1=9.1340
#    TCAL_XL2=7.9635
#    TCAL_YR2=9.1340
#     TRX_XL1=11.7060
#     TRX_YR1=11.7060
#     TRX_XL2=11.7060
#     TRX_YR2=11.7060
#        TAVE=1.0000
#Freq1(MHz)          XL1          YR1  Freq2(MHz)          XL2          YR2 

   1427.81250     375.6271     333.2563   1427.81250     375.6271     333.2563
   1427.79724     376.3806     334.2476   1427.79724     376.3806     334.2476
   1427.78198     377.1406     336.3117   1427.78198     377.1406     336.3117
   1427.76672     377.6780     338.8329   1427.76672     377.6780     338.8329
   1427.75146     378.5796     339.4723   1427.75146     378.5796     339.4723
   1427.73621     379.1422     341.2642   1427.73621     379.1422     341.2642
   1427.72095     380.1079     343.0275   1427.72095     380.1079     343.0275
   1427.70569     380.3228     344.7841   1427.70569     380.3228     344.7841
   1427.69043     382.4846     346.3763   1427.69043     382.4846     346.3763
   1427.67517     382.5035     348.2473   1427.67517     382.5035     348.2473
   1427.65991     384.2484     351.3041   1427.65991     384.2484     351.3041
   1427.64465     384.6057     352.5260   1427.64465     384.6057     352.5260
   1427.62939     386.2549     355.3833   1427.62939     386.2549     355.3833
   1427.61414     387.1335     356.4468   1427.61414     387.1335     356.4468
   1427.59888     389.2623     358.0473   1427.59888     389.2623     358.0473
   1427.58362     390.5522     361.0256   1427.58362     390.5522     361.0256
   1427.56836     392.1514     363.3488   1427.56836     392.1514     363.3488
   1427.55310     393.2019     365.7682   1427.55310     393.2019     365.7682
   1427.53784     395.1776     367.4651   1427.53784     395.1776     367.4651
   1427.52258     396.2958     370.7372   1427.52258     396.2958     370.7372
   1427.50732     397.5387     372.7401   1427.50732     397.5387     372.7401
   1427.49207     399.7762     375.3501   1427.49207     399.7762     375.3501
   1427.47681     400.7722     377.3110   1427.47681     400.7722     377.3110
   1427.46155     403.2378     379.3057   1427.46155     403.2378     379.3057
   1427.44629     404.9573     382.0872   1427.44629     404.9573     382.0872
   1427.43103     406.7325     385.1448   1427.43103     406.7325     385.1448
   1427.41577     408.0585     387.1128   1427.41577     408.0585     387.1128
   1427.40051     410.0226     390.4380   1427.40051     410.0226     390.4380
   1427.38525     412.5152     392.1530   1427.38525     412.5152     392.1530
   1427.37000     414.1272     394.9544   1427.37000     414.1272     394.9544
   1427.35474     415.9736     398.0380   1427.35474     415.9736     398.0380
   1427.33948     417.6487     400.7487   1427.33948     417.6487     400.7487
   1427.32422     420.1530     402.4550   1427.32422     420.1530     402.4550
   1427.30896     422.5134     405.2847   1427.30896     422.5134     405.2847
   1427.29370     425.0393     408.9570   1427.29370     425.0393     408.9570
   1427.27844     427.0961     411.9969   1427.27844     427.0961     411.9969
   1427.26318     428.7701     413.6356   1427.26318     428.7701     413.6356
   1427.24792     431.6147     417.1814   1427.24792     431.6147     417.1814
   1427.23267     433.4148     418.7848   1427.23267     433.4148     418.7848
   1427.21741     435.3722     422.1722   1427.21741     435.3722     422.1722
   1427.20215     438.2455     425.3293   1427.20215     438.2455     425.3293
   1427.18689     441.3694     428.1717   1427.18689     441.3694     428.1717
   1427.17163     443.7335     430.5926   1427.17163     443.7335     430.5926
   1427.15637     446.3242     433.0964   1427.15637     446.3242     433.0964
   1427.14111     448.2537     436.6809   1427.14111     448.2537     436.6809
   1427.12585     451.2497     439.3085   1427.12585     451.2497     439.3085
   1427.11060     453.9647     441.9854   1427.11060     453.9647     441.9854
   1427.09534     456.6340     444.6111   1427.09534     456.6340     444.6111
   1427.08008     459.2583     447.8130   1427.08008     459.2583     447.8130
   1427.06482     461.9531     450.7885   1427.06482     461.9531     450.7885
   1427.04956     464.3882     453.8307   1427.04956     464.3882     453.8307
   1427.03430     466.6915     455.8307   1427.03430     466.6915     455.8307
   1427.01904     470.1704     459.1367   1427.01904     470.1704     459.1367
   1427.00378     473.2575     461.8062   1427.00378     473.2575     461.8062
   1426.98853     476.2130     464.5464   1426.98853     476.2130     464.5464
   1426.97327     478.7321     467.9526   1426.97327     478.7321     467.9526
   1426.95801     481.1614     471.0681   1426.95801     481.1614     471.0681
   1426.94275     484.0440     473.3794   1426.94275     484.0440     473.3794
   1426.92749     487.1414     476.4771   1426.92749     487.1414     476.4771
   1426.91223     489.8777     479.2475   1426.91223     489.8777     479.2475
   1426.89697     493.4660     482.0121   1426.89697     493.4660     482.0121
   1426.88171     496.5416     484.9139   1426.88171     496.5416     484.9139
   1426.86646     500.3061     487.6241   1426.86646     500.3061     487.6241
   1426.85120     502.5832     490.8229   1426.85120     502.5832     490.8229
   1426.83594     504.7205     493.3581   1426.83594     504.7205     493.3581
   1426.82068     507.9228     495.5825   1426.82068     507.9228     495.5825
   1426.80542     510.7442     498.1156   1426.80542     510.7442     498.1156
   1426.79016     515.0568     500.2117   1426.79016     515.0568     500.2117
   1426.77490     516.6307     503.0859   1426.77490     516.6307     503.0859
   1426.75964     520.3502     507.4369   1426.75964     520.3502     507.4369
   1426.74438     524.1412     509.4903   1426.74438     524.1412     509.4903
   1426.72913     526.0504     512.3555   1426.72913     526.0504     512.3555
   1426.71387     529.8600     514.1067   1426.71387     529.8600     514.1067
   1426.69861     532.7108     516.9783   1426.69861     532.7108     516.9783
   1426.68335     536.2391     520.1552   1426.68335     536.2391     520.1552
   1426.66809     539.4098     521.5556   1426.66809     539.4098     521.5556
   1426.65283     542.8290     524.6038   1426.65283     542.8290     524.6038
   1426.63757     545.3153     527.1677   1426.63757     545.3153     527.1677
   1426.62231     555.0039     529.4348   1426.62231     555.0039     529.4348
   1426.60706     552.6973     531.9586   1426.60706     552.6973     531.9586
   1426.59180     554.3034     534.8851   1426.59180     554.3034     534.8851
   1426.57654     558.7558     536.8281   1426.57654     558.7558     536.8281
   1426.56128     561.9664     539.5494   1426.56128     561.9664     539.5494
   1426.54602     563.1354     541.1205   1426.54602     563.1354     541.1205
   1426.53076     567.0344     543.5757   1426.53076     567.0344     543.5757
   1426.51550     570.3838     546.3180   1426.51550     570.3838     546.3180
   1426.50024     573.6147     548.6149   1426.50024     573.6147     548.6149
   1426.48499     575.6000     550.7866   1426.48499     575.6000     550.7866
   1426.46973     579.4615     553.1991   1426.46973     579.4615     553.1991
   1426.45447     582.5312     555.9285   1426.45447     582.5312     555.9285
   1426.43921     585.6293     557.5446   1426.43921     585.6293     557.5446
   1426.42395     588.9590     559.3020   1426.42395     588.9590     559.3020
   1426.40869     591.4890     561.5144   1426.40869     591.4890     561.5144
   1426.39343     594.7354     563.6781   1426.39343     594.7354     563.6781
   1426.37817     597.0059     565.2823   1426.37817     597.0059     565.2823
   1426.36292     600.8316     567.3787   1426.36292     600.8316     567.3787
   1426.34766     603.5593     569.8917   1426.34766     603.5593     569.8917
   1426.33240     606.8642     571.8768   1426.33240     606.8642     571.8768
   1426.31714     608.8194     573.7062   1426.31714     608.8194     573.7062
   1426.30188     612.4502     575.1116   1426.30188     612.4502     575.1116
   1426.28662     614.7492     576.6240   1426.28662     614.7492     576.6240
   1426.27136     618.0444     577.7140   1426.27136     618.0444     577.7140
   1426.25610     621.7936     580.6594   1426.25610     621.7936     580.6594
   1426.24084     623.8715     582.5660   1426.24084     623.8715     582.5660
   1426.22559     626.0179     583.6656   1426.22559     626.0179     583.6656
   1426.21033     629.9781     586.2617   1426.21033     629.9781     586.2617
   1426.19507     632.4261     586.5567   1426.19507     632.4261     586.5567
   1426.17981     634.9692     587.8451   1426.17981     634.9692     587.8451
   1426.16455     637.0275     591.3354   1426.16455     637.0275     591.3354
   1426.14929     640.2197     591.7851   1426.14929     640.2197     591.7851
   1426.13403     644.3904     593.7156   1426.13403     644.3904     593.7156
   1426.11877     646.4634     595.1822   1426.11877     646.4634     595.1822
   1426.10352     649.1338     596.3793   1426.10352     649.1338     596.3793
   1426.08826     652.0334     597.4791   1426.08826     652.0334     597.4791
   1426.07300     653.1491     599.3291   1426.07300     653.1491     599.3291
   1426.05774     657.4261     600.6449   1426.05774     657.4261     600.6449
   1426.04248     659.6135     601.3829   1426.04248     659.6135     601.3829
   1426.02722     662.6501     603.4005   1426.02722     662.6501     603.4005
   1426.01196     664.9338     604.4993   1426.01196     664.9338     604.4993
   1425.99670     667.3509     605.6740   1425.99670     667.3509     605.6740
   1425.98145     668.3900     606.3464   1425.98145     668.3900     606.3464
   1425.96619     671.4202     607.9979   1425.96619     671.4202     607.9979
   1425.95093     673.9255     608.7708   1425.95093     673.9255     608.7708
   1425.93567     676.6081     609.6658   1425.93567     676.6081     609.6658
   1425.92041     678.5354     611.2065   1425.92041     678.5354     611.2065
   1425.90515     681.0789     613.1093   1425.90515     681.0789     613.1093
   1425.88989     682.6813     613.2140   1425.88989     682.6813     613.2140
   1425.87463     684.5799     613.6067   1425.87463     684.5799     613.6067
   1425.85938     686.3963     616.2876   1425.85938     686.3963     616.2876
   1425.84412     688.3066     616.3175   1425.84412     688.3066     616.3175
   1425.82886     691.7054     617.3358   1425.82886     691.7054     617.3358
   1425.81360     694.1843     619.0310   1425.81360     694.1843     619.0310
   1425.79834     697.2531     618.1937   1425.79834     697.2531     618.1937
   1425.78308     698.9107     620.0770   1425.78308     698.9107     620.0770
   1425.76782     701.1205     620.3979   1425.76782     701.1205     620.3979
   1425.75256     702.0361     621.4534   1425.75256     702.0361     621.4534
   1425.73730     704.0433     622.8051   1425.73730     704.0433     622.8051
   1425.72205     706.5580     623.4276   1425.72205     706.5580     623.4276
   1425.70679     708.9545     623.3066   1425.70679     708.9545     623.3066
   1425.69153     710.6425     624.0226   1425.69153     710.6425     624.0226
   1425.67627     712.6542     626.2654   1425.67627     712.6542     626.2654
   1425.66101     713.5092     626.6353   1425.66101     713.5092     626.6353
   1425.64575     715.8441     625.9960   1425.64575     715.8441     625.9960
   1425.63049     717.7162     625.9678   1425.63049     717.7162     625.9678
   1425.61523     719.9647     627.5532   1425.61523     719.9647     627.5532
   1425.59998     721.6021     627.7250   1425.59998     721.6021     627.7250
   1425.58472     723.1071     628.2369   1425.58472     723.1071     628.2369
   1425.56946     724.8699     628.9929   1425.56946     724.8699     628.9929
   1425.55420     725.2790     629.4519   1425.55420     725.2790     629.4519
   1425.53894     727.0605     629.1003   1425.53894     727.0605     629.1003
   1425.52368     729.0268     629.5778   1425.52368     729.0268     629.5778
   1425.50842     730.4551     629.7963   1425.50842     730.4551     629.7963
   1425.49316     731.3070     630.3735   1425.49316     731.3070     630.3735
   1425.47791     732.7631     632.2574   1425.47791     732.7631     632.2574
   1425.46265     733.8999     631.4342   1425.46265     733.8999     631.4342
   1425.44739     737.9628     632.3455   1425.44739     737.9628     632.3455
   1425.43213     736.8405     632.9357   1425.43213     736.8405     632.9357
   1425.41687     739.5765     633.9623   1425.41687     739.5765     633.9623
   1425.40161     740.3378     633.2708   1425.40161     740.3378     633.2708
   1425.38635     740.9194     633.0896   1425.38635     740.9194     633.0896
   1425.37109     742.3861     632.6753   1425.37109     742.3861     632.6753
   1425.35583     743.4895     632.9879   1425.35583     743.4895     632.9879
   1425.34058     744.3495     632.9628   1425.34058     744.3495     632.9628
   1425.32532     745.6069     634.0170   1425.32532     745.6069     634.0170
   1425.31006     747.0500     634.5711   1425.31006     747.0500     634.5711
   1425.29480     747.9404     633.7603   1425.29480     747.9404     633.7603
   1425.27954     749.5886     632.9321   1425.27954     749.5886     632.9321
   1425.26428     750.3664     633.9948   1425.26428     750.3664     633.9948
   1425.24902     751.2868     634.2484   1425.24902     751.2868     634.2484
   1425.23376     752.5247     634.7706   1425.23376     752.5247     634.7706
   1425.21851     752.3781     634.5292   1425.21851     752.3781     634.5292
   1425.20325     753.9625     634.5179   1425.20325     753.9625     634.5179
   1425.18799     754.3290     633.8284   1425.18799     754.3290     633.8284
   1425.17273     756.5519     633.3867   1425.17273     756.5519     633.3867
   1425.15747     756.1869     634.2415   1425.15747     756.1869     634.2415
   1425.14221     757.8036     634.4681   1425.14221     757.8036     634.4681
   1425.12695     757.6735     633.6158   1425.12695     757.6735     633.6158
   1425.11169     757.1972     634.5567   1425.11169     757.1972     634.5567
   1425.09644     759.2757     633.6418   1425.09644     759.2757     633.6418
   1425.08118     758.6569     633.0956   1425.08118     758.6569     633.0956
   1425.06592     759.8813     633.8408   1425.06592     759.8813     633.8408
   1425.05066     758.7729     633.4759   1425.05066     758.7729     633.4759
   1425.03540     761.9351     633.8444   1425.03540     761.9351     633.8444
   1425.02014     761.7850     633.7996   1425.02014     761.7850     633.7996
   1425.00488     761.7699     633.5746   1425.00488     761.7699     633.5746
   1424.98962     760.8917     633.9020   1424.98962     760.8917     633.9020
   1424.97437     763.5707     633.9270   1424.97437     763.5707     633.9270
   1424.95911     762.4630     633.5716   1424.95911     762.4630     633.5716
   1424.94385     762.9691     633.2803   1424.94385     762.9691     633.2803
   1424.92859     764.8964     632.0494   1424.92859     764.8964     632.0494
   1424.91333     765.8800     632.2452   1424.91333     765.8800     632.2452
   1424.89807     766.2819     633.6959   1424.89807     766.2819     633.6959
   1424.88281     765.3563     632.1080   1424.88281     765.3563     632.1080
   1424.86755     766.1663     631.5232   1424.86755     766.1663     631.5232
   1424.85229     766.6069     630.4856   1424.85229     766.6069     630.4856
   1424.83704     766.2751     630.8290   1424.83704     766.2751     630.8290
   1424.82178     766.4663     632.0040   1424.82178     766.4663     632.0040
   1424.80652     765.9388     631.0226   1424.80652     765.9388     631.0226
   1424.79126     765.5318     630.4747   1424.79126     765.5318     630.4747
   1424.77600     767.0333     629.4459   1424.77600     767.0333     629.4459
   1424.76074     766.7002     629.7732   1424.76074     766.7002     629.7732
   1424.74548     768.0740     629.6234   1424.74548     768.0740     629.6234
   1424.73022     766.8262     628.2055   1424.73022     766.8262     628.2055
   1424.71497     767.0505     629.3329   1424.71497     767.0505     629.3329
   1424.69971     768.6292     628.1443   1424.69971     768.6292     628.1443
   1424.68445     766.9429     627.3177   1424.68445     766.9429     627.3177
   1424.66919     767.6559     627.1041   1424.66919     767.6559     627.1041
   1424.65393     767.7631     626.2390   1424.65393     767.7631     626.2390
   1424.63867     766.6246     626.4886   1424.63867     766.6246     626.4886
   1424.62341     768.9962     626.8778   1424.62341     768.9962     626.8778
   1424.60815     768.2557     625.7513   1424.60815     768.2557     625.7513
   1424.59290     766.4227     626.4560   1424.59290     766.4227     626.4560
   1424.57764     767.4807     625.4846   1424.57764     767.4807     625.4846
   1424.56238     766.7949     623.4554   1424.56238     766.7949     623.4554
   1424.54712     767.1215     624.5098   1424.54712     767.1215     624.5098
   1424.53186     766.5654     623.3951   1424.53186     766.5654     623.3951
   1424.51660     767.0007     624.1656   1424.51660     767.0007     624.1656
   1424.50134     766.7975     623.8858   1424.50134     766.7975     623.8858
   1424.48608     767.4670     622.4690   1424.48608     767.4670     622.4690
   1424.47083     765.6631     621.4119   1424.47083     765.6631     621.4119
   1424.45557     765.6224     621.7209   1424.45557     765.6224     621.7209
   1424.44031     766.5397     620.3513   1424.44031     766.5397     620.3513
   1424.42505     766.1371     620.7820   1424.42505     766.1371     620.7820
   1424.40979     765.0214     620.2786   1424.40979     765.0214     620.2786
   1424.39453     766.5370     619.0387   1424.39453     766.5370     619.0387
   1424.37927     765.7268     619.0079   1424.37927     765.7268     619.0079
   1424.36401     764.4841     618.1470   1424.36401     764.4841     618.1470
   1424.34875     764.3172     618.2993   1424.34875     764.3172     618.2993
   1424.33350     764.3937     617.8181   1424.33350     764.3937     617.8181
   1424.31824     763.4120     616.7271   1424.31824     763.4120     616.7271
   1424.30298     765.0031     616.7454   1424.30298     765.0031     616.7454
   1424.28772     763.1140     615.3967   1424.28772     763.1140     615.3967
   1424.27246     764.1940     615.1611   1424.27246     764.1940     615.1611
   1424.25720     763.7019     615.2728   1424.25720     763.7019     615.2728
   1424.24194     763.6616     614.8079   1424.24194     763.6616     614.8079
   1424.22668     762.5298     614.5410   1424.22668     762.5298     614.5410
   1424.21143     763.3145     614.3760   1424.21143     763.3145     614.3760
   1424.19617     762.1036     612.5502   1424.19617     762.1036     612.5502
   1424.18091     761.6225     613.5330   1424.18091     761.6225     613.5330
   1424.16565     759.1790     610.2041   1424.16565     759.1790     610.2041
   1424.15039     760.0994     611.0868   1424.15039     760.0994     611.0868
   1424.13513     760.2238     610.6163   1424.13513     760.2238     610.6163
   1424.11987     760.1669     609.6417   1424.11987     760.1669     609.6417
   1424.10461     759.4965     609.0865   1424.10461     759.4965     609.0865
   1424.08936     757.8984     608.2398   1424.08936     757.8984     608.2398
   1424.07410     758.8321     608.5009   1424.07410     758.8321     608.5009
   1424.05884     759.1458     607.8362   1424.05884     759.1458     607.8362
   1424.04358     758.6180     606.3984   1424.04358     758.6180     606.3984
   1424.02832     757.9386     605.7881   1424.02832     757.9386     605.7881
   1424.01306     757.2014     605.7850   1424.01306     757.2014     605.7850
   1423.99780     756.0043     604.4500   1423.99780     756.0043     604.4500
   1423.98254     756.5757     604.0498   1423.98254     756.5757     604.0498
   1423.96729     756.2026     604.2340   1423.96729     756.2026     604.2340
   1423.95203     756.3140     602.6939   1423.95203     756.3140     602.6939
   1423.93677     755.3067     603.3005   1423.93677     755.3067     603.3005
   1423.92151     753.9209     601.1990   1423.92151     753.9209     601.1990
   1423.90625     754.0905     601.6130   1423.90625     754.0905     601.6130
   1423.89099     754.8126     600.8141   1423.89099     754.8126     600.8141
   1423.87573     753.1127     600.8022   1423.87573     753.1127     600.8022
   1423.86047     754.4086     599.4238   1423.86047     754.4086     599.4238
   1423.84521     753.4406     598.5995   1423.84521     753.4406     598.5995
   1423.82996     751.1882     597.9563   1423.82996     751.1882     597.9563
   1423.81470     751.4805     598.1094   1423.81470     751.4805     598.1094
   1423.79944     751.8883     597.1879   1423.79944     751.8883     597.1879
   1423.78418     750.5961     596.1567   1423.78418     750.5961     596.1567
   1423.76892     750.8047     594.7579   1423.76892     750.8047     594.7579
   1423.75366     748.8542     593.8424   1423.75366     748.8542     593.8424
   1423.73840     749.1725     594.2664   1423.73840     749.1725     594.2664
   1423.72314     750.1404     593.4852   1423.72314     750.1404     593.4852
   1423.70789     748.5588     592.9432   1423.70789     748.5588     592.9432
   1423.69263     747.6855     592.5157   1423.69263     747.6855     592.5157
   1423.67737     746.5306     591.8566   1423.67737     746.5306     591.8566
   1423.66211     747.8951     591.8391   1423.66211     747.8951     591.8391
   1423.64685     747.1431     590.5044   1423.64685     747.1431     590.5044
   1423.63159     745.9506     589.1525   1423.63159     745.9506     589.1525
   1423.61633     746.3613     588.4035   1423.61633     746.3613     588.4035
   1423.60107     745.7773     587.5214   1423.60107     745.7773     587.5214
   1423.58582     744.2977     588.0518   1423.58582     744.2977     588.0518
   1423.57056     743.9610     585.0562   1423.57056     743.9610     585.0562
   1423.55530     744.7617     585.8878   1423.55530     744.7617     585.8878
   1423.54004     742.8016     585.8230   1423.54004     742.8016     585.8230
   1423.52478     743.9870     584.2001   1423.52478     743.9870     584.2001
   1423.50952     742.8822     584.3620   1423.50952     742.8822     584.3620
   1423.49426     741.9034     583.1036   1423.49426     741.9034     583.1036
   1423.47900     742.2227     582.1485   1423.47900     742.2227     582.1485
   1423.46375     741.5773     581.9431   1423.46375     741.5773     581.9431
   1423.44849     741.7173     580.5820   1423.44849     741.7173     580.5820
   1423.43323     740.6787     579.8008   1423.43323     740.6787     579.8008
   1423.41797     739.4724     579.3516   1423.41797     739.4724     579.3516
   1423.40271     740.0430     578.7435   1423.40271     740.0430     578.7435
   1423.38745     738.3555     577.8525   1423.38745     738.3555     577.8525
   1423.37219     738.1814     577.4042   1423.37219     738.1814     577.4042
   1423.35693     739.2434     576.7838   1423.35693     739.2434     576.7838
   1423.34167     738.4797     575.1835   1423.34167     738.4797     575.1835
   1423.32642     738.2335     574.2520   1423.32642     738.2335     574.2520
   1423.31116     737.9889     574.3469   1423.31116     737.9889     574.3469
   1423.29590     737.7738     573.0134   1423.29590     737.7738     573.0134
   1423.28064     737.9955     573.0626   1423.28064     737.9955     573.0626
   1423.26538     736.7479     571.2805   1423.26538     736.7479     571.2805
   1423.25012     737.1016     570.7288   1423.25012     737.1016     570.7288
   1423.23486     736.3174     570.8656   1423.23486     736.3174     570.8656
   1423.21960     735.6383     569.2534   1423.21960     735.6383     569.2534
   1423.20435     734.8170     568.7570   1423.20435     734.8170     568.7570
   1423.18909     734.0725     567.3686   1423.18909     734.0725     567.3686
   1423.17383     734.0101     567.8796   1423.17383     734.0101     567.8796
   1423.15857     733.0842     566.7542   1423.15857     733.0842     566.7542
   1423.14331     733.1107     566.1616   1423.14331     733.1107     566.1616
   1423.12805     733.6010     565.0152   1423.12805     733.6010     565.0152
   1423.11279     733.6211     563.6180   1423.11279     733.6211     563.6180
   1423.09753     732.5058     563.7756   1423.09753     732.5058     563.7756
   1423.08228     732.9261     563.0209   1423.08228     732.9261     563.0209
   1423.06702     732.7983     561.0757   1423.06702     732.7983     561.0757
   1423.05176     731.3820     560.9840   1423.05176     731.3820     560.9840
   1423.03650     731.8160     559.6071   1423.03650     731.8160     559.6071
   1423.02124     730.8384     559.7806   1423.02124     730.8384     559.7806
   1423.00598     730.6150     559.0515   1423.00598     730.6150     559.0515
   1422.99072     731.1305     557.4113   1422.99072     731.1305     557.4113
   1422.97546     730.3469     556.9646   1422.97546     730.3469     556.9646
   1422.96021     729.4261     555.9406   1422.96021     729.4261     555.9406
   1422.94495     729.4016     555.4173   1422.94495     729.4016     555.4173
   1422.92969     729.3620     554.3565   1422.92969     729.3620     554.3565
   1422.91443     730.1957     554.4659   1422.91443     730.1957     554.4659
   1422.89917     729.3758     553.6050   1422.89917     729.3758     553.6050
   1422.88391     728.4593     552.5482   1422.88391     728.4593     552.5482
   1422.86865     727.5895     551.2228   1422.86865     727.5895     551.2228
   1422.85339     727.5968     550.0820   1422.85339     727.5968     550.0820
   1422.83813     727.3617     550.9501   1422.83813     727.3617     550.9501
   1422.82288     728.5045     547.7358   1422.82288     728.5045     547.7358
   1422.80762     727.5131     548.6451   1422.80762     727.5131     548.6451
   1422.79236     726.3100     548.1447   1422.79236     726.3100     548.1447
   1422.77710     726.2096     546.9870   1422.77710     726.2096     546.9870
   1422.76184     726.8989     545.3577   1422.76184     726.8989     545.3577
   1422.74658     726.1176     545.4667   1422.74658     726.1176     545.4667
   1422.73132     725.5628     544.2624   1422.73132     725.5628     544.2624
   1422.71606     726.0804     543.1619   1422.71606     726.0804     543.1619
   1422.70081     726.3571     542.0696   1422.70081     726.3571     542.0696
   1422.68555     724.7705     541.1717   1422.68555     724.7705     541.1717
   1422.67029     725.2151     540.6081   1422.67029     725.2151     540.6081
   1422.65503     725.5208     539.4552   1422.65503     725.5208     539.4552
   1422.63977     725.3639     539.2966   1422.63977     725.3639     539.2966
   1422.62451     724.7009     538.0635   1422.62451     724.7009     538.0635
   1422.60925     723.8450     537.3125   1422.60925     723.8450     537.3125
   1422.59399     723.1495     535.6182   1422.59399     723.1495     535.6182
   1422.57874     724.1572     535.3440   1422.57874     724.1572     535.3440
   1422.56348     724.8543     534.7759   1422.56348     724.8543     534.7759
   1422.54822     722.2213     534.8989   1422.54822     722.2213     534.8989
   1422.53296     723.4641     532.3452   1422.53296     723.4641     532.3452
   1422.51770     723.0327     532.7225   1422.51770     723.0327     532.7225
   1422.50244     722.8878     531.3824   1422.50244     722.8878     531.3824
   1422.48718     723.6581     530.6389   1422.48718     723.6581     530.6389
   1422.47192     721.9387     529.4067   1422.47192     721.9387     529.4067
   1422.45667     723.3481     529.3492   1422.45667     723.3481     529.3492
   1422.44141     722.1625     527.8893   1422.44141     722.1625     527.8893
   1422.42615     721.8196     527.2760   1422.42615     721.8196     527.2760
   1422.41089     723.0178     525.9529   1422.41089     723.0178     525.9529
   1422.39563     722.4926     525.4275   1422.39563     722.4926     525.4275
   1422.38037     722.5480     525.3224   1422.38037     722.5480     525.3224
   1422.36511     721.8154     524.5909   1422.36511     721.8154     524.5909
   1422.34985     720.8295     523.4306   1422.34985     720.8295     523.4306
   1422.33459     720.6144     522.3580   1422.33459     720.6144     522.3580
   1422.31934     721.0315     521.6000   1422.31934     721.0315     521.6000
   1422.30408     720.9255     519.4722   1422.30408     720.9255     519.4722
   1422.28882     721.4548     519.5056   1422.28882     721.4548     519.5056
   1422.27356     721.0142     519.0775   1422.27356     721.0142     519.0775
   1422.25830     720.5750     517.7280   1422.25830     720.5750     517.7280
   1422.24304     721.7408     517.4865   1422.24304     721.7408     517.4865
   1422.22778     719.7897     517.5043   1422.22778     719.7897     517.5043
   1422.21252     719.8952     514.8193   1422.21252     719.8952     514.8193
   1422.19727     720.6935     514.8907   1422.19727     720.6935     514.8907
   1422.18201     721.8223     514.0794   1422.18201     721.8223     514.0794
   1422.16675     719.2653     513.2950   1422.16675     719.2653     513.2950
   1422.15149     721.4001     511.9632   1422.15149     721.4001     511.9632
   1422.13623     720.5464     512.0176   1422.13623     720.5464     512.0176
   1422.12097     720.0308     510.2384   1422.12097     720.0308     510.2384
   1422.10571     720.3721     509.3664   1422.10571     720.3721     509.3664
   1422.09045     720.0858     508.7097   1422.09045     720.0858     508.7097
   1422.07520     719.1464     507.1579   1422.07520     719.1464     507.1579
   1422.05994     720.1250     507.2990   1422.05994     720.1250     507.2990
   1422.04468     718.7238     506.1797   1422.04468     718.7238     506.1797
   1422.02942     719.5721     505.2034   1422.02942     719.5721     505.2034
   1422.01416     720.1892     504.3276   1422.01416     720.1892     504.3276
   1421.99890     720.0285     504.2178   1421.99890     720.0285     504.2178
   1421.98364     719.5593     503.1448   1421.98364     719.5593     503.1448
   1421.96838     718.4224     501.6507   1421.96838     718.4224     501.6507
   1421.95312     719.0193     501.4036   1421.95312     719.0193     501.4036
   1421.93787     718.5318     500.5244   1421.93787     718.5318     500.5244
   1421.92261     717.8032     499.1010   1421.92261     717.8032     499.1010
   1421.90735     717.3260     498.6660   1421.90735     717.3260     498.6660
   1421.89209     718.6824     497.4034   1421.89209     718.6824     497.4034
   1421.87683     718.8035     496.3582   1421.87683     718.8035     496.3582
   1421.86157     717.6440     496.1634   1421.86157     717.6440     496.1634
   1421.84631     717.6461     495.4546   1421.84631     717.6461     495.4546
   1421.83105     718.3847     494.3578   1421.83105     718.3847     494.3578
   1421.81580     718.7662     493.7739   1421.81580     718.7662     493.7739
   1421.80054     717.4384     492.7106   1421.80054     717.4384     492.7106
   1421.78528     717.8626     492.4039   1421.78528     717.8626     492.4039
   1421.77002     716.9244     490.6337   1421.77002     716.9244     490.6337
   1421.75476     716.4912     490.1204   1421.75476     716.4912     490.1204
   1421.73950     717.2902     489.8698   1421.73950     717.2902     489.8698
   1421.72424     717.0407     487.5317   1421.72424     717.0407     487.5317
   1421.70898     717.2886     487.3223   1421.70898     717.2886     487.3223
   1421.69373     716.6675     486.8773   1421.69373     716.6675     486.8773
   1421.67847     716.1787     485.9308   1421.67847     716.1787     485.9308
   1421.66321     716.9738     485.6820   1421.66321     716.9738     485.6820
   1421.64795     716.5257     484.3992   1421.64795     716.5257     484.3992
   1421.63269     717.1321     484.2495   1421.63269     717.1321     484.2495
   1421.61743     717.1984     483.0185   1421.61743     717.1984     483.0185
   1421.60217     717.2180     482.3000   1421.60217     717.2180     482.3000
   1421.58691     716.6577     481.5257   1421.58691     716.6577     481.5257
   1421.57166     715.8525     480.5202   1421.57166     715.8525     480.5202
   1421.55640     715.8557     479.1111   1421.55640     715.8557     479.1111
   1421.54114     715.9312     479.3996   1421.54114     715.9312     479.3996
   1421.52588     716.0414     478.2949   1421.52588     716.0414     478.2949
   1421.51062     714.3267     477.4191   1421.51062     714.3267     477.4191
   1421.49536     715.4537     476.0957   1421.49536     715.4537     476.0957
   1421.48010     716.0258     475.5298   1421.48010     716.0258     475.5298
   1421.46484     713.7336     475.0476   1421.46484     713.7336     475.0476
   1421.44958     716.4514     474.1442   1421.44958     716.4514     474.1442
   1421.43433     715.9307     473.0100   1421.43433     715.9307     473.0100
   1421.41907     713.8690     472.3385   1421.41907     713.8690     472.3385
   1421.40381     714.8171     471.9417   1421.40381     714.8171     471.9417
   1421.38855     714.8766     471.2339   1421.38855     714.8766     471.2339
   1421.37329     715.1196     470.0060   1421.37329     715.1196     470.0060
   1421.35803     713.0615     469.3556   1421.35803     713.0615     469.3556
   1421.34277     714.6512     468.3228   1421.34277     714.6512     468.3228
   1421.32751     714.2002     467.2437   1421.32751     714.2002     467.2437
   1421.31226     713.8505     466.7455   1421.31226     713.8505     466.7455
   1421.29700     713.3329     465.6833   1421.29700     713.3329     465.6833
   1421.28174     713.9822     464.9428   1421.28174     713.9822     464.9428
   1421.26648     713.9538     464.2234   1421.26648     713.9538     464.2234
   1421.25122     713.4060     462.8622   1421.25122     713.4060     462.8622
   1421.23596     712.9983     462.9308   1421.23596     712.9983     462.9308
   1421.22070     712.3406     461.4796   1421.22070     712.3406     461.4796
   1421.20544     712.2762     461.1740   1421.20544     712.2762     461.1740
   1421.19019     712.5075     459.9758   1421.19019     712.5075     459.9758
   1421.17493     712.6091     459.2558   1421.17493     712.6091     459.2558
   1421.15967     712.0325     458.5960   1421.15967     712.0325     458.5960
   1421.14441     712.1157     457.2722   1421.14441     712.1157     457.2722
   1421.12915     711.2936     456.2590   1421.12915     711.2936     456.2590
   1421.11389     712.5242     455.6096   1421.11389     712.5242     455.6096
   1421.09863     711.5029     455.0776   1421.09863     711.5029     455.0776
   1421.08337     711.6406     454.0161   1421.08337     711.6406     454.0161
   1421.06812     711.0804     454.0456   1421.06812     711.0804     454.0456
   1421.05286     710.3901     452.7550   1421.05286     710.3901     452.7550
   1421.03760     710.0758     451.7732   1421.03760     710.0758     451.7732
   1421.02234     710.3291     450.9839   1421.02234     710.3291     450.9839
   1421.00708     710.2508     449.9799   1421.00708     710.2508     449.9799
   1420.99182     710.9186     450.3315   1420.99182     710.9186     450.3315
   1420.97656     710.6581     448.6779   1420.97656     710.6581     448.6779
   1420.96130     711.1613     449.0313   1420.96130     711.1613     449.0313
   1420.94604     711.9534     448.1166   1420.94604     711.9534     448.1166
   1420.93079     712.4597     447.9991   1420.93079     712.4597     447.9991
   1420.91553     712.1864     447.1006   1420.91553     712.1864     447.1006
   1420.90027     713.6581     447.2746   1420.90027     713.6581     447.2746
   1420.88501     715.7761     447.0047   1420.88501     715.7761     447.0047
   1420.86975     713.7216     446.1950   1420.86975     713.7216     446.1950
   1420.85449     713.2844     445.4384   1420.85449     713.2844     445.4384
   1420.83923     715.3088     445.2986   1420.83923     715.3088     445.2986
   1420.82397     714.4950     445.0480   1420.82397     714.4950     445.0480
   1420.80872     716.2451     443.7718   1420.80872     716.2451     443.7718
   1420.79346     716.2321     443.2509   1420.79346     716.2321     443.2509
   1420.77820     715.8797     443.4141   1420.77820     715.8797     443.4141
   1420.76294     715.5463     442.6754   1420.76294     715.5463     442.6754
   1420.74768     717.6362     442.8234   1420.74768     717.6362     442.8234
   1420.73242     720.1982     442.6443   1420.73242     720.1982     442.6443
   1420.71716     724.6553     445.3906   1420.71716     724.6553     445.3906
   1420.70190     732.7413     449.6065   1420.70190     732.7413     449.6065
   1420.68665     739.6899     453.1607   1420.68665     739.6899     453.1607
   1420.67139     746.6987     456.5988   1420.67139     746.6987     456.5988
   1420.65613     765.8760     467.0843   1420.65613     765.8760     467.0843
   1420.64087     794.9310     483.2120   1420.64087     794.9310     483.2120
   1420.62561     821.2922     497.9464   1420.62561     821.2922     497.9464
   1420.61035     831.3602     502.7134   1420.61035     831.3602     502.7134
   1420.59509     841.1458     508.1721   1420.59509     841.1458     508.1721
   1420.57983     878.9795     529.8749   1420.57983     878.9795     529.8749
   1420.56458     961.0244     578.3256   1420.56458     961.0244     578.3256
   1420.54932    1103.1708     659.8890   1420.54932    1103.1708     659.8890
   1420.53406    1310.4766     780.2155   1420.53406    1310.4766     780.2155
   1420.51880    1610.1564     950.1607   1420.51880    1610.1564     950.1607
   1420.50354    1764.2192    1037.9868   1420.50354    1764.2192    1037.9868
   1420.48828    1819.2723    1072.1802   1420.48828    1819.2723    1072.1802
   1420.47302    1810.0455    1064.4668   1420.47302    1810.0455    1064.4668
   1420.45776    1745.7031    1027.2129   1420.45776    1745.7031    1027.2129
   1420.44250    1685.9462     991.2579   1420.44250    1685.9462     991.2579
   1420.42725    1755.0988    1026.7058   1420.42725    1755.0988    1026.7058
   1420.41199    1940.0293    1131.7738   1420.41199    1940.0293    1131.7738
   1420.39673    1842.9948    1073.4749   1420.39673    1842.9948    1073.4749
   1420.38147    1606.6748     937.6434   1420.38147    1606.6748     937.6434
   1420.36621    1562.5389     911.8133   1420.36621    1562.5389     911.8133
   1420.35095    1539.1907     896.0518   1420.35095    1539.1907     896.0518
   1420.33569    1473.5344     855.4568   1420.33569    1473.5344     855.4568
   1420.32043    1412.9968     821.0822   1420.32043    1412.9968     821.0822
   1420.30518    1310.4053     758.6935   1420.30518    1310.4053     758.6935
   1420.28992     994.0319     581.4340   1420.28992     994.0319     581.4340
   1420.27466     843.7194     494.1268   1420.27466     843.7194     494.1268
   1420.25940     770.5686     452.6987   1420.25940     770.5686     452.6987
   1420.24414     741.4946     434.5562   1420.24414     741.4946     434.5562
   1420.22888     727.8110     425.6259   1420.22888     727.8110     425.6259
   1420.21362     718.6737     420.2148   1420.21362     718.6737     420.2148
   1420.19836     712.2045     414.9305   1420.19836     712.2045     414.9305
   1420.18311     708.4771     413.5108   1420.18311     708.4771     413.5108
   1420.16785     706.4108     411.6518   1420.16785     706.4108     411.6518
   1420.15259     704.3369     410.4273   1420.15259     704.3369     410.4273
   1420.13733     703.4352     409.9518   1420.13733     703.4352     409.9518
   1420.12207     702.5978     407.7588   1420.12207     702.5978     407.7588
   1420.10681     701.8755     406.2253   1420.10681     701.8755     406.2253
   1420.09155     699.8413     405.6069   1420.09155     699.8413     405.6069
   1420.07629     697.8431     404.3007   1420.07629     697.8431     404.3007
   1420.06104     698.3033     403.5023   1420.06104     698.3033     403.5023
   1420.04578     697.7130     402.5715   1420.04578     697.7130     402.5715
   1420.03052     697.6609     401.5911   1420.03052     697.6609     401.5911
   1420.01526     696.5941     401.7587   1420.01526     696.5941     401.7587
   1420.00000     697.3740     402.3221   1420.00000     697.3740     402.3221
   1419.98474     698.1540     402.8859   1419.98474     698.1540     402.8859
   1419.96948     699.1213     400.4787   1419.96948     699.1213     400.4787
   1419.95422     695.2995     398.4734   1419.95422     695.2995     398.4734
   1419.93896     696.0638     397.7756   1419.93896     696.0638     397.7756
   1419.92371     694.8749     397.8390   1419.92371     694.8749     397.8390
   1419.90845     696.0675     396.7602   1419.90845     696.0675     396.7602
   1419.89319     695.3539     396.3868   1419.89319     695.3539     396.3868
   1419.87793     694.6512     395.9374   1419.87793     694.6512     395.9374
   1419.86267     693.9802     395.6165   1419.86267     693.9802     395.6165
   1419.84741     696.2233     394.6290   1419.84741     696.2233     394.6290
   1419.83215     695.4330     394.1201   1419.83215     695.4330     394.1201
   1419.81689     694.5212     393.2584   1419.81689     694.5212     393.2584
   1419.80164     694.4956     392.5904   1419.80164     694.4956     392.5904
   1419.78638     694.9424     392.2357   1419.78638     694.9424     392.2357
   1419.77112     693.9919     391.6162   1419.77112     693.9919     391.6162
   1419.75586     694.3492     391.5496   1419.75586     694.3492     391.5496
   1419.74060     694.3969     390.4198   1419.74060     694.3969     390.4198
   1419.72534     695.9064     390.6672   1419.72534     695.9064     390.6672
   1419.71008     695.1721     389.8984   1419.71008     695.1721     389.8984
   1419.69482     695.6320     389.7508   1419.69482     695.6320     389.7508
   1419.67957     695.4153     388.5315   1419.67957     695.4153     388.5315
   1419.66431     695.3621     388.3409   1419.66431     695.3621     388.3409
   1419.64905     695.0469     388.0079   1419.64905     695.0469     388.0079
   1419.63379     695.1299     387.6945   1419.63379     695.1299     387.6945
   1419.61853     694.9449     387.6171   1419.61853     694.9449     387.6171
   1419.60327     695.1574     387.1147   1419.60327     695.1574     387.1147
   1419.58801     694.7992     386.3546   1419.58801     694.7992     386.3546
   1419.57275     695.5815     386.5243   1419.57275     695.5815     386.5243
   1419.55750     696.0332     386.6358   1419.55750     696.0332     386.6358
   1419.54224     695.6234     385.7275   1419.54224     695.6234     385.7275
   1419.52698     696.5640     385.0435   1419.52698     696.5640     385.0435
   1419.51172     696.2999     384.3606   1419.51172     696.2999     384.3606
   1419.49646     696.3445     384.2257   1419.49646     696.3445     384.2257
   1419.48120     696.1805     384.8353   1419.48120     696.1805     384.8353
   1419.46594     696.6094     383.4729   1419.46594     696.6094     383.4729
   1419.45068     697.1868     383.8878   1419.45068     697.1868     383.8878
   1419.43542     696.4724     383.8519   1419.43542     696.4724     383.8519
   1419.42017     698.0853     382.6839   1419.42017     698.0853     382.6839
   1419.40491     697.2766     383.0202   1419.40491     697.2766     383.0202
   1419.38965     696.9760     383.3705   1419.38965     696.9760     383.3705
   1419.37439     698.0259     382.4167   1419.37439     698.0259     382.4167
   1419.35913     698.1273     382.1115   1419.35913     698.1273     382.1115
   1419.34387     698.4268     381.2342   1419.34387     698.4268     381.2342
   1419.32861     698.2953     381.3542   1419.32861     698.2953     381.3542
   1419.31335     698.6256     381.3891   1419.31335     698.6256     381.3891
   1419.29810     699.0958     380.7282   1419.29810     699.0958     380.7282
   1419.28284     699.4445     380.6417   1419.28284     699.4445     380.6417
   1419.26758     699.8515     381.2650   1419.26758     699.8515     381.2650
   1419.25232     700.0397     380.3169   1419.25232     700.0397     380.3169
   1419.23706     699.4771     380.3074   1419.23706     699.4771     380.3074
   1419.22180     699.9774     380.8142   1419.22180     699.9774     380.8142
   1419.20654     700.1483     380.2529   1419.20654     700.1483     380.2529
   1419.19128     701.2313     380.0587   1419.19128     701.2313     380.0587
   1419.17603     700.9777     380.7767   1419.17603     700.9777     380.7767
   1419.16077     701.8529     380.4743   1419.16077     701.8529     380.4743
   1419.14551     701.0056     379.4841   1419.14551     701.0056     379.4841
   1419.13025     702.0735     379.3835   1419.13025     702.0735     379.3835
   1419.11499     701.2716     379.3050   1419.11499     701.2716     379.3050
   1419.09973     702.5361     379.5604   1419.09973     702.5361     379.5604
   1419.08447     702.2224     379.7863   1419.08447     702.2224     379.7863
   1419.06921     702.4084     379.4247   1419.06921     702.4084     379.4247
   1419.05396     703.4351     379.1434   1419.05396     703.4351     379.1434
   1419.03870     702.8486     378.7284   1419.03870     702.8486     378.7284
   1419.02344     704.3624     379.1177   1419.02344     704.3624     379.1177
   1419.00818     704.1989     379.4380   1419.00818     704.1989     379.4380
   1418.99292     705.1791     379.5676   1418.99292     705.1791     379.5676
   1418.97766     703.9642     380.1168   1418.97766     703.9642     380.1168
   1418.96240     705.2371     379.2187   1418.96240     705.2371     379.2187
   1418.94714     705.4799     379.3599   1418.94714     705.4799     379.3599
   1418.93188     706.5331     378.8623   1418.93188     706.5331     378.8623
   1418.91663     707.7012     379.2358   1418.91663     707.7012     379.2358
   1418.90137     706.1732     379.1096   1418.90137     706.1732     379.1096
   1418.88611     708.7644     379.2547   1418.88611     708.7644     379.2547
   1418.87085     708.7258     379.5775   1418.87085     708.7258     379.5775
   1418.85559     707.9056     379.7852   1418.85559     707.9056     379.7852
   1418.84033     709.4450     379.9945   1418.84033     709.4450     379.9945
   1418.82507     708.2327     380.7702   1418.82507     708.2327     380.7702
   1418.80981     710.9052     380.2029   1418.80981     710.9052     380.2029
   1418.79456     711.2126     379.7759   1418.79456     711.2126     379.7759
   1418.77930     711.3655     380.7000   1418.77930     711.3655     380.7000
   1418.76404     710.8447     380.0691   1418.76404     710.8447     380.0691
   1418.74878     711.2778     380.4895   1418.74878     711.2778     380.4895
   1418.73352     711.9296     379.9420   1418.73352     711.9296     379.9420
   1418.71826     712.3661     381.0457   1418.71826     712.3661     381.0457
   1418.70300     713.9380     381.1199   1418.70300     713.9380     381.1199
   1418.68774     713.0856     381.5184   1418.68774     713.0856     381.5184
   1418.67249     713.9484     381.2839   1418.67249     713.9484     381.2839
   1418.65723     713.5336     381.6797   1418.65723     713.5336     381.6797
   1418.64197     714.8042     382.0153   1418.64197     714.8042     382.0153
   1418.62671     715.3979     382.1477   1418.62671     715.3979     382.1477
   1418.61145     715.8546     381.8404   1418.61145     715.8546     381.8404
   1418.59619     716.2220     382.4773   1418.59619     716.2220     382.4773
   1418.58093     717.1705     382.5224   1418.58093     717.1705     382.5224
   1418.56567     717.3442     383.3130   1418.56567     717.3442     383.3130
   1418.55042     718.1506     383.8827   1418.55042     718.1506     383.8827
   1418.53516     718.8308     383.9164   1418.53516     718.8308     383.9164
   1418.51990     719.4581     383.9453   1418.51990     719.4581     383.9453
   1418.50464     719.4036     384.9065   1418.50464     719.4036     384.9065
   1418.48938     720.0413     384.4346   1418.48938     720.0413     384.4346
   1418.47412     721.3983     385.4378   1418.47412     721.3983     385.4378
   1418.45886     721.7764     385.3959   1418.45886     721.7764     385.3959
   1418.44360     722.0907     385.7177   1418.44360     722.0907     385.7177
   1418.42834     721.0681     386.1075   1418.42834     721.0681     386.1075
   1418.41309     723.2604     386.5810   1418.41309     723.2604     386.5810
   1418.39783     725.2437     387.3577   1418.39783     725.2437     387.3577
   1418.38257     724.5800     387.4022   1418.38257     724.5800     387.4022
   1418.36731     725.6461     387.8244   1418.36731     725.6461     387.8244
   1418.35205     726.7463     388.1704   1418.35205     726.7463     388.1704
   1418.33679     725.5246     388.5464   1418.33679     725.5246     388.5464
   1418.32153     726.9134     389.6907   1418.32153     726.9134     389.6907
   1418.30627     726.9719     389.1659   1418.30627     726.9719     389.1659
   1418.29102     727.9231     390.0155   1418.29102     727.9231     390.0155
   1418.27576     729.6367     390.1397   1418.27576     729.6367     390.1397
   1418.26050     730.7531     390.3830   1418.26050     730.7531     390.3830
   1418.24524     730.3697     391.4950   1418.24524     730.3697     391.4950
   1418.22998     730.6823     391.5258   1418.22998     730.6823     391.5258
   1418.21472     731.3390     391.9897   1418.21472     731.3390     391.9897
   1418.19946     731.7163     392.0962   1418.19946     731.7163     392.0962
   1418.18420     731.9717     392.9231   1418.18420     731.9717     392.9231
   1418.16895     731.9786     393.9890   1418.16895     731.9786     393.9890
   1418.15369     733.9949     394.6342   1418.15369     733.9949     394.6342
   1418.13843     735.5738     394.6600   1418.13843     735.5738     394.6600
   1418.12317     735.4706     395.1660   1418.12317     735.4706     395.1660
   1418.10791     735.7397     395.3361   1418.10791     735.7397     395.3361
   1418.09265     736.4404     397.1724   1418.09265     736.4404     397.1724
   1418.07739     736.9589     397.1542   1418.07739     736.9589     397.1542
   1418.06213     737.1362     397.4204   1418.06213     737.1362     397.4204
   1418.04688     737.7581     398.1093   1418.04688     737.7581     398.1093
   1418.03162     738.4987     399.2461   1418.03162     738.4987     399.2461
   1418.01636     740.3848     399.3793   1418.01636     740.3848     399.3793
   1418.00110     740.0690     399.4725   1418.00110     740.0690     399.4725
   1417.98584     742.6653     400.8890   1417.98584     742.6653     400.8890
   1417.97058     740.9451     401.6027   1417.97058     740.9451     401.6027
   1417.95532     741.5713     401.5527   1417.95532     741.5713     401.5527
   1417.94006     743.5447     402.3347   1417.94006     743.5447     402.3347
   1417.92480     744.6221     403.3328   1417.92480     744.6221     403.3328
   1417.90955     745.0717     403.6206   1417.90955     745.0717     403.6206
   1417.89429     745.0364     404.5748   1417.89429     745.0364     404.5748
   1417.87903     746.0176     405.3996   1417.87903     746.0176     405.3996
   1417.86377     746.8283     406.4188   1417.86377     746.8283     406.4188
   1417.84851     747.3269     407.2878   1417.84851     747.3269     407.2878
   1417.83325     748.9626     406.9999   1417.83325     748.9626     406.9999
   1417.81799     749.5436     408.4030   1417.81799     749.5436     408.4030
   1417.80273     751.0828     409.7305   1417.80273     751.0828     409.7305
   1417.78748     751.1955     409.7514   1417.78748     751.1955     409.7514
   1417.77222     752.9382     410.7886   1417.77222     752.9382     410.7886
   1417.75696     751.8150     411.6504   1417.75696     751.8150     411.6504
   1417.74170     752.2493     412.6412   1417.74170     752.2493     412.6412
   1417.72644     754.1305     413.2601   1417.72644     754.1305     413.2601
   1417.71118     753.9571     414.3214   1417.71118     753.9571     414.3214
   1417.69592     755.4920     414.7740   1417.69592     755.4920     414.7740
   1417.68066     755.8873     414.8658   1417.68066     755.8873     414.8658
   1417.66541     756.6867     415.8777   1417.66541     756.6867     415.8777
   1417.65015     756.7141     417.1489   1417.65015     756.7141     417.1489
   1417.63489     757.4771     418.1880   1417.63489     757.4771     418.1880
   1417.61963     758.1729     418.9559   1417.61963     758.1729     418.9559
   1417.60437     758.2917     418.9464   1417.60437     758.2917     418.9464
   1417.58911     760.4136     420.4774   1417.58911     760.4136     420.4774
   1417.57385     759.7576     421.1136   1417.57385     759.7576     421.1136
   1417.55859     761.1226     422.1295   1417.55859     761.1226     422.1295
   1417.54333     763.3369     422.6561   1417.54333     763.3369     422.6561
   1417.52808     762.5427     423.5510   1417.52808     762.5427     423.5510
   1417.51282     763.8962     424.5750   1417.51282     763.8962     424.5750
   1417.49756     763.9153     425.7634   1417.49756     763.9153     425.7634
   1417.48230     764.0510     426.2937   1417.48230     764.0510     426.2937
   1417.46704     764.7706     427.9962   1417.46704     764.7706     427.9962
   1417.45178     765.6114     428.5999   1417.45178     765.6114     428.5999
   1417.43652     766.0209     429.3211   1417.43652     766.0209     429.3211
   1417.42126     767.6624     429.9967   1417.42126     767.6624     429.9967
   1417.40601     767.1540     430.5981   1417.40601     767.1540     430.5981
   1417.39075     768.4526     432.0322   1417.39075     768.4526     432.0322
   1417.37549     769.9509     433.2559   1417.37549     769.9509     433.2559
   1417.36023     769.7584     434.3586   1417.36023     769.7584     434.3586
   1417.34497     770.2759     434.9497   1417.34497     770.2759     434.9497
   1417.32971     772.1836     436.2252   1417.32971     772.1836     436.2252
   1417.31445     771.3926     437.0740   1417.31445     771.3926     437.0740
   1417.29919     772.9155     437.9743   1417.29919     772.9155     437.9743
   1417.28394     772.9654     439.0424   1417.28394     772.9654     439.0424
   1417.26868     773.8728     440.1501   1417.26868     773.8728     440.1501
   1417.25342     773.6799     441.4292   1417.25342     773.6799     441.4292
   1417.23816     774.3526     441.9235   1417.23816     774.3526     441.9235
   1417.22290     776.2404     443.4110   1417.22290     776.2404     443.4110
   1417.20764     776.4739     443.3605   1417.20764     776.4739     443.3605
   1417.19238     776.3058     445.2937   1417.19238     776.3058     445.2937
   1417.17712     776.9912     445.1840   1417.17712     776.9912     445.1840
   1417.16187     777.8712     447.0525   1417.16187     777.8712     447.0525
   1417.14661     777.2415     447.1114   1417.14661     777.2415     447.1114
   1417.13135     780.3002     448.0862   1417.13135     780.3002     448.0862
   1417.11609     779.0109     449.6889   1417.11609     779.0109     449.6889
   1417.10083     779.4210     450.7671   1417.10083     779.4210     450.7671
   1417.08557     780.6219     452.1349   1417.08557     780.6219     452.1349
   1417.07031     780.1956     452.4409   1417.07031     780.1956     452.4409
   1417.05505     782.2839     453.3693   1417.05505     782.2839     453.3693
   1417.03979     780.9611     454.7465   1417.03979     780.9611     454.7465
   1417.02454     781.8566     455.0631   1417.02454     781.8566     455.0631
   1417.00928     782.3583     456.7036   1417.00928     782.3583     456.7036
   1416.99402     782.6575     457.0210   1416.99402     782.6575     457.0210
   1416.97876     783.6696     457.3965   1416.97876     783.6696     457.3965
   1416.96350     783.9578     459.7634   1416.96350     783.9578     459.7634
   1416.94824     784.6766     460.3682   1416.94824     784.6766     460.3682
   1416.93298     784.6260     461.6251   1416.93298     784.6260     461.6251
   1416.91772     786.0455     462.1006   1416.91772     786.0455     462.1006
   1416.90247     784.8758     463.0369   1416.90247     784.8758     463.0369
   1416.88721     786.7749     463.7701   1416.88721     786.7749     463.7701
   1416.87195     786.4120     465.5281   1416.87195     786.4120     465.5281
   1416.85669     786.5053     465.5659   1416.85669     786.5053     465.5659
   1416.84143     788.0042     465.7155   1416.84143     788.0042     465.7155
   1416.82617     786.8766     467.3070   1416.82617     786.8766     467.3070
   1416.81091     789.0101     468.5711   1416.81091     789.0101     468.5711
   1416.79565     788.4211     469.3757   1416.79565     788.4211     469.3757
   1416.78040     788.2437     470.9068   1416.78040     788.2437     470.9068
   1416.76514     789.0776     471.5715   1416.76514     789.0776     471.5715
   1416.74988     788.6055     471.8032   1416.74988     788.6055     471.8032
   1416.73462     789.5163     472.5434   1416.73462     789.5163     472.5434
   1416.71936     789.3660     474.6980   1416.71936     789.3660     474.6980
   1416.70410     789.0011     474.7849   1416.70410     789.0011     474.7849
   1416.68884     791.0789     475.8683   1416.68884     791.0789     475.8683
   1416.67358     790.5925     476.4269   1416.67358     790.5925     476.4269
   1416.65833     789.9431     477.2648   1416.65833     789.9431     477.2648
   1416.64307     789.9946     478.1088   1416.64307     789.9946     478.1088
   1416.62781     790.8844     479.0065   1416.62781     790.8844     479.0065
   1416.61255     791.7777     478.8531   1416.61255     791.7777     478.8531
   1416.59729     789.6808     480.1692   1416.59729     789.6808     480.1692
   1416.58203     791.1225     480.5469   1416.58203     791.1225     480.5469
   1416.56677     791.0671     480.2701   1416.56677     791.0671     480.2701
   1416.55151     791.2823     482.3734   1416.55151     791.2823     482.3734
   1416.53625     790.1992     482.9710   1416.53625     790.1992     482.9710
   1416.52100     792.0292     482.4268   1416.52100     792.0292     482.4268
   1416.50574     792.1714     484.5210   1416.50574     792.1714     484.5210
   1416.49048     791.8721     485.0271   1416.49048     791.8721     485.0271
   1416.47522     792.1038     485.9627   1416.47522     792.1038     485.9627
   1416.45996     791.1373     485.9126   1416.45996     791.1373     485.9126
   1416.44470     792.4905     487.5726   1416.44470     792.4905     487.5726
   1416.42944     790.7289     486.5074   1416.42944     790.7289     486.5074
   1416.41418     792.0909     488.8471   1416.41418     792.0909     488.8471
   1416.39893     791.5687     488.4540   1416.39893     791.5687     488.4540
   1416.38367     791.4322     489.3050   1416.38367     791.4322     489.3050
   1416.36841     790.8900     490.3656   1416.36841     790.8900     490.3656
   1416.35315     792.1104     490.5764   1416.35315     792.1104     490.5764
   1416.33789     791.5295     490.9037   1416.33789     791.5295     490.9037
   1416.32263     791.7981     491.3141   1416.32263     791.7981     491.3141
   1416.30737     790.7180     491.5099   1416.30737     790.7180     491.5099
   1416.29211     791.4236     491.7299   1416.29211     791.4236     491.7299
   1416.27686     788.9322     492.9364   1416.27686     788.9322     492.9364
   1416.26160     790.4842     492.1209   1416.26160     790.4842     492.1209
   1416.24634     790.0659     494.1278   1416.24634     790.0659     494.1278
   1416.23108     790.3687     493.7983   1416.23108     790.3687     493.7983
   1416.21582     789.3375     494.7303   1416.21582     789.3375     494.7303
   1416.20056     789.3923     494.8711   1416.20056     789.3923     494.8711
   1416.18530     788.7269     495.0112   1416.18530     788.7269     495.0112
   1416.17004     789.2775     494.8937   1416.17004     789.2775     494.8937
   1416.15479     788.6185     495.2462   1416.15479     788.6185     495.2462
   1416.13953     790.0381     495.9023   1416.13953     790.0381     495.9023
   1416.12427     787.9299     496.4755   1416.12427     787.9299     496.4755
   1416.10901     789.2442     496.5703   1416.10901     789.2442     496.5703
   1416.09375     786.6083     496.1548   1416.09375     786.6083     496.1548
   1416.07849     787.4062     496.9517   1416.07849     787.4062     496.9517
   1416.06323     786.9778     497.1426   1416.06323     786.9778     497.1426
   1416.04797     786.3524     496.9786   1416.04797     786.3524     496.9786
   1416.03271     785.8444     498.8285   1416.03271     785.8444     498.8285
   1416.01746     784.1832     497.6773   1416.01746     784.1832     497.6773
   1416.00220     784.5031     497.9681   1416.00220     784.5031     497.9681
   1415.98694     784.7722     498.2083   1415.98694     784.7722     498.2083
   1415.97168     784.5399     497.8917   1415.97168     784.5399     497.8917
   1415.95642     783.9286     498.3254   1415.95642     783.9286     498.3254
   1415.94116     783.4321     498.5923   1415.94116     783.4321     498.5923
   1415.92590     782.6862     498.7792   1415.92590     782.6862     498.7792
   1415.91064     781.8760     498.3198   1415.91064     781.8760     498.3198
   1415.89539     781.0443     498.9432   1415.89539     781.0443     498.9432
   1415.88013     781.8309     499.0605   1415.88013     781.8309     499.0605
   1415.86487     780.9908     499.7430   1415.86487     780.9908     499.7430
   1415.84961     780.0298     499.4597   1415.84961     780.0298     499.4597
   1415.83435     779.5449     500.1437   1415.83435     779.5449     500.1437
   1415.81909     779.2661     499.2118   1415.81909     779.2661     499.2118
   1415.80383     777.7330     499.4942   1415.80383     777.7330     499.4942
   1415.78857     778.8049     499.2481   1415.78857     778.8049     499.2481
   1415.77332     777.2118     498.0385   1415.77332     777.2118     498.0385
   1415.75806     775.4110     498.7766   1415.75806     775.4110     498.7766
   1415.74280     776.2761     499.8873   1415.74280     776.2761     499.8873
   1415.72754     775.7183     499.2195   1415.72754     775.7183     499.2195
   1415.71228     775.9184     499.3651   1415.71228     775.9184     499.3651
   1415.69702     775.5267     498.8853   1415.69702     775.5267     498.8853
   1415.68176     773.3793     499.8401   1415.68176     773.3793     499.8401
   1415.66650     772.8486     498.7927   1415.66650     772.8486     498.7927
   1415.65125     771.5173     498.9611   1415.65125     771.5173     498.9611
   1415.63599     772.1843     498.7560   1415.63599     772.1843     498.7560
   1415.62073     771.2500     498.6416   1415.62073     771.2500     498.6416
   1415.60547     770.9989     498.4965   1415.60547     770.9989     498.4965
   1415.59021     768.5621     499.0724   1415.59021     768.5621     499.0724
   1415.57495     767.8094     498.6871   1415.57495     767.8094     498.6871
   1415.55969     768.2814     498.4549   1415.55969     768.2814     498.4549
   1415.54443     766.6939     497.1879   1415.54443     766.6939     497.1879
   1415.52917     765.9418     497.9825   1415.52917     765.9418     497.9825
   1415.51392     764.5175     497.0833   1415.51392     764.5175     497.0833
   1415.49866     765.8030     498.0445   1415.49866     765.8030     498.0445
   1415.48340     762.8641     497.6431   1415.48340     762.8641     497.6431
   1415.46814     762.6887     497.2833   1415.46814     762.6887     497.2833
   1415.45288     761.5551     498.1939   1415.45288     761.5551     498.1939
   1415.43762     761.0364     497.9020   1415.43762     761.0364     497.9020
   1415.42236     759.8979     496.3685   1415.42236     759.8979     496.3685
   1415.40710     758.3006     496.5868   1415.40710     758.3006     496.5868
   1415.39185     758.5100     496.2720   1415.39185     758.5100     496.2720
   1415.37659     757.2667     495.5953   1415.37659     757.2667     495.5953
   1415.36133     756.0953     495.3951   1415.36133     756.0953     495.3951
   1415.34607     754.6407     495.4255   1415.34607     754.6407     495.4255
   1415.33081     753.6388     494.5939   1415.33081     753.6388     494.5939
   1415.31555     753.7089     494.9717   1415.31555     753.7089     494.9717
   1415.30029     753.4525     494.2180   1415.30029     753.4525     494.2180
   1415.28503     750.7968     493.3915   1415.28503     750.7968     493.3915
   1415.26978     749.7180     494.5390   1415.26978     749.7180     494.5390
   1415.25452     747.6758     493.6136   1415.25452     747.6758     493.6136
   1415.23926     746.5121     494.0351   1415.23926     746.5121     494.0351
   1415.22400     746.3137     492.3748   1415.22400     746.3137     492.3748
   1415.20874     744.9034     491.9616   1415.20874     744.9034     491.9616
   1415.19348     742.6978     491.8471   1415.19348     742.6978     491.8471
   1415.17822     742.5829     491.9400   1415.17822     742.5829     491.9400
   1415.16296     741.1505     490.8690   1415.16296     741.1505     490.8690
   1415.14771     740.4068     490.7881   1415.14771     740.4068     490.7881
   1415.13245     738.9408     490.8117   1415.13245     738.9408     490.8117
   1415.11719     737.2659     490.2897   1415.11719     737.2659     490.2897
   1415.10193     736.9358     489.6873   1415.10193     736.9358     489.6873
   1415.08667     736.1098     489.7487   1415.08667     736.1098     489.7487
   1415.07141     733.8877     488.7616   1415.07141     733.8877     488.7616
   1415.05615     732.8898     488.1614   1415.05615     732.8898     488.1614
   1415.04089     730.9032     488.0036   1415.04089     730.9032     488.0036
   1415.02563     729.7329     486.8881   1415.02563     729.7329     486.8881
   1415.01038     729.4838     486.9345   1415.01038     729.4838     486.9345
   1414.99512     726.7054     486.6513   1414.99512     726.7054     486.6513
   1414.97986     724.5813     485.9923   1414.97986     724.5813     485.9923
   1414.96460     724.0497     484.8647   1414.96460     724.0497     484.8647
   1414.94934     723.6709     484.0522   1414.94934     723.6709     484.0522
   1414.93408     721.4366     484.3185   1414.93408     721.4366     484.3185
   1414.91882     720.7432     483.1365   1414.91882     720.7432     483.1365
   1414.90356     718.4814     483.3415   1414.90356     718.4814     483.3415
   1414.88831     716.7795     482.5678   1414.88831     716.7795     482.5678
   1414.87305     714.9819     481.0690   1414.87305     714.9819     481.0690
   1414.85779     714.4528     480.7635   1414.85779     714.4528     480.7635
   1414.84253     712.3438     479.4550   1414.84253     712.3438     479.4550
   1414.82727     709.8305     478.3745   1414.82727     709.8305     478.3745
   1414.81201     709.3790     478.6284   1414.81201     709.3790     478.6284
   1414.79675     706.8909     477.3063   1414.79675     706.8909     477.3063
   1414.78149     705.8434     476.2313   1414.78149     705.8434     476.2313
   1414.76624     703.9228     476.4458   1414.76624     703.9228     476.4458
   1414.75098     702.0648     474.9015   1414.75098     702.0648     474.9015
   1414.73572     700.7576     474.7569   1414.73572     700.7576     474.7569
   1414.72046     699.7866     474.0139   1414.72046     699.7866     474.0139
   1414.70520     697.9078     473.0685   1414.70520     697.9078     473.0685
   1414.68994     695.4537     472.5144   1414.68994     695.4537     472.5144
   1414.67468     693.1218     472.1778   1414.67468     693.1218     472.1778
   1414.65942     692.2173     471.1091   1414.65942     692.2173     471.1091
   1414.64417     690.5086     470.3605   1414.64417     690.5086     470.3605
   1414.62891     687.8304     469.4429   1414.62891     687.8304     469.4429
   1414.61365     686.1767     467.7314   1414.61365     686.1767     467.7314
   1414.59839     683.6680     467.7035   1414.59839     683.6680     467.7035
   1414.58313     682.4135     465.8966   1414.58313     682.4135     465.8966
   1414.56787     680.1795     466.0376   1414.56787     680.1795     466.0376
   1414.55261     678.5533     464.0192   1414.55261     678.5533     464.0192
   1414.53735     676.5543     463.1811   1414.53735     676.5543     463.1811
   1414.52209     673.5186     461.9120   1414.52209     673.5186     461.9120
   1414.50684     672.3399     461.5439   1414.50684     672.3399     461.5439
   1414.49158     669.5904     459.2523   1414.49158     669.5904     459.2523
   1414.47632     667.7292     459.4033   1414.47632     667.7292     459.4033
   1414.46106     667.9255     457.9718   1414.46106     667.9255     457.9718
   1414.44580     664.2545     457.2814   1414.44580     664.2545     457.2814
   1414.43054     661.9329     455.6417   1414.43054     661.9329     455.6417
   1414.41528     658.7528     454.7195   1414.41528     658.7528     454.7195
   1414.40002     658.0059     452.9687   1414.40002     658.0059     452.9687
   1414.38477     654.9731     452.5005   1414.38477     654.9731     452.5005
   1414.36951     653.4203     450.8723   1414.36951     653.4203     450.8723
   1414.35425     650.6837     448.9954   1414.35425     650.6837     448.9954
   1414.33899     649.1089     449.0828   1414.33899     649.1089     449.0828
   1414.32373     646.0707     447.8112   1414.32373     646.0707     447.8112
   1414.30847     643.9685     446.1765   1414.30847     643.9685     446.1765
   1414.29321     641.5865     444.7681   1414.29321     641.5865     444.7681
   1414.27795     638.9457     443.8001   1414.27795     638.9457     443.8001
   1414.26270     635.8628     442.1642   1414.26270     635.8628     442.1642
   1414.24744     634.2057     440.8755   1414.24744     634.2057     440.8755
   1414.23218     631.6369     439.9741   1414.23218     631.6369     439.9741
   1414.21692     629.0866     438.4658   1414.21692     629.0866     438.4658
   1414.20166     627.0562     437.0249   1414.20166     627.0562     437.0249
   1414.18640     624.9836     436.1412   1414.18640     624.9836     436.1412
   1414.17114     621.4233     434.6518   1414.17114     621.4233     434.6518
   1414.15588     619.2939     433.1565   1414.15588     619.2939     433.1565
   1414.14062     616.6138     432.4511   1414.14062     616.6138     432.4511
   1414.12537     616.0421     429.7485   1414.12537     616.0421     429.7485
   1414.11011     611.7210     429.2456   1414.11011     611.7210     429.2456
   1414.09485     609.9277     427.3119   1414.09485     609.9277     427.3119
   1414.07959     606.6622     426.3350   1414.07959     606.6622     426.3350
   1414.06433     604.9929     425.1022   1414.06433     604.9929     425.1022
   1414.04907     602.3716     423.5815   1414.04907     602.3716     423.5815
   1414.03381     599.1630     421.8733   1414.03381     599.1630     421.8733
   1414.01855     597.3366     420.8515   1414.01855     597.3366     420.8515
   1414.00330     598.2850     421.2225   1414.00330     598.2850     421.2225
   1413.98804     592.5865     418.3638   1413.98804     592.5865     418.3638
   1413.97278     588.4556     416.0355   1413.97278     588.4556     416.0355
   1413.95752     585.7761     415.1123   1413.95752     585.7761     415.1123
   1413.94226     582.7941     412.1721   1413.94226     582.7941     412.1721
   1413.92700     580.0833     412.1816   1413.92700     580.0833     412.1816
   1413.91174     576.6138     409.9476   1413.91174     576.6138     409.9476
   1413.89648     574.8122     407.8856   1413.89648     574.8122     407.8856
   1413.88123     573.0550     407.1929   1413.88123     573.0550     407.1929
   1413.86597     568.9376     405.5552   1413.86597     568.9376     405.5552
   1413.85071     567.4786     403.1784   1413.85071     567.4786     403.1784
   1413.83545     564.3467     401.7034   1413.83545     564.3467     401.7034
   1413.82019     561.1102     399.8305   1413.82019     561.1102     399.8305
   1413.80493     558.6314     399.2693   1413.80493     558.6314     399.2693
   1413.78967     555.9482     397.2357   1413.78967     555.9482     397.2357
   1413.77441     553.1704     395.9088   1413.77441     553.1704     395.9088
   1413.75916     549.8010     394.1329   1413.75916     549.8010     394.1329
   1413.74390     547.0343     392.3815   1413.74390     547.0343     392.3815
   1413.72864     543.9194     391.5302   1413.72864     543.9194     391.5302
   1413.71338     541.2763     389.1183   1413.71338     541.2763     389.1183
   1413.69812     538.5925     387.9808   1413.69812     538.5925     387.9808
   1413.68286     535.9124     385.8325   1413.68286     535.9124     385.8325
   1413.66760     533.0802     384.1863   1413.66760     533.0802     384.1863
   1413.65234     530.5688     383.6736   1413.65234     530.5688     383.6736
   1413.63708     528.2696     381.7754   1413.63708     528.2696     381.7754
   1413.62183     525.3191     379.7051   1413.62183     525.3191     379.7051
   1413.60657     521.6624     377.7506   1413.60657     521.6624     377.7506
   1413.59131     519.1943     376.8741   1413.59131     519.1943     376.8741
   1413.57605     517.0622     374.2476   1413.57605     517.0622     374.2476
   1413.56079     513.2324     373.1301   1413.56079     513.2324     373.1301
   1413.54553     510.9420     372.4898   1413.54553     510.9420     372.4898
   1413.53027     507.7771     370.0137   1413.53027     507.7771     370.0137
   1413.51501     505.5264     368.4615   1413.51501     505.5264     368.4615
   1413.49976     502.0371     366.6141   1413.49976     502.0371     366.6141
   1413.48450     499.8309     365.4893   1413.48450     499.8309     365.4893
   1413.46924     497.1078     364.2477   1413.46924     497.1078     364.2477
   1413.45398     493.5723     362.8045   1413.45398     493.5723     362.8045
   1413.43872     491.3545     360.7865   1413.43872     491.3545     360.7865
   1413.42346     488.3174     359.1116   1413.42346     488.3174     359.1116
   1413.40820     485.9951     358.4127   1413.40820     485.9951     358.4127
   1413.39294     483.4612     356.6335   1413.39294     483.4612     356.6335
   1413.37769     480.6035     354.7800   1413.37769     480.6035     354.7800
   1413.36243     477.3039     353.2739   1413.36243     477.3039     353.2739
   1413.34717     475.2120     352.0072   1413.34717     475.2120     352.0072
   1413.33191     472.3523     350.0033   1413.33191     472.3523     350.0033
   1413.31665     469.4781     349.1307   1413.31665     469.4781     349.1307
   1413.30139     467.8129     347.6196   1413.30139     467.8129     347.6196
   1413.28613     464.5998     346.1267   1413.28613     464.5998     346.1267
   1413.27087     462.0237     344.5024   1413.27087     462.0237     344.5024
   1413.25562     459.2380     343.5826   1413.25562     459.2380     343.5826
   1413.24036     456.9639     342.0612   1413.24036     456.9639     342.0612
   1413.22510     454.8373     340.9431   1413.22510     454.8373     340.9431
   1413.20984     452.1287     339.4696   1413.20984     452.1287     339.4696
   1413.19458     449.4202     338.0776   1413.19458     449.4202     338.0776
   1413.17932     447.2721     337.0356   1413.17932     447.2721     337.0356
   1413.16406     445.2146     335.5542   1413.16406     445.2146     335.5542
   1413.14880     442.6979     334.2260   1413.14880     442.6979     334.2260
   1413.13354     439.8406     333.5529   1413.13354     439.8406     333.5529
   1413.11829     438.1856     331.5731   1413.11829     438.1856     331.5731
   1413.10303     435.4171     330.6911   1413.10303     435.4171     330.6911
   1413.08777     433.6987     329.1545   1413.08777     433.6987     329.1545
   1413.07251     430.7069     328.3566   1413.07251     430.7069     328.3566
   1413.05725     428.8799     327.5148   1413.05725     428.8799     327.5148
   1413.04199     426.7567     326.0591   1413.04199     426.7567     326.0591
   1413.02673     424.5348     324.6248   1413.02673     424.5348     324.6248
   1413.01147     421.6347     323.9365   1413.01147     421.6347     323.9365
   1412.99622     419.8782     323.1959   1412.99622     419.8782     323.1959
   1412.98096     418.1534     322.1434   1412.98096     418.1534     322.1434
   1412.96570     415.9182     321.8677   1412.96570     415.9182     321.8677
   1412.95044     414.1700     320.5287   1412.95044     414.1700     320.5287
   1412.93518     412.4572     320.3562   1412.93518     412.4572     320.3562
   1412.91992     410.7090     319.4292   1412.91992     410.7090     319.4292
   1412.90466     408.2852     318.0642   1412.90466     408.2852     318.0642
   1412.88940     406.6197     317.2354   1412.88940     406.6197     317.2354
   1412.87415     404.3278     316.4906   1412.87415     404.3278     316.4906
   1412.85889     403.3221     315.8564   1412.85889     403.3221     315.8564
   1412.84363     401.2803     315.7510   1412.84363     401.2803     315.7510
   1412.82837     399.9630     314.5148   1412.82837     399.9630     314.5148
   1412.81311     397.7821     314.4461   1412.81311     397.7821     314.4461
   1412.79785     396.2784     314.0745   1412.79785     396.2784     314.0745
   1412.78259     394.8557     313.3069   1412.78259     394.8557     313.3069
   1412.76733     393.5124     313.1160   1412.76733     393.5124     313.1160
   1412.75208     391.8340     312.4048   1412.75208     391.8340     312.4048
   1412.73682     390.5588     312.1862   1412.73682     390.5588     312.1862
   1412.72156     389.1133     311.7781   1412.72156     389.1133     311.7781
   1412.70630     387.8996     312.1708   1412.70630     387.8996     312.1708
   1412.69104     387.6183     311.2576   1412.69104     387.6183     311.2576
   1412.67578     385.9946     311.4352   1412.67578     385.9946     311.4352
   1412.66052     384.4464     310.9664   1412.66052     384.4464     310.9664
   1412.64526     383.3716     311.2257   1412.64526     383.3716     311.2257
   1412.63000     382.6037     311.3058   1412.63000     382.6037     311.3058
   1412.61475     381.6101     311.6019   1412.61475     381.6101     311.6019
   1412.59949     380.2858     311.7826   1412.59949     380.2858     311.7826
   1412.58423     379.3092     311.4786   1412.58423     379.3092     311.4786
   1412.56897     378.7643     311.6769   1412.56897     378.7643     311.6769
   1412.55371     378.1982     312.3074   1412.55371     378.1982     312.3074
   1412.53845     377.5511     312.2385   1412.53845     377.5511     312.2385
   1412.52319     376.8398     312.7152   1412.52319     376.8398     312.7152
   1412.50793     376.4196     312.7821   1412.50793     376.4196     312.7821
   1412.49268     375.3442     313.9370   1412.49268     375.3442     313.9370
   1412.47742     374.9011     313.7757   1412.47742     374.9011     313.7757
   1412.46216     374.5936     313.7350   1412.46216     374.5936     313.7350
   1412.44690     374.6727     314.5972   1412.44690     374.6727     314.5972
   1412.43164     374.1135     315.9423   1412.43164     374.1135     315.9423
   1412.41638     373.1859     316.5277   1412.41638     373.1859     316.5277
   1412.40112     373.9001     317.3693   1412.40112     373.9001     317.3693
   1412.38586     373.0253     317.9576   1412.38586     373.0253     317.9576
   1412.37061     372.9614     319.2087   1412.37061     372.9614     319.2087
   1412.35535     372.3567     319.3439   1412.35535     372.3567     319.3439
   1412.34009     373.0267     320.5640   1412.34009     373.0267     320.5640
   1412.32483     372.7804     321.2542   1412.32483     372.7804     321.2542
   1412.30957     372.8628     323.0786   1412.30957     372.8628     323.0786
   1412.29431     372.4908     323.7661   1412.29431     372.4908     323.7661
   1412.27905     373.1027     325.6390   1412.27905     373.1027     325.6390
   1412.26379     373.3605     326.3653   1412.26379     373.3605     326.3653
   1412.24854     373.5245     327.9583   1412.24854     373.5245     327.9583
   1412.23328     374.4796     328.8952   1412.23328     374.4796     328.8952
   1412.21802     374.8318     330.2149   1412.21802     374.8318     330.2149
   1412.20276     374.7845     331.8214   1412.20276     374.7845     331.8214