#     FILENAME=!Skynet_57528_lach-hhg-172_20556_20995.cyb.fits
#     BASENAME=Skynet_57528_lach-hhg-172_20556_20995
#     SRC_NAME=lach-hhg-172
#     OBSERVER=hhgmadison16_9500
#     DATE_OBS=2016-05-20T18:24:03.620
#        OBSID=20556
#      SCANNUM=20995
#          MJD=57528.7678
#          UTC=66333
#     SCANTYPE=track
#     DATAMODE=HIRES
#     TUNEFREQ=1420.0000
# Actual_FREQ1=1420.0000
# Actual_FREQ2=1420.0000
#    LO1Tuning=6870.000
#     RFFILTER=1355_1435
#        OBSBW=-15.6250
#        NCHAN=1024 
#        FOCUS=37.0709
#           RA=05:25:05.63
#          DEC=35:40:04.59
#      RA(hrs)=5.418200
#     DEC(deg)=35.667900
#    AZIM(deg)=115.660
#    ELEV(deg)=84.022
#     IFattens=11.00, 10.00
#      WARNING=None
#    TCAL_XL1=7.9635
#    TCAL_YR1=9.1340
#    TCAL_XL2=7.9635
#    TCAL_YR2=9.1340
#     TRX_XL1=11.7060
#     TRX_YR1=11.7060
#     TRX_XL2=11.7060
#     TRX_YR2=11.7060
#        TAVE=1.0000
#Freq1(MHz)          XL1          YR1  Freq2(MHz)          XL2          YR2 

   1427.81250     307.6898     285.3952   1427.81250     307.6898     285.3952
   1427.79724     308.2185     286.2356   1427.79724     308.2185     286.2356
   1427.78198     309.0571     287.9984   1427.78198     309.0571     287.9984
   1427.76672     308.9467     289.5934   1427.76672     308.9467     289.5934
   1427.75146     310.0912     291.3279   1427.75146     310.0912     291.3279
   1427.73621     310.6234     292.4067   1427.73621     310.6234     292.4067
   1427.72095     311.2773     294.4192   1427.72095     311.2773     294.4192
   1427.70569     311.5470     295.1130   1427.70569     311.5470     295.1130
   1427.69043     312.4501     297.5074   1427.69043     312.4501     297.5074
   1427.67517     313.3087     299.0543   1427.67517     313.3087     299.0543
   1427.65991     313.9522     301.0028   1427.65991     313.9522     301.0028
   1427.64465     315.1384     302.5460   1427.64465     315.1384     302.5460
   1427.62939     316.1506     304.5117   1427.62939     316.1506     304.5117
   1427.61414     317.2055     306.4440   1427.61414     317.2055     306.4440
   1427.59888     317.9348     308.4350   1427.59888     317.9348     308.4350
   1427.58362     319.1584     310.0756   1427.58362     319.1584     310.0756
   1427.56836     320.5439     311.8569   1427.56836     320.5439     311.8569
   1427.55310     322.1264     314.4981   1427.55310     322.1264     314.4981
   1427.53784     322.5794     316.2691   1427.53784     322.5794     316.2691
   1427.52258     324.2440     318.2585   1427.52258     324.2440     318.2585
   1427.50732     325.3994     320.4117   1427.50732     325.3994     320.4117
   1427.49207     327.1111     322.8989   1427.49207     327.1111     322.8989
   1427.47681     327.9192     324.5706   1427.47681     327.9192     324.5706
   1427.46155     330.1326     327.0704   1427.46155     330.1326     327.0704
   1427.44629     330.9473     329.2507   1427.44629     330.9473     329.2507
   1427.43103     331.9255     331.2212   1427.43103     331.9255     331.2212
   1427.41577     334.0525     333.5887   1427.41577     334.0525     333.5887
   1427.40051     335.5449     336.6455   1427.40051     335.5449     336.6455
   1427.38525     337.0150     338.1157   1427.38525     337.0150     338.1157
   1427.37000     338.7351     340.2858   1427.37000     338.7351     340.2858
   1427.35474     339.8897     342.4052   1427.35474     339.8897     342.4052
   1427.33948     342.2000     345.4578   1427.33948     342.2000     345.4578
   1427.32422     343.3597     348.9110   1427.32422     343.3597     348.9110
   1427.30896     345.4264     350.2986   1427.30896     345.4264     350.2986
   1427.29370     347.7042     353.6539   1427.29370     347.7042     353.6539
   1427.27844     349.3732     355.4298   1427.27844     349.3732     355.4298
   1427.26318     350.5978     357.6300   1427.26318     350.5978     357.6300
   1427.24792     351.7028     360.8760   1427.24792     351.7028     360.8760
   1427.23267     354.1769     363.0674   1427.23267     354.1769     363.0674
   1427.21741     356.2195     365.6194   1427.21741     356.2195     365.6194
   1427.20215     358.0018     368.3791   1427.20215     358.0018     368.3791
   1427.18689     360.0435     370.6153   1427.18689     360.0435     370.6153
   1427.17163     362.2162     373.4625   1427.17163     362.2162     373.4625
   1427.15637     364.1222     375.7379   1427.15637     364.1222     375.7379
   1427.14111     366.2160     378.5037   1427.14111     366.2160     378.5037
   1427.12585     368.5381     381.4055   1427.12585     368.5381     381.4055
   1427.11060     369.9837     383.7121   1427.11060     369.9837     383.7121
   1427.09534     372.8228     385.8143   1427.09534     372.8228     385.8143
   1427.08008     374.6217     389.0811   1427.08008     374.6217     389.0811
   1427.06482     377.4870     392.3268   1427.06482     377.4870     392.3268
   1427.04956     378.9291     393.9317   1427.04956     378.9291     393.9317
   1427.03430     382.1849     396.7684   1427.03430     382.1849     396.7684
   1427.01904     383.3647     399.4641   1427.01904     383.3647     399.4641
   1427.00378     386.2528     401.8405   1427.00378     386.2528     401.8405
   1426.98853     388.3341     404.7337   1426.98853     388.3341     404.7337
   1426.97327     390.5208     407.9980   1426.97327     390.5208     407.9980
   1426.95801     392.2387     409.5893   1426.95801     392.2387     409.5893
   1426.94275     395.1308     412.7087   1426.94275     395.1308     412.7087
   1426.92749     396.9461     414.6194   1426.92749     396.9461     414.6194
   1426.91223     399.8136     417.9226   1426.91223     399.8136     417.9226
   1426.89697     402.5418     420.0588   1426.89697     402.5418     420.0588
   1426.88171     404.9798     422.7756   1426.88171     404.9798     422.7756
   1426.86646     407.0328     425.5509   1426.86646     407.0328     425.5509
   1426.85120     409.9649     427.8808   1426.85120     409.9649     427.8808
   1426.83594     412.0507     429.7601   1426.83594     412.0507     429.7601
   1426.82068     414.3862     432.4336   1426.82068     414.3862     432.4336
   1426.80542     417.0558     435.5490   1426.80542     417.0558     435.5490
   1426.79016     419.2542     437.8020   1426.79016     419.2542     437.8020
   1426.77490     421.9033     440.1448   1426.77490     421.9033     440.1448
   1426.75964     424.0982     442.0797   1426.75964     424.0982     442.0797
   1426.74438     425.4446     445.2455   1426.74438     425.4446     445.2455
   1426.72913     429.1006     447.6902   1426.72913     429.1006     447.6902
   1426.71387     431.3750     449.6616   1426.71387     431.3750     449.6616
   1426.69861     433.8919     452.8395   1426.69861     433.8919     452.8395
   1426.68335     437.0237     454.2166   1426.68335     437.0237     454.2166
   1426.66809     438.5350     457.0318   1426.66809     438.5350     457.0318
   1426.65283     440.3206     459.2872   1426.65283     440.3206     459.2872
   1426.63757     444.0395     461.3252   1426.63757     444.0395     461.3252
   1426.62231     447.1667     470.0306   1426.62231     447.1667     470.0306
   1426.60706     449.6203     465.8293   1426.60706     449.6203     465.8293
   1426.59180     451.1496     468.1015   1426.59180     451.1496     468.1015
   1426.57654     453.8674     470.3022   1426.57654     453.8674     470.3022
   1426.56128     457.0252     471.9489   1426.56128     457.0252     471.9489
   1426.54602     458.4746     473.7262   1426.54602     458.4746     473.7262
   1426.53076     460.9861     476.2985   1426.53076     460.9861     476.2985
   1426.51550     463.4322     478.4928   1426.51550     463.4322     478.4928
   1426.50024     465.6071     480.1597   1426.50024     465.6071     480.1597
   1426.48499     469.2561     482.6888   1426.48499     469.2561     482.6888
   1426.46973     471.4166     485.2052   1426.46973     471.4166     485.2052
   1426.45447     474.0606     486.0247   1426.45447     474.0606     486.0247
   1426.43921     476.6045     488.1039   1426.43921     476.6045     488.1039
   1426.42395     478.7613     490.8287   1426.42395     478.7613     490.8287
   1426.40869     481.0099     492.7024   1426.40869     481.0099     492.7024
   1426.39343     483.5322     494.1543   1426.39343     483.5322     494.1543
   1426.37817     486.2521     495.3804   1426.37817     486.2521     495.3804
   1426.36292     488.0218     497.8307   1426.36292     488.0218     497.8307
   1426.34766     490.1241     499.5412   1426.34766     490.1241     499.5412
   1426.33240     492.9857     501.2364   1426.33240     492.9857     501.2364
   1426.31714     495.1930     502.8129   1426.31714     495.1930     502.8129
   1426.30188     497.9224     504.7598   1426.30188     497.9224     504.7598
   1426.28662     499.7605     506.7797   1426.28662     499.7605     506.7797
   1426.27136     501.9267     507.6392   1426.27136     501.9267     507.6392
   1426.25610     504.4661     509.4671   1426.25610     504.4661     509.4671
   1426.24084     507.3131     511.3673   1426.24084     507.3131     511.3673
   1426.22559     509.7790     512.6933   1426.22559     509.7790     512.6933
   1426.21033     511.2396     513.6498   1426.21033     511.2396     513.6498
   1426.19507     513.6909     515.3134   1426.19507     513.6909     515.3134
   1426.17981     515.9975     516.0086   1426.17981     515.9975     516.0086
   1426.16455     519.0786     517.8707   1426.16455     519.0786     517.8707
   1426.14929     519.7525     519.1340   1426.14929     519.7525     519.1340
   1426.13403     522.6420     520.3229   1426.13403     522.6420     520.3229
   1426.11877     524.9695     522.3865   1426.11877     524.9695     522.3865
   1426.10352     526.5190     523.7634   1426.10352     526.5190     523.7634
   1426.08826     528.7241     524.9221   1426.08826     528.7241     524.9221
   1426.07300     530.7531     525.1672   1426.07300     530.7531     525.1672
   1426.05774     533.5551     526.8542   1426.05774     533.5551     526.8542
   1426.04248     535.6969     528.5475   1426.04248     535.6969     528.5475
   1426.02722     537.4472     528.8565   1426.02722     537.4472     528.8565
   1426.01196     539.0767     530.0067   1426.01196     539.0767     530.0067
   1425.99670     540.9191     531.8460   1425.99670     540.9191     531.8460
   1425.98145     543.6371     532.2778   1425.98145     543.6371     532.2778
   1425.96619     544.9537     532.7690   1425.96619     544.9537     532.7690
   1425.95093     547.3525     534.8071   1425.95093     547.3525     534.8071
   1425.93567     548.5033     535.3028   1425.93567     548.5033     535.3028
   1425.92041     550.9102     536.8352   1425.92041     550.9102     536.8352
   1425.90515     551.9780     536.7531   1425.90515     551.9780     536.7531
   1425.88989     554.9524     537.6304   1425.88989     554.9524     537.6304
   1425.87463     556.6045     537.9346   1425.87463     556.6045     537.9346
   1425.85938     558.0531     538.9464   1425.85938     558.0531     538.9464
   1425.84412     560.2286     540.3794   1425.84412     560.2286     540.3794
   1425.82886     562.1096     540.7861   1425.82886     562.1096     540.7861
   1425.81360     562.9760     540.7292   1425.81360     562.9760     540.7292
   1425.79834     565.2914     542.4716   1425.79834     565.2914     542.4716
   1425.78308     566.8787     542.4640   1425.78308     566.8787     542.4640
   1425.76782     569.0436     543.9098   1425.76782     569.0436     543.9098
   1425.75256     570.3179     543.7775   1425.75256     570.3179     543.7775
   1425.73730     571.0249     545.4530   1425.73730     571.0249     545.4530
   1425.72205     573.5021     545.4285   1425.72205     573.5021     545.4285
   1425.70679     574.2394     546.3718   1425.70679     574.2394     546.3718
   1425.69153     575.8563     545.9949   1425.69153     575.8563     545.9949
   1425.67627     578.5051     546.9718   1425.67627     578.5051     546.9718
   1425.66101     579.9194     547.6136   1425.66101     579.9194     547.6136
   1425.64575     581.5719     548.8021   1425.64575     581.5719     548.8021
   1425.63049     582.0240     548.3870   1425.63049     582.0240     548.3870
   1425.61523     583.3900     549.3719   1425.61523     583.3900     549.3719
   1425.59998     584.9977     549.3665   1425.59998     584.9977     549.3665
   1425.58472     586.8904     549.8774   1425.58472     586.8904     549.8774
   1425.56946     588.3292     550.0183   1425.56946     588.3292     550.0183
   1425.55420     589.3199     549.8336   1425.55420     589.3199     549.8336
   1425.53894     591.2711     550.9340   1425.53894     591.2711     550.9340
   1425.52368     590.7944     550.3149   1425.52368     590.7944     550.3149
   1425.50842     592.5708     550.6984   1425.50842     592.5708     550.6984
   1425.49316     593.6925     551.2790   1425.49316     593.6925     551.2790
   1425.47791     595.0135     551.6579   1425.47791     595.0135     551.6579
   1425.46265     596.8941     552.3089   1425.46265     596.8941     552.3089
   1425.44739     597.2250     552.5608   1425.44739     597.2250     552.5608
   1425.43213     598.1788     552.3015   1425.43213     598.1788     552.3015
   1425.41687     600.7851     553.4144   1425.41687     600.7851     553.4144
   1425.40161     599.5983     552.0598   1425.40161     599.5983     552.0598
   1425.38635     600.7352     552.0660   1425.38635     600.7352     552.0660
   1425.37109     603.0538     553.4897   1425.37109     603.0538     553.4897
   1425.35583     603.7587     553.6432   1425.35583     603.7587     553.6432
   1425.34058     604.7603     552.9526   1425.34058     604.7603     552.9526
   1425.32532     605.7872     552.3308   1425.32532     605.7872     552.3308
   1425.31006     606.4128     553.4493   1425.31006     606.4128     553.4493
   1425.29480     607.5097     553.3314   1425.29480     607.5097     553.3314
   1425.27954     608.3578     552.7847   1425.27954     608.3578     552.7847
   1425.26428     609.2130     552.7640   1425.26428     609.2130     552.7640
   1425.24902     608.3958     552.8542   1425.24902     608.3958     552.8542
   1425.23376     610.1573     552.2683   1425.23376     610.1573     552.2683
   1425.21851     610.5962     553.0045   1425.21851     610.5962     553.0045
   1425.20325     611.7277     552.1616   1425.20325     611.7277     552.1616
   1425.18799     612.5391     552.5835   1425.18799     612.5391     552.5835
   1425.17273     612.5926     551.8550   1425.17273     612.5926     551.8550
   1425.15747     614.0926     552.0924   1425.15747     614.0926     552.0924
   1425.14221     613.7764     552.1302   1425.14221     613.7764     552.1302
   1425.12695     615.5193     551.7843   1425.12695     615.5193     551.7843
   1425.11169     615.0274     552.0009   1425.11169     615.0274     552.0009
   1425.09644     616.5712     550.9283   1425.09644     616.5712     550.9283
   1425.08118     616.7847     551.7158   1425.08118     616.7847     551.7158
   1425.06592     617.7808     550.1581   1425.06592     617.7808     550.1581
   1425.05066     618.0719     550.8287   1425.05066     618.0719     550.8287
   1425.03540     618.2740     551.0087   1425.03540     618.2740     551.0087
   1425.02014     618.5181     550.6431   1425.02014     618.5181     550.6431
   1425.00488     619.4110     550.6136   1425.00488     619.4110     550.6136
   1424.98962     619.7043     549.3369   1424.98962     619.7043     549.3369
   1424.97437     620.1066     550.1368   1424.97437     620.1066     550.1368
   1424.95911     620.7009     549.2630   1424.95911     620.7009     549.2630
   1424.94385     620.7495     549.4059   1424.94385     620.7495     549.4059
   1424.92859     620.3071     549.8517   1424.92859     620.3071     549.8517
   1424.91333     620.8309     548.1519   1424.91333     620.8309     548.1519
   1424.89807     620.5695     548.0295   1424.89807     620.5695     548.0295
   1424.88281     621.8729     547.8589   1424.88281     621.8729     547.8589
   1424.86755     621.7330     547.5225   1424.86755     621.7330     547.5225
   1424.85229     621.8785     546.1157   1424.85229     621.8785     546.1157
   1424.83704     622.1718     547.4877   1424.83704     622.1718     547.4877
   1424.82178     622.5187     546.3094   1424.82178     622.5187     546.3094
   1424.80652     622.7493     547.1636   1424.80652     622.7493     547.1636
   1424.79126     622.5820     546.2064   1424.79126     622.5820     546.2064
   1424.77600     623.2162     546.3295   1424.77600     623.2162     546.3295
   1424.76074     623.0605     544.4247   1424.76074     623.0605     544.4247
   1424.74548     623.8027     543.7180   1424.74548     623.8027     543.7180
   1424.73022     624.3787     544.0103   1424.73022     624.3787     544.0103
   1424.71497     623.8996     543.5870   1424.71497     623.8996     543.5870
   1424.69971     623.3818     543.1015   1424.69971     623.3818     543.1015
   1424.68445     624.9395     542.5425   1424.68445     624.9395     542.5425
   1424.66919     623.0326     542.4944   1424.66919     623.0326     542.4944
   1424.65393     624.0820     542.2180   1424.65393     624.0820     542.2180
   1424.63867     623.6096     542.0590   1424.63867     623.6096     542.0590
   1424.62341     623.5287     540.9377   1424.62341     623.5287     540.9377
   1424.60815     623.8341     539.9738   1424.60815     623.8341     539.9738
   1424.59290     623.9234     540.2043   1424.59290     623.9234     540.2043
   1424.57764     623.0256     539.4806   1424.57764     623.0256     539.4806
   1424.56238     623.4578     539.2874   1424.56238     623.4578     539.2874
   1424.54712     623.5745     537.9357   1424.54712     623.5745     537.9357
   1424.53186     622.9200     538.0279   1424.53186     622.9200     538.0279
   1424.51660     622.9177     537.7345   1424.51660     622.9177     537.7345
   1424.50134     622.1418     538.1047   1424.50134     622.1418     538.1047
   1424.48608     622.1539     536.9450   1424.48608     622.1539     536.9450
   1424.47083     623.2526     535.5793   1424.47083     623.2526     535.5793
   1424.45557     622.9700     535.7052   1424.45557     622.9700     535.7052
   1424.44031     622.2393     535.1797   1424.44031     622.2393     535.1797
   1424.42505     622.5067     534.1774   1424.42505     622.5067     534.1774
   1424.40979     622.0839     533.3544   1424.40979     622.0839     533.3544
   1424.39453     622.2946     533.3174   1424.39453     622.2946     533.3174
   1424.37927     621.9241     532.1176   1424.37927     621.9241     532.1176
   1424.36401     621.9003     532.6846   1424.36401     621.9003     532.6846
   1424.34875     621.2250     532.3543   1424.34875     621.2250     532.3543
   1424.33350     621.5726     531.1264   1424.33350     621.5726     531.1264
   1424.31824     621.2744     530.9497   1424.31824     621.2744     530.9497
   1424.30298     620.3456     530.5390   1424.30298     620.3456     530.5390
   1424.28772     620.6153     530.1938   1424.28772     620.6153     530.1938
   1424.27246     620.8594     528.7266   1424.27246     620.8594     528.7266
   1424.25720     620.1647     528.9026   1424.25720     620.1647     528.9026
   1424.24194     620.6451     527.8246   1424.24194     620.6451     527.8246
   1424.22668     620.0262     527.4257   1424.22668     620.0262     527.4257
   1424.21143     619.5939     526.2474   1424.21143     619.5939     526.2474
   1424.19617     618.9558     526.0558   1424.19617     618.9558     526.0558
   1424.18091     618.0092     525.2841   1424.18091     618.0092     525.2841
   1424.16565     618.3268     524.7841   1424.16565     618.3268     524.7841
   1424.15039     617.2246     524.4591   1424.15039     617.2246     524.4591
   1424.13513     617.8704     523.3835   1424.13513     617.8704     523.3835
   1424.11987     617.7625     523.3076   1424.11987     617.7625     523.3076
   1424.10461     617.6257     522.5261   1424.10461     617.6257     522.5261
   1424.08936     616.8859     521.9295   1424.08936     616.8859     521.9295
   1424.07410     617.4846     520.6119   1424.07410     617.4846     520.6119
   1424.05884     616.9332     520.5137   1424.05884     616.9332     520.5137
   1424.04358     616.5380     519.9194   1424.04358     616.5380     519.9194
   1424.02832     616.2548     519.0983   1424.02832     616.2548     519.0983
   1424.01306     616.2034     519.0338   1424.01306     616.2034     519.0338
   1423.99780     615.4183     518.1826   1423.99780     615.4183     518.1826
   1423.98254     615.4730     516.9819   1423.98254     615.4730     516.9819
   1423.96729     615.9814     516.3997   1423.96729     615.9814     516.3997
   1423.95203     615.1232     516.6757   1423.95203     615.1232     516.6757
   1423.93677     614.3612     516.1777   1423.93677     614.3612     516.1777
   1423.92151     612.5641     514.8770   1423.92151     612.5641     514.8770
   1423.90625     614.1727     515.1197   1423.90625     614.1727     515.1197
   1423.89099     612.6443     513.6652   1423.89099     612.6443     513.6652
   1423.87573     613.0896     512.8751   1423.87573     613.0896     512.8751
   1423.86047     612.5758     512.0263   1423.86047     612.5758     512.0263
   1423.84521     612.1910     511.8339   1423.84521     612.1910     511.8339
   1423.82996     611.7015     510.2976   1423.82996     611.7015     510.2976
   1423.81470     610.7239     509.5100   1423.81470     610.7239     509.5100
   1423.79944     610.7365     509.3090   1423.79944     610.7365     509.3090
   1423.78418     610.9600     508.7190   1423.78418     610.9600     508.7190
   1423.76892     610.3480     508.3825   1423.76892     610.3480     508.3825
   1423.75366     609.5486     507.4294   1423.75366     609.5486     507.4294
   1423.73840     609.7682     507.2883   1423.73840     609.7682     507.2883
   1423.72314     609.7827     506.0567   1423.72314     609.7827     506.0567
   1423.70789     608.5063     505.7068   1423.70789     608.5063     505.7068
   1423.69263     608.9274     505.3123   1423.69263     608.9274     505.3123
   1423.67737     609.2554     504.9205   1423.67737     609.2554     504.9205
   1423.66211     608.4456     503.6019   1423.66211     608.4456     503.6019
   1423.64685     607.6854     502.3390   1423.64685     607.6854     502.3390
   1423.63159     607.4774     501.9022   1423.63159     607.4774     501.9022
   1423.61633     607.9929     502.4937   1423.61633     607.9929     502.4937
   1423.60107     606.6487     500.9030   1423.60107     606.6487     500.9030
   1423.58582     607.1913     500.6378   1423.58582     607.1913     500.6378
   1423.57056     606.7392     500.2434   1423.57056     606.7392     500.2434
   1423.55530     606.4630     497.9751   1423.55530     606.4630     497.9751
   1423.54004     605.2905     498.1731   1423.54004     605.2905     498.1731
   1423.52478     605.1558     497.1328   1423.52478     605.1558     497.1328
   1423.50952     604.5294     497.1291   1423.50952     604.5294     497.1291
   1423.49426     604.5884     495.8855   1423.49426     604.5884     495.8855
   1423.47900     604.2843     495.8825   1423.47900     604.2843     495.8825
   1423.46375     604.6750     494.9498   1423.46375     604.6750     494.9498
   1423.44849     603.9744     494.0759   1423.44849     603.9744     494.0759
   1423.43323     603.1097     492.9863   1423.43323     603.1097     492.9863
   1423.41797     603.9528     492.3663   1423.41797     603.9528     492.3663
   1423.40271     602.4570     491.8305   1423.40271     602.4570     491.8305
   1423.38745     602.9149     490.7778   1423.38745     602.9149     490.7778
   1423.37219     601.1301     490.3501   1423.37219     601.1301     490.3501
   1423.35693     602.3348     490.7424   1423.35693     602.3348     490.7424
   1423.34167     602.0981     489.6775   1423.34167     602.0981     489.6775
   1423.32642     601.1240     487.6282   1423.32642     601.1240     487.6282
   1423.31116     600.7742     487.3810   1423.31116     600.7742     487.3810
   1423.29590     601.0945     486.5597   1423.29590     601.0945     486.5597
   1423.28064     600.9099     485.8427   1423.28064     600.9099     485.8427
   1423.26538     599.8688     485.8444   1423.26538     599.8688     485.8444
   1423.25012     600.0634     484.6135   1423.25012     600.0634     484.6135
   1423.23486     599.0959     483.8871   1423.23486     599.0959     483.8871
   1423.21960     599.3977     484.2646   1423.21960     599.3977     484.2646
   1423.20435     599.9218     483.2371   1423.20435     599.9218     483.2371
   1423.18909     598.8113     481.8036   1423.18909     598.8113     481.8036
   1423.17383     598.8488     481.5815   1423.17383     598.8488     481.5815
   1423.15857     597.5806     480.5161   1423.15857     597.5806     480.5161
   1423.14331     598.9181     479.4028   1423.14331     598.9181     479.4028
   1423.12805     598.3848     480.1776   1423.12805     598.3848     480.1776
   1423.11279     597.9736     478.2586   1423.11279     597.9736     478.2586
   1423.09753     597.8634     477.8135   1423.09753     597.8634     477.8135
   1423.08228     597.2890     477.2510   1423.08228     597.2890     477.2510
   1423.06702     597.2084     477.0155   1423.06702     597.2084     477.0155
   1423.05176     597.3215     475.3017   1423.05176     597.3215     475.3017
   1423.03650     596.4652     474.3075   1423.03650     596.4652     474.3075
   1423.02124     597.6406     474.0914   1423.02124     597.6406     474.0914
   1423.00598     595.5905     473.4020   1423.00598     595.5905     473.4020
   1422.99072     596.1174     472.8015   1422.99072     596.1174     472.8015
   1422.97546     596.2276     471.8601   1422.97546     596.2276     471.8601
   1422.96021     594.2975     472.0285   1422.96021     594.2975     472.0285
   1422.94495     594.7352     470.8015   1422.94495     594.7352     470.8015
   1422.92969     594.8600     470.4785   1422.92969     594.8600     470.4785
   1422.91443     594.9694     469.2711   1422.91443     594.9694     469.2711
   1422.89917     594.5627     468.7693   1422.89917     594.5627     468.7693
   1422.88391     594.7796     467.5606   1422.88391     594.7796     467.5606
   1422.86865     593.9570     466.7834   1422.86865     593.9570     466.7834
   1422.85339     594.2773     466.0287   1422.85339     594.2773     466.0287
   1422.83813     593.8784     465.5669   1422.83813     593.8784     465.5669
   1422.82288     593.8030     464.8101   1422.82288     593.8030     464.8101
   1422.80762     593.4711     464.7363   1422.80762     593.4711     464.7363
   1422.79236     593.0823     463.3077   1422.79236     593.0823     463.3077
   1422.77710     592.7911     462.8738   1422.77710     592.7911     462.8738
   1422.76184     592.9640     461.5686   1422.76184     592.9640     461.5686
   1422.74658     592.6588     461.5512   1422.74658     592.6588     461.5512
   1422.73132     592.8203     460.6761   1422.73132     592.8203     460.6761
   1422.71606     592.2016     459.9775   1422.71606     592.2016     459.9775
   1422.70081     591.5631     459.8062   1422.70081     591.5631     459.8062
   1422.68555     591.0548     458.3817   1422.68555     591.0548     458.3817
   1422.67029     592.5317     457.4441   1422.67029     592.5317     457.4441
   1422.65503     592.0554     457.8322   1422.65503     592.0554     457.8322
   1422.63977     592.0877     456.8228   1422.63977     592.0877     456.8228
   1422.62451     591.8038     455.9092   1422.62451     591.8038     455.9092
   1422.60925     591.4369     455.1593   1422.60925     591.4369     455.1593
   1422.59399     591.7317     454.2628   1422.59399     591.7317     454.2628
   1422.57874     591.2092     452.6682   1422.57874     591.2092     452.6682
   1422.56348     590.7210     453.6068   1422.56348     590.7210     453.6068
   1422.54822     591.1862     452.6490   1422.54822     591.1862     452.6490
   1422.53296     590.8969     452.0889   1422.53296     590.8969     452.0889
   1422.51770     590.4231     450.4599   1422.51770     590.4231     450.4599
   1422.50244     591.8464     449.1967   1422.50244     591.8464     449.1967
   1422.48718     589.6992     448.9676   1422.48718     589.6992     448.9676
   1422.47192     589.6774     448.9754   1422.47192     589.6774     448.9754
   1422.45667     589.4751     447.9525   1422.45667     589.4751     447.9525
   1422.44141     590.1914     446.6747   1422.44141     590.1914     446.6747
   1422.42615     589.9505     446.2138   1422.42615     589.9505     446.2138
   1422.41089     589.8214     445.4670   1422.41089     589.8214     445.4670
   1422.39563     589.2440     444.5854   1422.39563     589.2440     444.5854
   1422.38037     589.3277     443.3638   1422.38037     589.3277     443.3638
   1422.36511     589.3492     443.9241   1422.36511     589.3492     443.9241
   1422.34985     589.4719     442.4223   1422.34985     589.4719     442.4223
   1422.33459     589.7712     441.3659   1422.33459     589.7712     441.3659
   1422.31934     589.0063     441.3521   1422.31934     589.0063     441.3521
   1422.30408     589.3736     440.2032   1422.30408     589.3736     440.2032
   1422.28882     588.9973     439.8263   1422.28882     588.9973     439.8263
   1422.27356     589.6749     439.3647   1422.27356     589.6749     439.3647
   1422.25830     588.6202     438.5303   1422.25830     588.6202     438.5303
   1422.24304     588.4109     437.4263   1422.24304     588.4109     437.4263
   1422.22778     588.1702     436.4397   1422.22778     588.1702     436.4397
   1422.21252     588.1021     436.1276   1422.21252     588.1021     436.1276
   1422.19727     587.9373     435.3786   1422.19727     587.9373     435.3786
   1422.18201     588.4630     434.9778   1422.18201     588.4630     434.9778
   1422.16675     589.0312     433.4486   1422.16675     589.0312     433.4486
   1422.15149     589.0123     432.4290   1422.15149     589.0123     432.4290
   1422.13623     588.3753     431.7663   1422.13623     588.3753     431.7663
   1422.12097     588.2839     432.0300   1422.12097     588.2839     432.0300
   1422.10571     587.9725     430.4316   1422.10571     587.9725     430.4316
   1422.09045     587.3986     430.8947   1422.09045     587.3986     430.8947
   1422.07520     587.6082     429.5810   1422.07520     587.6082     429.5810
   1422.05994     589.2449     428.5417   1422.05994     589.2449     428.5417
   1422.04468     587.6369     427.6888   1422.04468     587.6369     427.6888
   1422.02942     587.7039     428.0134   1422.02942     587.7039     428.0134
   1422.01416     588.4187     426.7650   1422.01416     588.4187     426.7650
   1421.99890     587.5021     425.6780   1421.99890     587.5021     425.6780
   1421.98364     587.7848     424.9560   1421.98364     587.7848     424.9560
   1421.96838     587.9979     424.5895   1421.96838     587.9979     424.5895
   1421.95312     586.8243     423.5133   1421.95312     586.8243     423.5133
   1421.93787     587.4683     423.0209   1421.93787     587.4683     423.0209
   1421.92261     587.9244     422.3604   1421.92261     587.9244     422.3604
   1421.90735     587.0832     421.0363   1421.90735     587.0832     421.0363
   1421.89209     586.5015     420.3675   1421.89209     586.5015     420.3675
   1421.87683     587.8555     420.0318   1421.87683     587.8555     420.0318
   1421.86157     587.5723     419.9051   1421.86157     587.5723     419.9051
   1421.84631     587.8056     418.5447   1421.84631     587.8056     418.5447
   1421.83105     587.7911     417.6298   1421.83105     587.7911     417.6298
   1421.81580     586.3502     416.8422   1421.81580     586.3502     416.8422
   1421.80054     587.1739     416.4742   1421.80054     587.1739     416.4742
   1421.78528     586.4144     415.8276   1421.78528     586.4144     415.8276
   1421.77002     586.4497     415.0270   1421.77002     586.4497     415.0270
   1421.75476     586.6755     414.0906   1421.75476     586.6755     414.0906
   1421.73950     586.5457     413.3569   1421.73950     586.5457     413.3569
   1421.72424     586.3917     412.9552   1421.72424     586.3917     412.9552
   1421.70898     587.4277     411.3205   1421.70898     587.4277     411.3205
   1421.69373     586.3840     411.0115   1421.69373     586.3840     411.0115
   1421.67847     586.2233     410.9657   1421.67847     586.2233     410.9657
   1421.66321     585.3406     409.6852   1421.66321     585.3406     409.6852
   1421.64795     586.4116     409.0092   1421.64795     586.4116     409.0092
   1421.63269     586.2274     408.0950   1421.63269     586.2274     408.0950
   1421.61743     586.1099     407.6834   1421.61743     586.1099     407.6834
   1421.60217     586.6354     407.0863   1421.60217     586.6354     407.0863
   1421.58691     585.0302     406.2949   1421.58691     585.0302     406.2949
   1421.57166     585.3950     405.6393   1421.57166     585.3950     405.6393
   1421.55640     585.9081     404.9127   1421.55640     585.9081     404.9127
   1421.54114     584.9250     404.3389   1421.54114     584.9250     404.3389
   1421.52588     586.4304     403.6175   1421.52588     586.4304     403.6175
   1421.51062     585.4332     402.6285   1421.51062     585.4332     402.6285
   1421.49536     585.8469     402.5244   1421.49536     585.8469     402.5244
   1421.48010     584.9929     401.1519   1421.48010     584.9929     401.1519
   1421.46484     584.8734     399.9630   1421.46484     584.8734     399.9630
   1421.44958     584.7094     399.6782   1421.44958     584.7094     399.6782
   1421.43433     585.7123     399.3219   1421.43433     585.7123     399.3219
   1421.41907     584.5410     398.2612   1421.41907     584.5410     398.2612
   1421.40381     584.4731     398.2562   1421.40381     584.4731     398.2562
   1421.38855     584.2554     397.8175   1421.38855     584.2554     397.8175
   1421.37329     584.9648     396.1339   1421.37329     584.9648     396.1339
   1421.35803     584.1210     395.3408   1421.35803     584.1210     395.3408
   1421.34277     584.6479     394.5363   1421.34277     584.6479     394.5363
   1421.32751     584.2871     394.0800   1421.32751     584.2871     394.0800
   1421.31226     584.3440     392.9008   1421.31226     584.3440     392.9008
   1421.29700     584.4144     392.4650   1421.29700     584.4144     392.4650
   1421.28174     583.0228     392.1072   1421.28174     583.0228     392.1072
   1421.26648     583.2403     390.8027   1421.26648     583.2403     390.8027
   1421.25122     582.7269     390.9702   1421.25122     582.7269     390.9702
   1421.23596     583.5215     389.5823   1421.23596     583.5215     389.5823
   1421.22070     582.5231     389.0950   1421.22070     582.5231     389.0950
   1421.20544     583.5385     388.5513   1421.20544     583.5385     388.5513
   1421.19019     582.4759     388.2834   1421.19019     582.4759     388.2834
   1421.17493     582.4827     387.1949   1421.17493     582.4827     387.1949
   1421.15967     582.7880     386.5563   1421.15967     582.7880     386.5563
   1421.14441     582.5728     385.8221   1421.14441     582.5728     385.8221
   1421.12915     582.5253     384.9615   1421.12915     582.5253     384.9615
   1421.11389     582.2534     385.0170   1421.11389     582.2534     385.0170
   1421.09863     582.1655     383.6833   1421.09863     582.1655     383.6833
   1421.08337     581.4526     382.3303   1421.08337     581.4526     382.3303
   1421.06812     580.7000     382.3864   1421.06812     580.7000     382.3864
   1421.05286     581.5418     381.2776   1421.05286     581.5418     381.2776
   1421.03760     580.7779     380.6623   1421.03760     580.7779     380.6623
   1421.02234     580.8589     380.3839   1421.02234     580.8589     380.3839
   1421.00708     581.7953     379.8541   1421.00708     581.7953     379.8541
   1420.99182     580.8739     379.0590   1420.99182     580.8739     379.0590
   1420.97656     580.6079     378.0071   1420.97656     580.6079     378.0071
   1420.96130     579.8203     377.5853   1420.96130     579.8203     377.5853
   1420.94604     581.6812     376.8234   1420.94604     581.6812     376.8234
   1420.93079     581.3984     376.5999   1420.93079     581.3984     376.5999
   1420.91553     580.6517     375.6644   1420.91553     580.6517     375.6644
   1420.90027     580.2414     374.8983   1420.90027     580.2414     374.8983
   1420.88501     580.2251     374.2968   1420.88501     580.2251     374.2968
   1420.86975     580.4335     374.1631   1420.86975     580.4335     374.1631
   1420.85449     580.2726     373.3549   1420.85449     580.2726     373.3549
   1420.83923     579.8253     372.6167   1420.83923     579.8253     372.6167
   1420.82397     580.1284     371.6807   1420.82397     580.1284     371.6807
   1420.80872     581.5776     371.3492   1420.80872     581.5776     371.3492
   1420.79346     579.8810     371.1686   1420.79346     579.8810     371.1686
   1420.77820     580.2228     370.4485   1420.77820     580.2228     370.4485
   1420.76294     581.3227     369.6013   1420.76294     581.3227     369.6013
   1420.74768     580.5903     369.9040   1420.74768     580.5903     369.9040
   1420.73242     582.2304     369.4441   1420.73242     582.2304     369.4441
   1420.71716     581.7117     368.5760   1420.71716     581.7117     368.5760
   1420.70190     581.2187     368.9839   1420.70190     581.2187     368.9839
   1420.68665     582.1531     368.3712   1420.68665     582.1531     368.3712
   1420.67139     583.1628     368.0045   1420.67139     583.1628     368.0045
   1420.65613     583.7871     367.7874   1420.65613     583.7871     367.7874
   1420.64087     583.9133     367.5044   1420.64087     583.9133     367.5044
   1420.62561     586.3766     368.1873   1420.62561     586.3766     368.1873
   1420.61035     587.9031     368.4507   1420.61035     587.9031     368.4507
   1420.59509     590.9065     370.1295   1420.59509     590.9065     370.1295
   1420.57983     596.1733     372.5869   1420.57983     596.1733     372.5869
   1420.56458     603.2859     376.2156   1420.56458     603.2859     376.2156
   1420.54932     616.4990     383.5900   1420.54932     616.4990     383.5900
   1420.53406     630.6417     392.7141   1420.53406     630.6417     392.7141
   1420.51880     645.8458     400.7653   1420.51880     645.8458     400.7653
   1420.50354     660.8733     409.1705   1420.50354     660.8733     409.1705
   1420.48828     683.3850     422.5220   1420.48828     683.3850     422.5220
   1420.47302     722.1364     445.8061   1420.47302     722.1364     445.8061
   1420.45776     821.7231     505.7226   1420.45776     821.7231     505.7226
   1420.44250    1047.8627     639.7513   1420.44250    1047.8627     639.7513
   1420.42725    1312.9877     800.2618   1420.42725    1312.9877     800.2618
   1420.41199    1569.0203     953.2532   1420.41199    1569.0203     953.2532
   1420.39673    1817.2260    1101.3975   1420.39673    1817.2260    1101.3975
   1420.38147    2040.6027    1234.6633   1420.38147    2040.6027    1234.6633
   1420.36621    2128.2856    1283.0585   1420.36621    2128.2856    1283.0585
   1420.35095    2137.9851    1288.1030   1420.35095    2137.9851    1288.1030
   1420.33569    2063.8157    1245.3197   1420.33569    2063.8157    1245.3197
   1420.32043    1905.0485    1147.2129   1420.32043    1905.0485    1147.2129
   1420.30518    1785.7225    1073.1238   1420.30518    1785.7225    1073.1238
   1420.28992    1590.1208     957.7472   1420.28992    1590.1208     957.7472
   1420.27466    1095.0359     659.9605   1420.27466    1095.0359     659.9605
   1420.25940     782.6804     473.4811   1420.25940     782.6804     473.4811
   1420.24414     675.0192     407.8191   1420.24414     675.0192     407.8191
   1420.22888     627.8551     380.7246   1420.22888     627.8551     380.7246
   1420.21362     605.7385     366.1654   1420.21362     605.7385     366.1654
   1420.19836     592.9318     358.8997   1420.19836     592.9318     358.8997
   1420.18311     586.6252     353.5262   1420.18311     586.6252     353.5262
   1420.16785     583.0687     351.0772   1420.16785     583.0687     351.0772
   1420.15259     580.3877     349.5065   1420.15259     580.3877     349.5065
   1420.13733     578.6639     347.7542   1420.13733     578.6639     347.7542
   1420.12207     576.0788     345.7704   1420.12207     576.0788     345.7704
   1420.10681     575.5565     344.6115   1420.10681     575.5565     344.6115
   1420.09155     573.3090     342.8091   1420.09155     573.3090     342.8091
   1420.07629     572.2725     342.3852   1420.07629     572.2725     342.3852
   1420.06104     572.4506     341.3376   1420.06104     572.4506     341.3376
   1420.04578     571.1851     340.7410   1420.04578     571.1851     340.7410
   1420.03052     571.6131     340.2564   1420.03052     571.6131     340.2564
   1420.01526     570.6935     339.8603   1420.01526     570.6935     339.8603
   1420.00000     571.4741     340.5698   1420.00000     571.4741     340.5698
   1419.98474     572.2547     341.2793   1419.98474     572.2547     341.2793
   1419.96948     572.3563     338.6695   1419.96948     572.3563     338.6695
   1419.95422     569.9467     337.6451   1419.95422     569.9467     337.6451
   1419.93896     569.5933     336.6162   1419.93896     569.5933     336.6162
   1419.92371     569.6123     336.3030   1419.92371     569.6123     336.3030
   1419.90845     570.0132     335.1108   1419.90845     570.0132     335.1108
   1419.89319     568.7964     335.2301   1419.89319     568.7964     335.2301
   1419.87793     568.5312     334.2685   1419.87793     568.5312     334.2685
   1419.86267     569.4752     333.7143   1419.86267     569.4752     333.7143
   1419.84741     569.3278     334.0061   1419.84741     569.3278     334.0061
   1419.83215     569.0987     333.3502   1419.83215     569.0987     333.3502
   1419.81689     569.0536     332.6186   1419.81689     569.0536     332.6186
   1419.80164     569.4169     331.9763   1419.80164     569.4169     331.9763
   1419.78638     568.1094     331.5433   1419.78638     568.1094     331.5433
   1419.77112     568.2053     331.5976   1419.77112     568.2053     331.5976
   1419.75586     569.4611     331.4014   1419.75586     569.4611     331.4014
   1419.74060     569.3306     330.8723   1419.74060     569.3306     330.8723
   1419.72534     569.6269     329.7518   1419.72534     569.6269     329.7518
   1419.71008     568.1746     329.7043   1419.71008     568.1746     329.7043
   1419.69482     568.5995     329.5273   1419.69482     568.5995     329.5273
   1419.67957     568.3351     328.9467   1419.67957     568.3351     328.9467
   1419.66431     568.7166     328.7480   1419.66431     568.7166     328.7480
   1419.64905     569.1876     328.8275   1419.64905     569.1876     328.8275
   1419.63379     569.2796     328.5160   1419.63379     569.2796     328.5160
   1419.61853     568.2962     328.1257   1419.61853     568.2962     328.1257
   1419.60327     569.3989     327.3750   1419.60327     569.3989     327.3750
   1419.58801     568.6047     327.2545   1419.58801     568.6047     327.2545
   1419.57275     568.7773     326.1369   1419.57275     568.7773     326.1369
   1419.55750     569.3023     326.3426   1419.55750     569.3023     326.3426
   1419.54224     569.0636     326.1980   1419.54224     569.0636     326.1980
   1419.52698     569.1057     325.8541   1419.52698     569.1057     325.8541
   1419.51172     569.8405     326.0917   1419.51172     569.8405     326.0917
   1419.49646     569.3471     325.0732   1419.49646     569.3471     325.0732
   1419.48120     569.2714     324.9468   1419.48120     569.2714     324.9468
   1419.46594     569.8285     324.7408   1419.46594     569.8285     324.7408
   1419.45068     569.8278     324.9325   1419.45068     569.8278     324.9325
   1419.43542     570.3228     324.7038   1419.43542     570.3228     324.7038
   1419.42017     570.0182     324.4082   1419.42017     570.0182     324.4082
   1419.40491     570.4626     323.8718   1419.40491     570.4626     323.8718
   1419.38965     571.2074     323.9576   1419.38965     571.2074     323.9576
   1419.37439     570.6192     323.9143   1419.37439     570.6192     323.9143
   1419.35913     570.9280     323.5951   1419.35913     570.9280     323.5951
   1419.34387     571.5897     323.0488   1419.34387     571.5897     323.0488
   1419.32861     571.8428     323.3100   1419.32861     571.8428     323.3100
   1419.31335     571.3049     323.0667   1419.31335     571.3049     323.0667
   1419.29810     571.9234     322.6353   1419.29810     571.9234     322.6353
   1419.28284     571.5906     322.6577   1419.28284     571.5906     322.6577
   1419.26758     571.7631     323.0659   1419.26758     571.7631     323.0659
   1419.25232     572.1597     322.4535   1419.25232     572.1597     322.4535
   1419.23706     572.4363     322.2781   1419.23706     572.4363     322.2781
   1419.22180     572.3503     321.9800   1419.22180     572.3503     321.9800
   1419.20654     572.1003     322.0361   1419.20654     572.1003     322.0361
   1419.19128     572.1532     321.5868   1419.19128     572.1532     321.5868
   1419.17603     572.5446     322.0255   1419.17603     572.5446     322.0255
   1419.16077     573.4648     322.1933   1419.16077     573.4648     322.1933
   1419.14551     573.6239     321.1710   1419.14551     573.6239     321.1710
   1419.13025     574.2706     321.9641   1419.13025     574.2706     321.9641
   1419.11499     574.9295     321.8051   1419.11499     574.9295     321.8051
   1419.09973     574.7294     321.2434   1419.09973     574.7294     321.2434
   1419.08447     575.1284     320.7958   1419.08447     575.1284     320.7958
   1419.06921     575.3739     321.2311   1419.06921     575.3739     321.2311
   1419.05396     576.0849     321.4037   1419.05396     576.0849     321.4037
   1419.03870     575.7975     320.8514   1419.03870     575.7975     320.8514
   1419.02344     576.1039     321.0849   1419.02344     576.1039     321.0849
   1419.00818     576.0615     321.3063   1419.00818     576.0615     321.3063
   1418.99292     576.1298     321.5396   1418.99292     576.1298     321.5396
   1418.97766     576.8665     321.9593   1418.97766     576.8665     321.9593
   1418.96240     577.8055     320.8437   1418.96240     577.8055     320.8437
   1418.94714     576.8207     321.2903   1418.94714     576.8207     321.2903
   1418.93188     577.5929     321.8116   1418.93188     577.5929     321.8116
   1418.91663     578.0511     321.2732   1418.91663     578.0511     321.2732
   1418.90137     578.8649     321.0672   1418.90137     578.8649     321.0672
   1418.88611     578.8745     321.1744   1418.88611     578.8745     321.1744
   1418.87085     579.4113     321.6234   1418.87085     579.4113     321.6234
   1418.85559     579.6801     322.0944   1418.85559     579.6801     322.0944
   1418.84033     580.3175     321.6174   1418.84033     580.3175     321.6174
   1418.82507     580.2216     322.0656   1418.82507     580.2216     322.0656
   1418.80981     581.9449     321.9922   1418.80981     581.9449     321.9922
   1418.79456     580.8782     322.1591   1418.79456     580.8782     322.1591
   1418.77930     581.9875     321.9796   1418.77930     581.9875     321.9796
   1418.76404     581.8538     322.1446   1418.76404     581.8538     322.1446
   1418.74878     582.2280     322.1987   1418.74878     582.2280     322.1987
   1418.73352     581.8720     322.6109   1418.73352     581.8720     322.6109
   1418.71826     583.4711     322.7353   1418.71826     583.4711     322.7353
   1418.70300     584.1400     322.8867   1418.70300     584.1400     322.8867
   1418.68774     583.8401     323.3011   1418.68774     583.8401     323.3011
   1418.67249     584.1703     322.9717   1418.67249     584.1703     322.9717
   1418.65723     584.7184     323.1130   1418.65723     584.7184     323.1130
   1418.64197     585.2809     323.6180   1418.64197     585.2809     323.6180
   1418.62671     585.2764     323.4008   1418.62671     585.2764     323.4008
   1418.61145     586.4443     323.5854   1418.61145     586.4443     323.5854
   1418.59619     586.4232     323.9405   1418.59619     586.4232     323.9405
   1418.58093     587.1287     324.5128   1418.58093     587.1287     324.5128
   1418.56567     587.1926     324.7566   1418.56567     587.1926     324.7566
   1418.55042     587.8104     324.8662   1418.55042     587.8104     324.8662
   1418.53516     588.6694     325.4894   1418.53516     588.6694     325.4894
   1418.51990     588.5222     325.5167   1418.51990     588.5222     325.5167
   1418.50464     589.0225     325.9491   1418.50464     589.0225     325.9491
   1418.48938     588.6382     326.0937   1418.48938     588.6382     326.0937
   1418.47412     589.5103     326.2038   1418.47412     589.5103     326.2038
   1418.45886     590.2549     326.5611   1418.45886     590.2549     326.5611
   1418.44360     589.9083     326.2674   1418.44360     589.9083     326.2674
   1418.42834     591.4420     327.0017   1418.42834     591.4420     327.0017
   1418.41309     591.4192     327.6543   1418.41309     591.4192     327.6543
   1418.39783     592.2094     327.2916   1418.39783     592.2094     327.2916
   1418.38257     593.1711     328.1804   1418.38257     593.1711     328.1804
   1418.36731     593.0251     328.3362   1418.36731     593.0251     328.3362
   1418.35205     594.4729     328.8733   1418.35205     594.4729     328.8733
   1418.33679     594.1967     329.2840   1418.33679     594.1967     329.2840
   1418.32153     595.1022     329.4326   1418.32153     595.1022     329.4326
   1418.30627     595.5207     329.5445   1418.30627     595.5207     329.5445
   1418.29102     596.2811     330.4619   1418.29102     596.2811     330.4619
   1418.27576     597.0432     330.0067   1418.27576     597.0432     330.0067
   1418.26050     597.0233     330.9844   1418.26050     597.0233     330.9844
   1418.24524     598.5245     331.3109   1418.24524     598.5245     331.3109
   1418.22998     599.1282     331.9829   1418.22998     599.1282     331.9829
   1418.21472     598.7674     332.2106   1418.21472     598.7674     332.2106
   1418.19946     600.4001     332.5409   1418.19946     600.4001     332.5409
   1418.18420     600.8525     332.9485   1418.18420     600.8525     332.9485
   1418.16895     600.4583     333.2990   1418.16895     600.4583     333.2990
   1418.15369     600.2503     333.6391   1418.15369     600.2503     333.6391
   1418.13843     602.2567     334.8720   1418.13843     602.2567     334.8720
   1418.12317     602.7666     334.6530   1418.12317     602.7666     334.6530
   1418.10791     602.9762     335.2177   1418.10791     602.9762     335.2177
   1418.09265     603.7480     335.4613   1418.09265     603.7480     335.4613
   1418.07739     604.0250     336.4351   1418.07739     604.0250     336.4351
   1418.06213     604.9811     336.8764   1418.06213     604.9811     336.8764
   1418.04688     604.5707     337.3050   1418.04688     604.5707     337.3050
   1418.03162     607.0963     337.8760   1418.03162     607.0963     337.8760
   1418.01636     607.0764     338.3808   1418.01636     607.0764     338.3808
   1418.00110     607.4499     338.9787   1418.00110     607.4499     338.9787
   1417.98584     608.5495     339.2232   1417.98584     608.5495     339.2232
   1417.97058     608.0809     339.8806   1417.97058     608.0809     339.8806
   1417.95532     608.0515     340.6201   1417.95532     608.0515     340.6201
   1417.94006     609.1457     340.7359   1417.94006     609.1457     340.7359
   1417.92480     609.5908     341.9954   1417.92480     609.5908     341.9954
   1417.90955     610.5915     342.3644   1417.90955     610.5915     342.3644
   1417.89429     611.9940     343.0066   1417.89429     611.9940     343.0066
   1417.87903     612.3674     343.6648   1417.87903     612.3674     343.6648
   1417.86377     611.9639     343.8721   1417.86377     611.9639     343.8721
   1417.84851     612.2152     344.6437   1417.84851     612.2152     344.6437
   1417.83325     614.5129     344.8107   1417.83325     614.5129     344.8107
   1417.81799     613.5513     345.8346   1417.81799     613.5513     345.8346
   1417.80273     615.2811     346.2001   1417.80273     615.2811     346.2001
   1417.78748     615.9979     347.2663   1417.78748     615.9979     347.2663
   1417.77222     617.0470     347.7971   1417.77222     617.0470     347.7971
   1417.75696     617.8855     348.5887   1417.75696     617.8855     348.5887
   1417.74170     618.7951     349.1579   1417.74170     618.7951     349.1579
   1417.72644     618.8036     349.2230   1417.72644     618.8036     349.2230
   1417.71118     618.9418     350.5649   1417.71118     618.9418     350.5649
   1417.69592     618.8660     351.2155   1417.69592     618.8660     351.2155
   1417.68066     619.9605     351.3457   1417.68066     619.9605     351.3457
   1417.66541     619.9659     352.3092   1417.66541     619.9659     352.3092
   1417.65015     621.1685     352.8854   1417.65015     621.1685     352.8854
   1417.63489     622.4034     353.5317   1417.63489     622.4034     353.5317
   1417.61963     622.4501     355.1818   1417.61963     622.4501     355.1818
   1417.60437     623.9374     354.8974   1417.60437     623.9374     354.8974
   1417.58911     623.6056     356.2758   1417.58911     623.6056     356.2758
   1417.57385     625.6354     356.4346   1417.57385     625.6354     356.4346
   1417.55859     624.8493     357.7270   1417.55859     624.8493     357.7270
   1417.54333     625.1594     358.2015   1417.54333     625.1594     358.2015
   1417.52808     626.2117     359.9049   1417.52808     626.2117     359.9049
   1417.51282     626.6409     359.9451   1417.51282     626.6409     359.9451
   1417.49756     627.9615     360.3524   1417.49756     627.9615     360.3524
   1417.48230     629.0106     361.5662   1417.48230     629.0106     361.5662
   1417.46704     628.4475     362.3033   1417.46704     628.4475     362.3033
   1417.45178     628.2508     362.9174   1417.45178     628.2508     362.9174
   1417.43652     630.4231     363.6043   1417.43652     630.4231     363.6043
   1417.42126     631.2330     364.0252   1417.42126     631.2330     364.0252
   1417.40601     631.3586     364.9456   1417.40601     631.3586     364.9456
   1417.39075     631.5187     366.3378   1417.39075     631.5187     366.3378
   1417.37549     631.8256     367.3484   1417.37549     631.8256     367.3484
   1417.36023     633.0724     367.4597   1417.36023     633.0724     367.4597
   1417.34497     633.2171     368.3899   1417.34497     633.2171     368.3899
   1417.32971     634.3571     369.0748   1417.32971     634.3571     369.0748
   1417.31445     635.3407     369.8555   1417.31445     635.3407     369.8555
   1417.29919     634.8133     370.6395   1417.29919     634.8133     370.6395
   1417.28394     635.6287     371.4492   1417.28394     635.6287     371.4492
   1417.26868     636.7736     372.1453   1417.26868     636.7736     372.1453
   1417.25342     636.8676     373.1191   1417.25342     636.8676     373.1191
   1417.23816     637.1710     374.2891   1417.23816     637.1710     374.2891
   1417.22290     639.8917     374.8749   1417.22290     639.8917     374.8749
   1417.20764     637.6547     375.8279   1417.20764     637.6547     375.8279
   1417.19238     639.2074     376.6175   1417.19238     639.2074     376.6175
   1417.17712     639.6775     377.6615   1417.17712     639.6775     377.6615
   1417.16187     639.8001     378.3758   1417.16187     639.8001     378.3758
   1417.14661     639.3657     378.8961   1417.14661     639.3657     378.8961
   1417.13135     641.4536     380.0460   1417.13135     641.4536     380.0460
   1417.11609     640.9384     380.7131   1417.11609     640.9384     380.7131
   1417.10083     641.4319     381.3148   1417.10083     641.4319     381.3148
   1417.08557     641.5845     382.2636   1417.08557     641.5845     382.2636
   1417.07031     641.7560     383.4644   1417.07031     641.7560     383.4644
   1417.05505     642.7924     384.1394   1417.05505     642.7924     384.1394
   1417.03979     642.9006     385.0208   1417.03979     642.9006     385.0208
   1417.02454     643.2024     386.0685   1417.02454     643.2024     386.0685
   1417.00928     643.9109     386.3517   1417.00928     643.9109     386.3517
   1416.99402     643.4309     386.8609   1416.99402     643.4309     386.8609
   1416.97876     644.8279     387.9774   1416.97876     644.8279     387.9774
   1416.96350     645.4134     388.7096   1416.96350     645.4134     388.7096
   1416.94824     644.9211     389.0936   1416.94824     644.9211     389.0936
   1416.93298     645.3058     389.8281   1416.93298     645.3058     389.8281
   1416.91772     647.1059     390.9023   1416.91772     647.1059     390.9023
   1416.90247     646.2209     391.9414   1416.90247     646.2209     391.9414
   1416.88721     647.6979     392.4394   1416.88721     647.6979     392.4394
   1416.87195     647.3970     393.8311   1416.87195     647.3970     393.8311
   1416.85669     648.4178     394.1478   1416.85669     648.4178     394.1478
   1416.84143     648.8345     395.2619   1416.84143     648.8345     395.2619
   1416.82617     648.3898     395.8112   1416.82617     648.3898     395.8112
   1416.81091     648.3188     396.4171   1416.81091     648.3188     396.4171
   1416.79565     649.4883     397.2982   1416.79565     649.4883     397.2982
   1416.78040     649.1997     397.8502   1416.78040     649.1997     397.8502
   1416.76514     648.4914     398.8087   1416.76514     648.4914     398.8087
   1416.74988     650.1818     399.2710   1416.74988     650.1818     399.2710
   1416.73462     649.3961     399.9030   1416.73462     649.3961     399.9030
   1416.71936     650.0790     400.8041   1416.71936     650.0790     400.8041
   1416.70410     650.4527     401.3183   1416.70410     650.4527     401.3183
   1416.68884     650.7340     401.8220   1416.68884     650.7340     401.8220
   1416.67358     650.1653     402.9232   1416.67358     650.1653     402.9232
   1416.65833     650.7937     403.3114   1416.65833     650.7937     403.3114
   1416.64307     651.1821     403.5097   1416.64307     651.1821     403.5097
   1416.62781     651.0646     404.4978   1416.62781     651.0646     404.4978
   1416.61255     651.5238     404.8000   1416.61255     651.5238     404.8000
   1416.59729     651.2883     405.9422   1416.59729     651.2883     405.9422
   1416.58203     652.3790     406.4582   1416.58203     652.3790     406.4582
   1416.56677     651.8512     406.6881   1416.56677     651.8512     406.6881
   1416.55151     652.4657     407.3922   1416.55151     652.4657     407.3922
   1416.53625     652.5777     407.9812   1416.53625     652.5777     407.9812
   1416.52100     652.0459     408.6397   1416.52100     652.0459     408.6397
   1416.50574     652.3667     409.0806   1416.50574     652.3667     409.0806
   1416.49048     650.6915     409.3289   1416.49048     650.6915     409.3289
   1416.47522     651.7380     410.2704   1416.47522     651.7380     410.2704
   1416.45996     651.9070     410.6637   1416.45996     651.9070     410.6637
   1416.44470     651.9023     411.1222   1416.44470     651.9023     411.1222
   1416.42944     651.4329     411.6570   1416.42944     651.4329     411.6570
   1416.41418     652.4492     412.5000   1416.41418     652.4492     412.5000
   1416.39893     652.3599     412.5080   1416.39893     652.3599     412.5080
   1416.38367     650.9572     413.0963   1416.38367     650.9572     413.0963
   1416.36841     652.5309     412.7844   1416.36841     652.5309     412.7844
   1416.35315     652.7688     413.4116   1416.35315     652.7688     413.4116
   1416.33789     652.1494     414.4894   1416.33789     652.1494     414.4894
   1416.32263     651.2368     415.0769   1416.32263     651.2368     415.0769
   1416.30737     651.7784     414.5505   1416.30737     651.7784     414.5505
   1416.29211     651.5307     415.9106   1416.29211     651.5307     415.9106
   1416.27686     650.9486     415.7169   1416.27686     650.9486     415.7169
   1416.26160     650.6727     416.1174   1416.26160     650.6727     416.1174
   1416.24634     651.1599     416.6808   1416.24634     651.1599     416.6808
   1416.23108     649.7686     415.7961   1416.23108     649.7686     415.7961
   1416.21582     651.7003     416.7316   1416.21582     651.7003     416.7316
   1416.20056     650.7350     417.3690   1416.20056     650.7350     417.3690
   1416.18530     650.6539     417.0395   1416.18530     650.6539     417.0395
   1416.17004     650.3783     417.9399   1416.17004     650.3783     417.9399
   1416.15479     649.6770     418.0334   1416.15479     649.6770     418.0334
   1416.13953     649.3474     418.6088   1416.13953     649.3474     418.6088
   1416.12427     648.3511     418.8319   1416.12427     648.3511     418.8319
   1416.10901     649.5278     418.9499   1416.10901     649.5278     418.9499
   1416.09375     648.8966     419.3771   1416.09375     648.8966     419.3771
   1416.07849     649.1547     419.5635   1416.07849     649.1547     419.5635
   1416.06323     648.8663     419.9401   1416.06323     648.8663     419.9401
   1416.04797     646.6824     419.7484   1416.04797     646.6824     419.7484
   1416.03271     647.4191     419.3603   1416.03271     647.4191     419.3603
   1416.01746     646.8779     419.3802   1416.01746     646.8779     419.3802
   1416.00220     646.0972     419.9162   1416.00220     646.0972     419.9162
   1415.98694     646.9375     419.8961   1415.98694     646.9375     419.8961
   1415.97168     646.1430     420.4116   1415.97168     646.1430     420.4116
   1415.95642     645.2605     419.8861   1415.95642     645.2605     419.8861
   1415.94116     645.6051     420.8096   1415.94116     645.6051     420.8096
   1415.92590     643.7029     420.1420   1415.92590     643.7029     420.1420
   1415.91064     644.5954     420.6441   1415.91064     644.5954     420.6441
   1415.89539     643.6699     420.9506   1415.89539     643.6699     420.9506
   1415.88013     644.2715     420.9004   1415.88013     644.2715     420.9004
   1415.86487     641.7805     420.6376   1415.86487     641.7805     420.6376
   1415.84961     642.6472     421.2668   1415.84961     642.6472     421.2668
   1415.83435     642.3627     420.8213   1415.83435     642.3627     420.8213
   1415.81909     640.3538     421.7636   1415.81909     640.3538     421.7636
   1415.80383     640.0129     420.6253   1415.80383     640.0129     420.6253
   1415.78857     639.9412     420.8395   1415.78857     639.9412     420.8395
   1415.77332     640.0925     421.4614   1415.77332     640.0925     421.4614
   1415.75806     639.6317     421.0495   1415.75806     639.6317     421.0495
   1415.74280     638.2435     421.3427   1415.74280     638.2435     421.3427
   1415.72754     638.1755     421.1317   1415.72754     638.1755     421.1317
   1415.71228     638.2899     420.7643   1415.71228     638.2899     420.7643
   1415.69702     636.3872     420.7098   1415.69702     636.3872     420.7098
   1415.68176     636.6579     420.7256   1415.68176     636.6579     420.7256
   1415.66650     636.3966     421.6871   1415.66650     636.3966     421.6871
   1415.65125     634.3137     421.0066   1415.65125     634.3137     421.0066
   1415.63599     634.0410     420.8281   1415.63599     634.0410     420.8281
   1415.62073     633.6695     420.9272   1415.62073     633.6695     420.9272
   1415.60547     634.3187     420.7241   1415.60547     634.3187     420.7241
   1415.59021     633.2148     420.6153   1415.59021     633.2148     420.6153
   1415.57495     632.9801     420.6304   1415.57495     632.9801     420.6304
   1415.55969     631.7438     420.7105   1415.55969     631.7438     420.7105
   1415.54443     631.2935     420.1574   1415.54443     631.2935     420.1574
   1415.52917     630.7916     420.0241   1415.52917     630.7916     420.0241
   1415.51392     629.6768     419.9875   1415.51392     629.6768     419.9875
   1415.49866     629.4819     419.8362   1415.49866     629.4819     419.8362
   1415.48340     627.9686     419.7614   1415.48340     627.9686     419.7614
   1415.46814     626.2936     419.7288   1415.46814     626.2936     419.7288
   1415.45288     626.0302     419.5082   1415.45288     626.0302     419.5082
   1415.43762     625.8826     419.3916   1415.43762     625.8826     419.3916
   1415.42236     624.4626     418.9142   1415.42236     624.4626     418.9142
   1415.40710     624.4333     419.0497   1415.40710     624.4333     419.0497
   1415.39185     622.4660     418.8390   1415.39185     622.4660     418.8390
   1415.37659     622.6263     418.5235   1415.37659     622.6263     418.5235
   1415.36133     623.0323     418.9412   1415.36133     623.0323     418.9412
   1415.34607     620.9438     417.7887   1415.34607     620.9438     417.7887
   1415.33081     620.0881     418.9719   1415.33081     620.0881     418.9719
   1415.31555     619.6297     417.5807   1415.31555     619.6297     417.5807
   1415.30029     618.8445     417.3911   1415.30029     618.8445     417.3911
   1415.28503     618.1575     417.2672   1415.28503     618.1575     417.2672
   1415.26978     616.8452     417.2556   1415.26978     616.8452     417.2556
   1415.25452     616.2908     417.2288   1415.25452     616.2908     417.2288
   1415.23926     614.3489     416.7360   1415.23926     614.3489     416.7360
   1415.22400     613.6003     416.5018   1415.22400     613.6003     416.5018
   1415.20874     612.1391     416.1271   1415.20874     612.1391     416.1271
   1415.19348     612.4850     415.5346   1415.19348     612.4850     415.5346
   1415.17822     609.9823     415.3917   1415.17822     609.9823     415.3917
   1415.16296     610.4539     414.8204   1415.16296     610.4539     414.8204
   1415.14771     608.1454     415.4006   1415.14771     608.1454     415.4006
   1415.13245     607.6091     413.8386   1415.13245     607.6091     413.8386
   1415.11719     607.2364     414.1071   1415.11719     607.2364     414.1071
   1415.10193     606.2297     413.5815   1415.10193     606.2297     413.5815
   1415.08667     603.9372     413.1198   1415.08667     603.9372     413.1198
   1415.07141     603.9462     413.0205   1415.07141     603.9462     413.0205
   1415.05615     601.9675     412.9646   1415.05615     601.9675     412.9646
   1415.04089     600.9857     412.3295   1415.04089     600.9857     412.3295
   1415.02563     600.1634     411.4223   1415.02563     600.1634     411.4223
   1415.01038     598.7891     411.7656   1415.01038     598.7891     411.7656
   1414.99512     598.0571     410.8441   1414.99512     598.0571     410.8441
   1414.97986     596.4361     410.0094   1414.97986     596.4361     410.0094
   1414.96460     595.1613     409.8488   1414.96460     595.1613     409.8488
   1414.94934     594.9743     410.1771   1414.94934     594.9743     410.1771
   1414.93408     593.0916     409.3288   1414.93408     593.0916     409.3288
   1414.91882     591.7357     407.9343   1414.91882     591.7357     407.9343
   1414.90356     589.8027     408.0876   1414.90356     589.8027     408.0876
   1414.88831     589.2668     407.7831   1414.88831     589.2668     407.7831
   1414.87305     588.5391     406.4026   1414.87305     588.5391     406.4026
   1414.85779     587.5880     406.4743   1414.85779     587.5880     406.4743
   1414.84253     585.1885     405.7062   1414.84253     585.1885     405.7062
   1414.82727     584.6505     405.1190   1414.82727     584.6505     405.1190
   1414.81201     581.7144     404.7365   1414.81201     581.7144     404.7365
   1414.79675     581.5518     404.5579   1414.79675     581.5518     404.5579
   1414.78149     580.4293     403.5157   1414.78149     580.4293     403.5157
   1414.76624     578.6793     403.4720   1414.76624     578.6793     403.4720
   1414.75098     576.0633     401.6283   1414.75098     576.0633     401.6283
   1414.73572     575.8939     401.7102   1414.73572     575.8939     401.7102
   1414.72046     574.2805     400.4383   1414.72046     574.2805     400.4383
   1414.70520     573.6790     400.0703   1414.70520     573.6790     400.0703
   1414.68994     571.5105     399.0692   1414.68994     571.5105     399.0692
   1414.67468     570.0798     398.9122   1414.67468     570.0798     398.9122
   1414.65942     568.3454     397.9109   1414.65942     568.3454     397.9109
   1414.64417     565.8092     397.2203   1414.64417     565.8092     397.2203
   1414.62891     565.2960     396.5965   1414.62891     565.2960     396.5965
   1414.61365     563.3632     396.1352   1414.61365     563.3632     396.1352
   1414.59839     561.3364     395.0196   1414.59839     561.3364     395.0196
   1414.58313     560.6738     394.1086   1414.58313     560.6738     394.1086
   1414.56787     559.7529     393.6011   1414.56787     559.7529     393.6011
   1414.55261     557.0214     392.6372   1414.55261     557.0214     392.6372
   1414.53735     555.5739     392.4021   1414.53735     555.5739     392.4021
   1414.52209     553.6467     391.3365   1414.52209     553.6467     391.3365
   1414.50684     552.0302     390.2254   1414.50684     552.0302     390.2254
   1414.49158     550.6014     390.2099   1414.49158     550.6014     390.2099
   1414.47632     547.7294     388.8717   1414.47632     547.7294     388.8717
   1414.46106     547.5966     387.4569   1414.46106     547.5966     387.4569
   1414.44580     545.0904     386.7446   1414.44580     545.0904     386.7446
   1414.43054     542.9483     386.0508   1414.43054     542.9483     386.0508
   1414.41528     540.9218     385.1638   1414.41528     540.9218     385.1638
   1414.40002     539.8781     384.8844   1414.40002     539.8781     384.8844
   1414.38477     537.8496     383.6120   1414.38477     537.8496     383.6120
   1414.36951     535.9399     381.6561   1414.36951     535.9399     381.6561
   1414.35425     535.0102     381.4690   1414.35425     535.0102     381.4690
   1414.33899     532.5270     380.1820   1414.33899     532.5270     380.1820
   1414.32373     531.0110     379.6721   1414.32373     531.0110     379.6721
   1414.30847     528.5174     378.6016   1414.30847     528.5174     378.6016
   1414.29321     526.6229     377.0965   1414.29321     526.6229     377.0965
   1414.27795     524.6050     376.4077   1414.27795     524.6050     376.4077
   1414.26270     522.3937     375.8619   1414.26270     522.3937     375.8619
   1414.24744     519.7704     374.6002   1414.24744     519.7704     374.6002
   1414.23218     518.3950     372.9868   1414.23218     518.3950     372.9868
   1414.21692     516.0182     371.7466   1414.21692     516.0182     371.7466
   1414.20166     514.7131     371.0043   1414.20166     514.7131     371.0043
   1414.18640     512.5572     370.7373   1414.18640     512.5572     370.7373
   1414.17114     510.8039     368.6525   1414.17114     510.8039     368.6525
   1414.15588     508.9642     367.2766   1414.15588     508.9642     367.2766
   1414.14062     506.9485     366.7236   1414.14062     506.9485     366.7236
   1414.12537     504.1359     365.6714   1414.12537     504.1359     365.6714
   1414.11011     501.5221     364.4654   1414.11011     501.5221     364.4654
   1414.09485     500.4508     363.4179   1414.09485     500.4508     363.4179
   1414.07959     498.2215     362.0614   1414.07959     498.2215     362.0614
   1414.06433     495.9590     360.7605   1414.06433     495.9590     360.7605
   1414.04907     493.7160     359.8468   1414.04907     493.7160     359.8468
   1414.03381     490.9995     358.4302   1414.03381     490.9995     358.4302
   1414.01855     489.5460     357.5709   1414.01855     489.5460     357.5709
   1414.00330     505.6623     363.2312   1414.00330     505.6623     363.2312
   1413.98804     485.8496     355.1914   1413.98804     485.8496     355.1914
   1413.97278     483.0456     353.7801   1413.97278     483.0456     353.7801
   1413.95752     479.8073     352.3012   1413.95752     479.8073     352.3012
   1413.94226     477.7554     350.9883   1413.94226     477.7554     350.9883
   1413.92700     475.8413     350.2197   1413.92700     475.8413     350.2197
   1413.91174     473.6642     348.1033   1413.91174     473.6642     348.1033
   1413.89648     471.7809     347.1347   1413.89648     471.7809     347.1347
   1413.88123     469.1387     345.5922   1413.88123     469.1387     345.5922
   1413.86597     466.9424     344.7334   1413.86597     466.9424     344.7334
   1413.85071     463.9539     343.8437   1413.85071     463.9539     343.8437
   1413.83545     462.8874     342.0496   1413.83545     462.8874     342.0496
   1413.82019     460.2291     340.8341   1413.82019     460.2291     340.8341
   1413.80493     457.8796     339.5081   1413.80493     457.8796     339.5081
   1413.78967     455.2194     338.2340   1413.78967     455.2194     338.2340
   1413.77441     451.9107     336.7888   1413.77441     451.9107     336.7888
   1413.75916     450.6265     335.4195   1413.75916     450.6265     335.4195
   1413.74390     448.4475     334.1216   1413.74390     448.4475     334.1216
   1413.72864     445.9627     332.8415   1413.72864     445.9627     332.8415
   1413.71338     443.8650     331.5845   1413.71338     443.8650     331.5845
   1413.69812     441.5609     330.0182   1413.69812     441.5609     330.0182
   1413.68286     438.6084     328.6206   1413.68286     438.6084     328.6206
   1413.66760     436.5302     327.4600   1413.66760     436.5302     327.4600
   1413.65234     434.1198     325.9760   1413.65234     434.1198     325.9760
   1413.63708     432.5907     324.4725   1413.63708     432.5907     324.4725
   1413.62183     430.1579     323.3229   1413.62183     430.1579     323.3229
   1413.60657     427.4427     322.5833   1413.60657     427.4427     322.5833
   1413.59131     425.2566     320.8567   1413.59131     425.2566     320.8567
   1413.57605     422.4061     318.7311   1413.57605     422.4061     318.7311
   1413.56079     420.2050     318.5226   1413.56079     420.2050     318.5226
   1413.54553     417.9047     316.7974   1413.54553     417.9047     316.7974
   1413.53027     415.5987     315.1417   1413.53027     415.5987     315.1417
   1413.51501     414.1540     314.5127   1413.51501     414.1540     314.5127
   1413.49976     411.3996     312.6988   1413.49976     411.3996     312.6988
   1413.48450     409.1531     311.9427   1413.48450     409.1531     311.9427
   1413.46924     407.1909     310.2673   1413.46924     407.1909     310.2673
   1413.45398     404.7945     308.9235   1413.45398     404.7945     308.9235
   1413.43872     402.0918     307.7376   1413.43872     402.0918     307.7376
   1413.42346     400.1035     306.6068   1413.42346     400.1035     306.6068
   1413.40820     397.6547     305.1967   1413.40820     397.6547     305.1967
   1413.39294     395.7581     303.9423   1413.39294     395.7581     303.9423
   1413.37769     393.7589     302.4458   1413.37769     393.7589     302.4458
   1413.36243     391.2606     301.5571   1413.36243     391.2606     301.5571
   1413.34717     389.1562     300.0816   1413.34717     389.1562     300.0816
   1413.33191     386.7308     298.8372   1413.33191     386.7308     298.8372
   1413.31665     385.0354     297.9497   1413.31665     385.0354     297.9497
   1413.30139     382.3214     296.2915   1413.30139     382.3214     296.2915
   1413.28613     380.5533     295.1558   1413.28613     380.5533     295.1558
   1413.27087     378.4409     294.0237   1413.27087     378.4409     294.0237
   1413.25562     376.3972     293.2367   1413.25562     376.3972     293.2367
   1413.24036     373.7416     291.7874   1413.24036     373.7416     291.7874
   1413.22510     371.8615     290.3580   1413.22510     371.8615     290.3580
   1413.20984     369.9837     289.9482   1413.20984     369.9837     289.9482
   1413.19458     368.0074     288.4526   1413.19458     368.0074     288.4526
   1413.17932     366.8500     287.7404   1413.17932     366.8500     287.7404
   1413.16406     363.9255     286.3772   1413.16406     363.9255     286.3772
   1413.14880     362.8278     285.3465   1413.14880     362.8278     285.3465
   1413.13354     360.3481     284.7023   1413.13354     360.3481     284.7023
   1413.11829     357.6993     283.2363   1413.11829     357.6993     283.2363
   1413.10303     356.5231     282.3580   1413.10303     356.5231     282.3580
   1413.08777     355.1844     281.0253   1413.08777     355.1844     281.0253
   1413.07251     352.2772     280.3122   1413.07251     352.2772     280.3122
   1413.05725     350.9071     279.2844   1413.05725     350.9071     279.2844
   1413.04199     349.0372     278.6177   1413.04199     349.0372     278.6177
   1413.02673     347.5507     277.7164   1413.02673     347.5507     277.7164
   1413.01147     345.3399     276.8595   1413.01147     345.3399     276.8595
   1412.99622     344.4771     276.1811   1412.99622     344.4771     276.1811
   1412.98096     342.3139     275.4131   1412.98096     342.3139     275.4131
   1412.96570     340.6944     274.4748   1412.96570     340.6944     274.4748
   1412.95044     338.9409     273.7977   1412.95044     338.9409     273.7977
   1412.93518     337.2740     272.8111   1412.93518     337.2740     272.8111
   1412.91992     336.2115     272.5233   1412.91992     336.2115     272.5233
   1412.90466     334.2611     271.2683   1412.90466     334.2611     271.2683
   1412.88940     333.5820     271.0121   1412.88940     333.5820     271.0121
   1412.87415     331.6483     270.5285   1412.87415     331.6483     270.5285
   1412.85889     329.7901     270.1021   1412.85889     329.7901     270.1021
   1412.84363     328.5043     269.4522   1412.84363     328.5043     269.4522
   1412.82837     327.4623     268.6326   1412.82837     327.4623     268.6326
   1412.81311     326.0226     268.1792   1412.81311     326.0226     268.1792
   1412.79785     324.6209     268.0931   1412.79785     324.6209     268.0931
   1412.78259     323.6175     267.3191   1412.78259     323.6175     267.3191
   1412.76733     322.0902     267.2356   1412.76733     322.0902     267.2356
   1412.75208     321.5100     266.4860   1412.75208     321.5100     266.4860
   1412.73682     320.0108     266.2988   1412.73682     320.0108     266.2988
   1412.72156     318.9492     266.3920   1412.72156     318.9492     266.3920
   1412.70630     318.0647     266.1094   1412.70630     318.0647     266.1094
   1412.69104     316.8242     266.0131   1412.69104     316.8242     266.0131
   1412.67578     316.3246     266.0951   1412.67578     316.3246     266.0951
   1412.66052     314.5034     265.8121   1412.66052     314.5034     265.8121
   1412.64526     314.3704     265.6637   1412.64526     314.3704     265.6637
   1412.63000     313.2162     265.7107   1412.63000     313.2162     265.7107
   1412.61475     312.5356     265.8162   1412.61475     312.5356     265.8162
   1412.59949     311.5603     265.9604   1412.59949     311.5603     265.9604
   1412.58423     311.5876     265.9905   1412.58423     311.5876     265.9905
   1412.56897     310.4924     265.8731   1412.56897     310.4924     265.8731
   1412.55371     309.4878     266.6240   1412.55371     309.4878     266.6240
   1412.53845     309.2649     266.8809   1412.53845     309.2649     266.8809
   1412.52319     308.5462     266.9146   1412.52319     308.5462     266.9146
   1412.50793     307.6791     267.4001   1412.50793     307.6791     267.4001
   1412.49268     307.5926     267.3708   1412.49268     307.5926     267.3708
   1412.47742     306.8810     268.0639   1412.47742     306.8810     268.0639
   1412.46216     306.2348     268.6501   1412.46216     306.2348     268.6501
   1412.44690     306.3366     268.6770   1412.44690     306.3366     268.6770
   1412.43164     306.4203     270.0714   1412.43164     306.4203     270.0714
   1412.41638     305.7774     270.0592   1412.41638     305.7774     270.0592
   1412.40112     305.4411     271.0281   1412.40112     305.4411     271.0281
   1412.38586     305.4273     271.4319   1412.38586     305.4273     271.4319
   1412.37061     305.5815     272.5416   1412.37061     305.5815     272.5416
   1412.35535     305.4661     273.0823   1412.35535     305.4661     273.0823
   1412.34009     305.3512     273.9511   1412.34009     305.3512     273.9511
   1412.32483     305.3711     274.8203   1412.32483     305.3711     274.8203
   1412.30957     305.3933     276.1692   1412.30957     305.3933     276.1692
   1412.29431     305.6028     276.8804   1412.29431     305.6028     276.8804
   1412.27905     305.1804     277.3848   1412.27905     305.1804     277.3848
   1412.26379     306.2971     278.8138   1412.26379     306.2971     278.8138
   1412.24854     306.6535     279.9212   1412.24854     306.6535     279.9212
   1412.23328     306.8097     281.5539   1412.23328     306.8097     281.5539
   1412.21802     306.3263     282.7647   1412.21802     306.3263     282.7647
   1412.20276     307.1440     283.8319   1412.20276     307.1440     283.8319