#     FILENAME=!Skynet_57528_lach-hhg-161_20529_20985.cyb.fits
#     BASENAME=Skynet_57528_lach-hhg-161_20529_20985
#     SRC_NAME=lach-hhg-161
#     OBSERVER=hhgmadison16_9500
#     DATE_OBS=2016-05-20T18:00:06.680
#        OBSID=20529
#      SCANNUM=20985
#          MJD=57528.7511
#          UTC=64895
#     SCANTYPE=track
#     DATAMODE=HIRES
#     TUNEFREQ=1420.0000
# Actual_FREQ1=1420.0000
# Actual_FREQ2=1420.0000
#    LO1Tuning=6870.000
#     RFFILTER=1355_1435
#        OBSBW=-15.6250
#        NCHAN=1024 
#        FOCUS=37.0709
#           RA=04:50:33.90
#          DEC=44:28:51.37
#      RA(hrs)=4.842700
#     DEC(deg)=44.480900
#    AZIM(deg)=24.241
#    ELEV(deg)=83.198
#     IFattens=10.00, 9.00
#      WARNING=None
#    TCAL_XL1=7.9635
#    TCAL_YR1=9.1340
#    TCAL_XL2=7.9635
#    TCAL_YR2=9.1340
#     TRX_XL1=11.7060
#     TRX_YR1=11.7060
#     TRX_XL2=11.7060
#     TRX_YR2=11.7060
#        TAVE=1.0000
#Freq1(MHz)          XL1          YR1  Freq2(MHz)          XL2          YR2 

   1427.81250     374.3390     338.2579   1427.81250     374.3390     338.2579
   1427.79724     374.8789     339.5085   1427.79724     374.8789     339.5085
   1427.78198     375.6436     340.7203   1427.78198     375.6436     340.7203
   1427.76672     376.8436     343.2029   1427.76672     376.8436     343.2029
   1427.75146     377.3925     344.9490   1427.75146     377.3925     344.9490
   1427.73621     378.7740     346.7366   1427.73621     378.7740     346.7366
   1427.72095     379.0568     348.2461   1427.72095     379.0568     348.2461
   1427.70569     379.7706     350.0618   1427.70569     379.7706     350.0618
   1427.69043     380.5380     352.3033   1427.69043     380.5380     352.3033
   1427.67517     382.2501     353.6428   1427.67517     382.2501     353.6428
   1427.65991     382.8620     355.3865   1427.65991     382.8620     355.3865
   1427.64465     383.9125     358.5223   1427.64465     383.9125     358.5223
   1427.62939     385.6437     359.8576   1427.62939     385.6437     359.8576
   1427.61414     386.3291     361.5763   1427.61414     386.3291     361.5763
   1427.59888     387.8897     364.0518   1427.59888     387.8897     364.0518
   1427.58362     389.1346     366.4987   1427.58362     389.1346     366.4987
   1427.56836     390.5046     368.8575   1427.56836     390.5046     368.8575
   1427.55310     390.9550     371.3797   1427.55310     390.9550     371.3797
   1427.53784     393.2514     373.5077   1427.53784     393.2514     373.5077
   1427.52258     395.2089     376.0683   1427.52258     395.2089     376.0683
   1427.50732     396.4353     378.4949   1427.50732     396.4353     378.4949
   1427.49207     397.5884     380.8842   1427.49207     397.5884     380.8842
   1427.47681     399.5343     382.8662   1427.47681     399.5343     382.8662
   1427.46155     402.5661     385.8264   1427.46155     402.5661     385.8264
   1427.44629     402.6618     388.5510   1427.44629     402.6618     388.5510
   1427.43103     404.2370     390.7941   1427.43103     404.2370     390.7941
   1427.41577     406.7139     393.0954   1427.41577     406.7139     393.0954
   1427.40051     409.2262     395.3315   1427.40051     409.2262     395.3315
   1427.38525     411.1561     397.7678   1427.38525     411.1561     397.7678
   1427.37000     413.1006     400.6991   1427.37000     413.1006     400.6991
   1427.35474     414.4098     403.4378   1427.35474     414.4098     403.4378
   1427.33948     416.9300     406.3885   1427.33948     416.9300     406.3885
   1427.32422     419.2260     408.6874   1427.32422     419.2260     408.6874
   1427.30896     420.8638     411.9187   1427.30896     420.8638     411.9187
   1427.29370     423.2642     414.8829   1427.29370     423.2642     414.8829
   1427.27844     425.3282     416.8741   1427.27844     425.3282     416.8741
   1427.26318     427.7946     419.8008   1427.26318     427.7946     419.8008
   1427.24792     429.6553     422.9967   1427.24792     429.6553     422.9967
   1427.23267     432.2615     425.9310   1427.23267     432.2615     425.9310
   1427.21741     434.5778     428.3169   1427.21741     434.5778     428.3169
   1427.20215     436.9286     431.0992   1427.20215     436.9286     431.0992
   1427.18689     439.4979     434.1312   1427.18689     439.4979     434.1312
   1427.17163     442.1089     437.0912   1427.17163     442.1089     437.0912
   1427.15637     444.9701     440.0959   1427.15637     444.9701     440.0959
   1427.14111     446.9077     442.7807   1427.14111     446.9077     442.7807
   1427.12585     449.0394     445.7300   1427.12585     449.0394     445.7300
   1427.11060     453.1801     448.7662   1427.11060     453.1801     448.7662
   1427.09534     455.0009     451.6899   1427.09534     455.0009     451.6899
   1427.08008     457.3364     454.1173   1427.08008     457.3364     454.1173
   1427.06482     459.9040     457.5932   1427.06482     459.9040     457.5932
   1427.04956     462.4015     458.9621   1427.04956     462.4015     458.9621
   1427.03430     464.8186     463.0008   1427.03430     464.8186     463.0008
   1427.01904     468.3048     465.2797   1427.01904     468.3048     465.2797
   1427.00378     470.5502     468.5407   1427.00378     470.5502     468.5407
   1426.98853     474.2480     471.9407   1426.98853     474.2480     471.9407
   1426.97327     476.7065     473.6920   1426.97327     476.7065     473.6920
   1426.95801     479.2128     477.5091   1426.95801     479.2128     477.5091
   1426.94275     481.8636     480.1227   1426.94275     481.8636     480.1227
   1426.92749     484.9728     482.7819   1426.92749     484.9728     482.7819
   1426.91223     487.6563     485.5782   1426.91223     487.6563     485.5782
   1426.89697     490.9811     487.6564   1426.89697     490.9811     487.6564
   1426.88171     493.8252     490.6303   1426.88171     493.8252     490.6303
   1426.86646     496.5796     493.4522   1426.86646     496.5796     493.4522
   1426.85120     500.1833     495.7541   1426.85120     500.1833     495.7541
   1426.83594     502.8607     498.2682   1426.83594     502.8607     498.2682
   1426.82068     505.4482     501.7648   1426.82068     505.4482     501.7648
   1426.80542     508.7071     503.6781   1426.80542     508.7071     503.6781
   1426.79016     511.6562     506.8226   1426.79016     511.6562     506.8226
   1426.77490     515.1365     509.5493   1426.77490     515.1365     509.5493
   1426.75964     518.5704     512.1578   1426.75964     518.5704     512.1578
   1426.74438     520.0995     514.7460   1426.74438     520.0995     514.7460
   1426.72913     524.0172     516.9609   1426.72913     524.0172     516.9609
   1426.71387     526.6849     519.0606   1426.71387     526.6849     519.0606
   1426.69861     530.1062     521.6607   1426.69861     530.1062     521.6607
   1426.68335     533.0148     524.1653   1426.68335     533.0148     524.1653
   1426.66809     536.5524     526.6682   1426.66809     536.5524     526.6682
   1426.65283     539.5527     529.7064   1426.65283     539.5527     529.7064
   1426.63757     541.6251     532.2703   1426.63757     541.6251     532.2703
   1426.62231     554.7261     536.3030   1426.62231     554.7261     536.3030
   1426.60706     549.2170     536.5012   1426.60706     549.2170     536.5012
   1426.59180     551.5181     538.9508   1426.59180     551.5181     538.9508
   1426.57654     554.4086     541.2209   1426.57654     554.4086     541.2209
   1426.56128     557.6054     543.2693   1426.56128     557.6054     543.2693
   1426.54602     560.7564     545.6212   1426.54602     560.7564     545.6212
   1426.53076     563.1515     548.5950   1426.53076     563.1515     548.5950
   1426.51550     566.3461     551.0479   1426.51550     566.3461     551.0479
   1426.50024     570.4317     553.2784   1426.50024     570.4317     553.2784
   1426.48499     572.5157     553.5626   1426.48499     572.5157     553.5626
   1426.46973     575.9755     557.0511   1426.46973     575.9755     557.0511
   1426.45447     578.9041     559.1199   1426.45447     578.9041     559.1199
   1426.43921     582.3720     561.3631   1426.43921     582.3720     561.3631
   1426.42395     585.7357     562.9066   1426.42395     585.7357     562.9066
   1426.40869     588.7052     564.9495   1426.40869     588.7052     564.9495
   1426.39343     591.7498     566.7880   1426.39343     591.7498     566.7880
   1426.37817     594.3503     569.7265   1426.37817     594.3503     569.7265
   1426.36292     596.1556     570.3682   1426.36292     596.1556     570.3682
   1426.34766     599.8946     572.7936   1426.34766     599.8946     572.7936
   1426.33240     602.3353     574.4693   1426.33240     602.3353     574.4693
   1426.31714     605.9661     577.0881   1426.31714     605.9661     577.0881
   1426.30188     608.0370     578.0611   1426.30188     608.0370     578.0611
   1426.28662     612.1422     580.9518   1426.28662     612.1422     580.9518
   1426.27136     614.3992     581.3533   1426.27136     614.3992     581.3533
   1426.25610     618.0017     584.3879   1426.25610     618.0017     584.3879
   1426.24084     620.0505     584.6439   1426.24084     620.0505     584.6439
   1426.22559     623.6010     586.8935   1426.22559     623.6010     586.8935
   1426.21033     625.5974     589.3311   1426.21033     625.5974     589.3311
   1426.19507     628.9340     590.9743   1426.19507     628.9340     590.9743
   1426.17981     631.3431     592.2949   1426.17981     631.3431     592.2949
   1426.16455     634.8770     593.7852   1426.16455     634.8770     593.7852
   1426.14929     637.0587     596.0305   1426.14929     637.0587     596.0305
   1426.13403     638.6104     595.9746   1426.13403     638.6104     595.9746
   1426.11877     642.8117     597.7833   1426.11877     642.8117     597.7833
   1426.10352     646.0270     598.4402   1426.10352     646.0270     598.4402
   1426.08826     646.7440     600.0921   1426.08826     646.7440     600.0921
   1426.07300     650.0857     602.2291   1426.07300     650.0857     602.2291
   1426.05774     652.8651     603.4277   1426.05774     652.8651     603.4277
   1426.04248     655.4515     604.9075   1426.04248     655.4515     604.9075
   1426.02722     657.0480     606.4720   1426.02722     657.0480     606.4720
   1426.01196     660.9328     607.2885   1426.01196     660.9328     607.2885
   1425.99670     664.0919     609.3661   1425.99670     664.0919     609.3661
   1425.98145     665.4056     608.8522   1425.98145     665.4056     608.8522
   1425.96619     667.8467     610.8364   1425.96619     667.8467     610.8364
   1425.95093     669.5533     612.2195   1425.95093     669.5533     612.2195
   1425.93567     672.2620     612.6412   1425.93567     672.2620     612.6412
   1425.92041     674.5452     614.1318   1425.92041     674.5452     614.1318
   1425.90515     677.1785     616.5028   1425.90515     677.1785     616.5028
   1425.88989     678.3726     616.4232   1425.88989     678.3726     616.4232
   1425.87463     681.5839     617.1507   1425.87463     681.5839     617.1507
   1425.85938     682.7758     617.7272   1425.85938     682.7758     617.7272
   1425.84412     685.7279     620.5240   1425.84412     685.7279     620.5240
   1425.82886     687.4916     620.9572   1425.82886     687.4916     620.9572
   1425.81360     690.5983     621.7791   1425.81360     690.5983     621.7791
   1425.79834     693.2241     622.8524   1425.79834     693.2241     622.8524
   1425.78308     695.1063     621.7698   1425.78308     695.1063     621.7698
   1425.76782     696.8631     624.3293   1425.76782     696.8631     624.3293
   1425.75256     699.0668     624.9283   1425.75256     699.0668     624.9283
   1425.73730     700.9096     625.3464   1425.73730     700.9096     625.3464
   1425.72205     703.2408     626.7639   1425.72205     703.2408     626.7639
   1425.70679     704.6297     627.4808   1425.70679     704.6297     627.4808
   1425.69153     706.5196     627.5003   1425.69153     706.5196     627.5003
   1425.67627     707.8143     627.0612   1425.67627     707.8143     627.0612
   1425.66101     710.9604     629.5439   1425.66101     710.9604     629.5439
   1425.64575     712.4876     630.0816   1425.64575     712.4876     630.0816
   1425.63049     713.2556     630.3060   1425.63049     713.2556     630.3060
   1425.61523     715.4476     632.4741   1425.61523     715.4476     632.4741
   1425.59998     716.6937     631.9935   1425.59998     716.6937     631.9935
   1425.58472     718.1521     630.6963   1425.58472     718.1521     630.6963
   1425.56946     720.2822     632.6622   1425.56946     720.2822     632.6622
   1425.55420     722.2154     633.4939   1425.55420     722.2154     633.4939
   1425.53894     723.4081     633.4215   1425.53894     723.4081     633.4215
   1425.52368     725.9844     633.2998   1425.52368     725.9844     633.2998
   1425.50842     726.6523     633.9854   1425.50842     726.6523     633.9854
   1425.49316     727.7699     633.6987   1425.49316     727.7699     633.6987
   1425.47791     728.6042     635.6301   1425.47791     728.6042     635.6301
   1425.46265     731.6965     636.2010   1425.46265     731.6965     636.2010
   1425.44739     732.2388     636.7186   1425.44739     732.2388     636.7186
   1425.43213     732.9353     636.4783   1425.43213     732.9353     636.4783
   1425.41687     735.6561     637.5236   1425.41687     735.6561     637.5236
   1425.40161     735.6020     635.8586   1425.40161     735.6020     635.8586
   1425.38635     737.1842     636.9328   1425.38635     737.1842     636.9328
   1425.37109     738.2314     637.5938   1425.37109     738.2314     637.5938
   1425.35583     740.7946     638.6006   1425.35583     740.7946     638.6006
   1425.34058     741.0888     638.0157   1425.34058     741.0888     638.0157
   1425.32532     742.5300     637.8506   1425.32532     742.5300     637.8506
   1425.31006     743.4786     637.7198   1425.31006     743.4786     637.7198
   1425.29480     744.8008     637.9221   1425.29480     744.8008     637.9221
   1425.27954     744.9978     638.4179   1425.27954     744.9978     638.4179
   1425.26428     745.8602     638.8679   1425.26428     745.8602     638.8679
   1425.24902     747.3787     639.4314   1425.24902     747.3787     639.4314
   1425.23376     748.7386     638.4384   1425.23376     748.7386     638.4384
   1425.21851     749.4326     639.1693   1425.21851     749.4326     639.1693
   1425.20325     750.6243     638.7377   1425.20325     750.6243     638.7377
   1425.18799     750.9342     638.6322   1425.18799     750.9342     638.6322
   1425.17273     752.5103     639.2627   1425.17273     752.5103     639.2627
   1425.15747     752.5530     638.8439   1425.15747     752.5530     638.8439
   1425.14221     753.4410     638.5769   1425.14221     753.4410     638.5769
   1425.12695     754.5230     639.7623   1425.12695     754.5230     639.7623
   1425.11169     755.4471     640.4862   1425.11169     755.4471     640.4862
   1425.09644     756.2738     638.7253   1425.09644     756.2738     638.7253
   1425.08118     756.7428     638.5306   1425.08118     756.7428     638.5306
   1425.06592     756.2308     637.7684   1425.06592     756.2308     637.7684
   1425.05066     758.2461     639.2750   1425.05066     758.2461     639.2750
   1425.03540     758.2185     638.8866   1425.03540     758.2185     638.8866
   1425.02014     758.6172     638.8348   1425.02014     758.6172     638.8348
   1425.00488     760.1426     638.5397   1425.00488     760.1426     638.5397
   1424.98962     760.3448     638.5618   1424.98962     760.3448     638.5618
   1424.97437     760.5071     637.9846   1424.97437     760.5071     637.9846
   1424.95911     759.6197     638.2751   1424.95911     759.6197     638.2751
   1424.94385     761.9131     638.4144   1424.94385     761.9131     638.4144
   1424.92859     762.6160     637.5862   1424.92859     762.6160     637.5862
   1424.91333     762.7934     637.5304   1424.91333     762.7934     637.5304
   1424.89807     763.0291     637.3237   1424.89807     763.0291     637.3237
   1424.88281     763.9073     635.3990   1424.88281     763.9073     635.3990
   1424.86755     762.4824     637.1833   1424.86755     762.4824     637.1833
   1424.85229     764.1651     636.2867   1424.85229     764.1651     636.2867
   1424.83704     763.4183     635.4352   1424.83704     763.4183     635.4352
   1424.82178     764.0072     636.0685   1424.82178     764.0072     636.0685
   1424.80652     764.2251     635.5968   1424.80652     764.2251     635.5968
   1424.79126     765.3420     635.3635   1424.79126     765.3420     635.3635
   1424.77600     766.2015     635.4236   1424.77600     766.2015     635.4236
   1424.76074     764.5057     634.0250   1424.76074     764.5057     634.0250
   1424.74548     765.0477     634.2706   1424.74548     765.0477     634.2706
   1424.73022     765.2210     634.6614   1424.73022     765.2210     634.6614
   1424.71497     766.1863     633.0413   1424.71497     766.1863     633.0413
   1424.69971     765.6256     633.1813   1424.69971     765.6256     633.1813
   1424.68445     764.8647     632.6146   1424.68445     764.8647     632.6146
   1424.66919     765.5808     633.3405   1424.66919     765.5808     633.3405
   1424.65393     765.5715     632.2452   1424.65393     765.5715     632.2452
   1424.63867     766.0511     632.3571   1424.63867     766.0511     632.3571
   1424.62341     765.8271     631.7057   1424.62341     765.8271     631.7057
   1424.60815     766.1063     630.1017   1424.60815     766.1063     630.1017
   1424.59290     765.6071     630.0944   1424.59290     765.6071     630.0944
   1424.57764     766.4464     630.2563   1424.57764     766.4464     630.2563
   1424.56238     765.5864     628.3344   1424.56238     765.5864     628.3344
   1424.54712     766.7184     629.5155   1424.54712     766.7184     629.5155
   1424.53186     766.3779     628.9495   1424.53186     766.3779     628.9495
   1424.51660     765.1311     629.2678   1424.51660     765.1311     629.2678
   1424.50134     765.4762     628.6177   1424.50134     765.4762     628.6177
   1424.48608     765.8176     627.4297   1424.48608     765.8176     627.4297
   1424.47083     765.1298     626.4119   1424.47083     765.1298     626.4119
   1424.45557     766.5062     626.2907   1424.45557     766.5062     626.2907
   1424.44031     763.9288     626.2648   1424.44031     763.9288     626.2648
   1424.42505     765.4235     625.6267   1424.42505     765.4235     625.6267
   1424.40979     763.6033     624.9529   1424.40979     763.6033     624.9529
   1424.39453     763.7288     623.9457   1424.39453     763.7288     623.9457
   1424.37927     764.1545     624.5017   1424.37927     764.1545     624.5017
   1424.36401     763.6797     623.9196   1424.36401     763.6797     623.9196
   1424.34875     763.1195     622.6031   1424.34875     763.1195     622.6031
   1424.33350     762.6400     622.9863   1424.33350     762.6400     622.9863
   1424.31824     763.4271     622.5900   1424.31824     763.4271     622.5900
   1424.30298     761.8589     621.2147   1424.30298     761.8589     621.2147
   1424.28772     762.5357     621.3293   1424.28772     762.5357     621.3293
   1424.27246     761.5255     619.6202   1424.27246     761.5255     619.6202
   1424.25720     761.2869     619.2787   1424.25720     761.2869     619.2787
   1424.24194     760.5944     619.0722   1424.24194     760.5944     619.0722
   1424.22668     761.4245     619.6057   1424.22668     761.4245     619.6057
   1424.21143     760.2795     617.9404   1424.21143     760.2795     617.9404
   1424.19617     759.4024     618.0118   1424.19617     759.4024     618.0118
   1424.18091     759.2073     616.0756   1424.18091     759.2073     616.0756
   1424.16565     760.8781     616.4711   1424.16565     760.8781     616.4711
   1424.15039     760.0378     615.8658   1424.15039     760.0378     615.8658
   1424.13513     758.8258     615.3153   1424.13513     758.8258     615.3153
   1424.11987     759.2167     614.4136   1424.11987     759.2167     614.4136
   1424.10461     759.2117     613.9155   1424.10461     759.2117     613.9155
   1424.08936     758.4062     613.1292   1424.08936     758.4062     613.1292
   1424.07410     757.9152     612.6547   1424.07410     757.9152     612.6547
   1424.05884     757.7910     612.8320   1424.05884     757.7910     612.8320
   1424.04358     755.9827     610.7675   1424.04358     755.9827     610.7675
   1424.02832     756.2210     610.9503   1424.02832     756.2210     610.9503
   1424.01306     755.2100     610.6298   1424.01306     755.2100     610.6298
   1423.99780     756.2596     610.6240   1423.99780     756.2596     610.6240
   1423.98254     755.8108     609.1349   1423.98254     755.8108     609.1349
   1423.96729     755.2490     608.4858   1423.96729     755.2490     608.4858
   1423.95203     754.3591     608.1888   1423.95203     754.3591     608.1888
   1423.93677     754.8599     606.9225   1423.93677     754.8599     606.9225
   1423.92151     753.7152     607.1588   1423.92151     753.7152     607.1588
   1423.90625     753.1612     606.5515   1423.90625     753.1612     606.5515
   1423.89099     753.6122     605.9061   1423.89099     753.6122     605.9061
   1423.87573     753.1282     605.0992   1423.87573     753.1282     605.0992
   1423.86047     752.3958     604.5208   1423.86047     752.3958     604.5208
   1423.84521     751.6819     604.2441   1423.84521     751.6819     604.2441
   1423.82996     751.5685     603.1074   1423.82996     751.5685     603.1074
   1423.81470     752.2639     602.5228   1423.81470     752.2639     602.5228
   1423.79944     751.0510     601.1590   1423.79944     751.0510     601.1590
   1423.78418     748.2563     601.9332   1423.78418     748.2563     601.9332
   1423.76892     750.5820     599.6243   1423.76892     750.5820     599.6243
   1423.75366     749.8715     599.4979   1423.75366     749.8715     599.4979
   1423.73840     749.5858     599.6306   1423.73840     749.5858     599.6306
   1423.72314     746.9735     597.7597   1423.72314     746.9735     597.7597
   1423.70789     746.7166     598.3722   1423.70789     746.7166     598.3722
   1423.69263     747.0607     597.2377   1423.69263     747.0607     597.2377
   1423.67737     747.0366     597.5411   1423.67737     747.0366     597.5411
   1423.66211     746.8178     595.6230   1423.66211     746.8178     595.6230
   1423.64685     745.7037     595.0729   1423.64685     745.7037     595.0729
   1423.63159     744.5384     595.0190   1423.63159     744.5384     595.0190
   1423.61633     745.0836     594.3195   1423.61633     745.0836     594.3195
   1423.60107     744.9386     592.7861   1423.60107     744.9386     592.7861
   1423.58582     744.9169     591.9916   1423.58582     744.9169     591.9916
   1423.57056     743.8989     591.1656   1423.57056     743.8989     591.1656
   1423.55530     742.9116     590.8879   1423.55530     742.9116     590.8879
   1423.54004     742.9260     590.2943   1423.54004     742.9260     590.2943
   1423.52478     743.8471     590.0161   1423.52478     743.8471     590.0161
   1423.50952     742.9932     588.1206   1423.50952     742.9932     588.1206
   1423.49426     742.4342     587.8680   1423.49426     742.4342     587.8680
   1423.47900     741.2710     586.8758   1423.47900     741.2710     586.8758
   1423.46375     740.4233     587.2517   1423.46375     740.4233     587.2517
   1423.44849     740.1113     585.6331   1423.44849     740.1113     585.6331
   1423.43323     741.2076     584.2991   1423.43323     741.2076     584.2991
   1423.41797     740.5563     584.2999   1423.41797     740.5563     584.2999
   1423.40271     739.2109     583.3741   1423.40271     739.2109     583.3741
   1423.38745     739.8038     582.3785   1423.38745     739.8038     582.3785
   1423.37219     737.7526     582.2734   1423.37219     737.7526     582.2734
   1423.35693     739.0728     581.7424   1423.35693     739.0728     581.7424
   1423.34167     737.9575     581.2059   1423.34167     737.9575     581.2059
   1423.32642     737.5123     579.6576   1423.32642     737.5123     579.6576
   1423.31116     737.2949     579.7834   1423.31116     737.2949     579.7834
   1423.29590     736.8278     578.6801   1423.29590     736.8278     578.6801
   1423.28064     736.6692     577.8036   1423.28064     736.6692     577.8036
   1423.26538     737.5662     577.1447   1423.26538     737.5662     577.1447
   1423.25012     736.2317     577.0730   1423.25012     736.2317     577.0730
   1423.23486     736.7841     575.4513   1423.23486     736.7841     575.4513
   1423.21960     736.0746     574.0460   1423.21960     736.0746     574.0460
   1423.20435     734.3279     573.9788   1423.20435     734.3279     573.9788
   1423.18909     734.3888     573.7597   1423.18909     734.3888     573.7597
   1423.17383     733.7444     572.8222   1423.17383     733.7444     572.8222
   1423.15857     733.6636     571.4038   1423.15857     733.6636     571.4038
   1423.14331     734.1836     569.9080   1423.14331     734.1836     569.9080
   1423.12805     732.2214     570.1924   1423.12805     732.2214     570.1924
   1423.11279     732.3731     569.3544   1423.11279     732.3731     569.3544
   1423.09753     732.9368     568.4083   1423.09753     732.9368     568.4083
   1423.08228     731.4533     568.6219   1423.08228     731.4533     568.6219
   1423.06702     731.6423     567.2274   1423.06702     731.6423     567.2274
   1423.05176     731.4332     566.0306   1423.05176     731.4332     566.0306
   1423.03650     730.7757     565.4935   1423.03650     730.7757     565.4935
   1423.02124     730.7158     564.5943   1423.02124     730.7158     564.5943
   1423.00598     731.0906     563.9311   1423.00598     731.0906     563.9311
   1422.99072     731.3896     563.7431   1422.99072     731.3896     563.7431
   1422.97546     730.2796     562.1667   1422.97546     730.2796     562.1667
   1422.96021     729.5258     561.2982   1422.96021     729.5258     561.2982
   1422.94495     728.3911     560.7594   1422.94495     728.3911     560.7594
   1422.92969     729.3666     559.9070   1422.92969     729.3666     559.9070
   1422.91443     728.9583     559.1078   1422.91443     728.9583     559.1078
   1422.89917     729.2864     558.8690   1422.89917     729.2864     558.8690
   1422.88391     727.3682     557.7651   1422.88391     727.3682     557.7651
   1422.86865     727.3432     557.4398   1422.86865     727.3432     557.4398
   1422.85339     727.0725     555.8003   1422.85339     727.0725     555.8003
   1422.83813     727.0676     555.2333   1422.83813     727.0676     555.2333
   1422.82288     727.9180     555.4825   1422.82288     727.9180     555.4825
   1422.80762     727.3037     554.4795   1422.80762     727.3037     554.4795
   1422.79236     727.7807     553.1304   1422.79236     727.7807     553.1304
   1422.77710     726.5109     553.2698   1422.77710     726.5109     553.2698
   1422.76184     726.5851     552.0453   1422.76184     726.5851     552.0453
   1422.74658     726.4664     550.8898   1422.74658     726.4664     550.8898
   1422.73132     724.4330     549.9509   1422.73132     724.4330     549.9509
   1422.71606     725.5234     549.1337   1422.71606     725.5234     549.1337
   1422.70081     725.5953     547.3209   1422.70081     725.5953     547.3209
   1422.68555     725.4880     547.6534   1422.68555     725.4880     547.6534
   1422.67029     724.6936     546.7570   1422.67029     724.6936     546.7570
   1422.65503     725.2759     545.5432   1422.65503     725.2759     545.5432
   1422.63977     724.9501     545.4404   1422.63977     724.9501     545.4404
   1422.62451     724.8914     544.0830   1422.62451     724.8914     544.0830
   1422.60925     723.6823     542.5495   1422.60925     723.6823     542.5495
   1422.59399     723.4197     542.2468   1422.59399     723.4197     542.2468
   1422.57874     723.3158     541.1496   1422.57874     723.3158     541.1496
   1422.56348     724.6938     540.7397   1422.56348     724.6938     540.7397
   1422.54822     722.7161     540.0919   1422.54822     722.7161     540.0919
   1422.53296     722.8719     539.5071   1422.53296     722.8719     539.5071
   1422.51770     723.4338     538.5646   1422.51770     723.4338     538.5646
   1422.50244     722.8635     536.9716   1422.50244     722.8635     536.9716
   1422.48718     724.4036     537.3455   1422.48718     724.4036     537.3455
   1422.47192     722.9983     536.8571   1422.47192     722.9983     536.8571
   1422.45667     723.1680     534.7200   1422.45667     723.1680     534.7200
   1422.44141     722.2526     533.6926   1422.44141     722.2526     533.6926
   1422.42615     721.8466     533.8420   1422.42615     721.8466     533.8420
   1422.41089     721.7294     532.8676   1422.41089     721.7294     532.8676
   1422.39563     722.4658     531.9339   1422.39563     722.4658     531.9339
   1422.38037     721.5492     531.1658   1422.38037     721.5492     531.1658
   1422.36511     721.3339     530.6519   1422.36511     721.3339     530.6519
   1422.34985     721.2238     528.9101   1422.34985     721.2238     528.9101
   1422.33459     720.4684     528.4132   1422.33459     720.4684     528.4132
   1422.31934     720.8471     527.9907   1422.31934     720.8471     527.9907
   1422.30408     720.8550     525.8483   1422.30408     720.8550     525.8483
   1422.28882     720.7787     526.3474   1422.28882     720.7787     526.3474
   1422.27356     721.5386     524.6982   1422.27356     721.5386     524.6982
   1422.25830     722.0358     524.6880   1422.25830     722.0358     524.6880
   1422.24304     724.6586     524.4037   1422.24304     724.6586     524.4037
   1422.22778     721.4250     523.0547   1422.22778     721.4250     523.0547
   1422.21252     720.6034     521.7564   1422.21252     720.6034     521.7564
   1422.19727     720.3890     520.9393   1422.19727     720.3890     520.9393
   1422.18201     719.7097     520.6434   1422.18201     719.7097     520.6434
   1422.16675     719.4971     519.6041   1422.16675     719.4971     519.6041
   1422.15149     719.5758     518.2466   1422.15149     719.5758     518.2466
   1422.13623     720.2928     517.2255   1422.13623     720.2928     517.2255
   1422.12097     720.0640     517.0288   1422.12097     720.0640     517.0288
   1422.10571     720.3483     516.0443   1422.10571     720.3483     516.0443
   1422.09045     719.8007     515.3440   1422.09045     719.8007     515.3440
   1422.07520     720.2828     514.3932   1422.07520     720.2828     514.3932
   1422.05994     721.0606     513.9288   1422.05994     721.0606     513.9288
   1422.04468     719.2573     513.9026   1422.04468     719.2573     513.9026
   1422.02942     719.8249     511.9868   1422.02942     719.8249     511.9868
   1422.01416     719.2196     510.7649   1422.01416     719.2196     510.7649
   1421.99890     719.1954     510.6226   1421.99890     719.1954     510.6226
   1421.98364     719.2433     508.1167   1421.98364     719.2433     508.1167
   1421.96838     719.3600     508.7422   1421.96838     719.3600     508.7422
   1421.95312     717.9705     508.2890   1421.95312     717.9705     508.2890
   1421.93787     719.4146     508.2322   1421.93787     719.4146     508.2322
   1421.92261     719.0714     505.8686   1421.92261     719.0714     505.8686
   1421.90735     718.5225     504.9951   1421.90735     718.5225     504.9951
   1421.89209     717.9705     504.3345   1421.89209     717.9705     504.3345
   1421.87683     717.8383     503.4172   1421.87683     717.8383     503.4172
   1421.86157     717.6675     502.6605   1421.86157     717.6675     502.6605
   1421.84631     718.7339     502.5067   1421.84631     718.7339     502.5067
   1421.83105     717.6643     501.2166   1421.83105     717.6643     501.2166
   1421.81580     719.1813     500.0934   1421.81580     719.1813     500.0934
   1421.80054     717.7321     499.1485   1421.80054     717.7321     499.1485
   1421.78528     717.2985     498.4455   1421.78528     717.2985     498.4455
   1421.77002     717.6800     498.2439   1421.77002     717.6800     498.2439
   1421.75476     716.8522     495.5184   1421.75476     716.8522     495.5184
   1421.73950     717.8856     495.1880   1421.73950     717.8856     495.1880
   1421.72424     718.2354     495.4274   1421.72424     718.2354     495.4274
   1421.70898     716.6794     494.5296   1421.70898     716.6794     494.5296
   1421.69373     717.7654     493.2591   1421.69373     717.7654     493.2591
   1421.67847     717.6895     492.3074   1421.67847     717.6895     492.3074
   1421.66321     716.4708     492.0038   1421.66321     716.4708     492.0038
   1421.64795     716.4201     490.2234   1421.64795     716.4201     490.2234
   1421.63269     716.2906     490.6268   1421.63269     716.2906     490.6268
   1421.61743     716.6564     489.2534   1421.61743     716.6564     489.2534
   1421.60217     716.9797     487.2141   1421.60217     716.9797     487.2141
   1421.58691     716.9030     487.4592   1421.58691     716.9030     487.4592
   1421.57166     716.1758     486.9032   1421.57166     716.1758     486.9032
   1421.55640     716.1482     486.0921   1421.55640     716.1482     486.0921
   1421.54114     716.1220     484.7000   1421.54114     716.1220     484.7000
   1421.52588     716.5391     482.8479   1421.52588     716.5391     482.8479
   1421.51062     716.8626     483.0384   1421.51062     716.8626     483.0384
   1421.49536     715.0934     481.4608   1421.49536     715.0934     481.4608
   1421.48010     716.6372     481.3753   1421.48010     716.6372     481.3753
   1421.46484     715.8418     480.1152   1421.46484     715.8418     480.1152
   1421.44958     715.5801     479.4925   1421.44958     715.5801     479.4925
   1421.43433     716.0086     478.6476   1421.43433     716.0086     478.6476
   1421.41907     715.5948     477.6651   1421.41907     715.5948     477.6651
   1421.40381     715.3531     476.9871   1421.40381     715.3531     476.9871
   1421.38855     715.5227     475.5627   1421.38855     715.5227     475.5627
   1421.37329     714.1098     475.5176   1421.37329     714.1098     475.5176
   1421.35803     714.6646     474.4339   1421.35803     714.6646     474.4339
   1421.34277     714.5004     473.4985   1421.34277     714.5004     473.4985
   1421.32751     714.0228     473.0047   1421.32751     714.0228     473.0047
   1421.31226     713.1033     472.4734   1421.31226     713.1033     472.4734
   1421.29700     714.1174     470.9754   1421.29700     714.1174     470.9754
   1421.28174     713.3467     470.7028   1421.28174     713.3467     470.7028
   1421.26648     713.2282     469.4060   1421.26648     713.2282     469.4060
   1421.25122     713.3596     468.6058   1421.25122     713.3596     468.6058
   1421.23596     714.1903     467.7401   1421.23596     714.1903     467.7401
   1421.22070     713.5494     467.5154   1421.22070     713.5494     467.5154
   1421.20544     712.0592     466.0500   1421.20544     712.0592     466.0500
   1421.19019     713.4423     465.6782   1421.19019     713.4423     465.6782
   1421.17493     712.2193     465.0655   1421.17493     712.2193     465.0655
   1421.15967     712.6384     463.7888   1421.15967     712.6384     463.7888
   1421.14441     712.4188     462.5249   1421.14441     712.4188     462.5249
   1421.12915     711.4304     462.1105   1421.12915     711.4304     462.1105
   1421.11389     712.7686     460.8680   1421.11389     712.7686     460.8680
   1421.09863     711.4598     460.2646   1421.09863     711.4598     460.2646
   1421.08337     712.4562     459.4993   1421.08337     712.4562     459.4993
   1421.06812     711.9887     458.8112   1421.06812     711.9887     458.8112
   1421.05286     711.0208     457.4365   1421.05286     711.0208     457.4365
   1421.03760     710.9110     457.1079   1421.03760     710.9110     457.1079
   1421.02234     711.8038     456.1576   1421.02234     711.8038     456.1576
   1421.00708     711.2473     456.0212   1421.00708     711.2473     456.0212
   1420.99182     711.0357     454.8326   1420.99182     711.0357     454.8326
   1420.97656     711.7972     454.3228   1420.97656     711.7972     454.3228
   1420.96130     711.8512     453.8817   1420.96130     711.8512     453.8817
   1420.94604     712.5014     452.7798   1420.94604     712.5014     452.7798
   1420.93079     712.9844     452.5982   1420.93079     712.9844     452.5982
   1420.91553     713.6559     452.1800   1420.91553     713.6559     452.1800
   1420.90027     714.5341     451.5738   1420.90027     714.5341     451.5738
   1420.88501     714.7357     451.1991   1420.88501     714.7357     451.1991
   1420.86975     716.0465     451.9375   1420.86975     716.0465     451.9375
   1420.85449     716.8818     451.4284   1420.85449     716.8818     451.4284
   1420.83923     717.6866     451.4644   1420.83923     717.6866     451.4644
   1420.82397     719.1565     452.3414   1420.82397     719.1565     452.3414
   1420.80872     721.3494     452.9927   1420.80872     721.3494     452.9927
   1420.79346     722.7699     451.7846   1420.79346     722.7699     451.7846
   1420.77820     720.9998     451.4390   1420.77820     720.9998     451.4390
   1420.76294     721.5388     449.9439   1420.76294     721.5388     449.9439
   1420.74768     721.7502     449.8124   1420.74768     721.7502     449.8124
   1420.73242     721.7429     449.0154   1420.73242     721.7429     449.0154
   1420.71716     726.1949     449.7651   1420.71716     726.1949     449.7651
   1420.70190     731.7979     453.4768   1420.70190     731.7979     453.4768
   1420.68665     740.1555     457.5537   1420.68665     740.1555     457.5537
   1420.67139     750.2031     463.1951   1420.67139     750.2031     463.1951
   1420.65613     764.2031     470.8348   1420.65613     764.2031     470.8348
   1420.64087     786.6132     483.1532   1420.64087     786.6132     483.1532
   1420.62561     813.3057     498.1972   1420.62561     813.3057     498.1972
   1420.61035     848.9468     518.6875   1420.61035     848.9468     518.6875
   1420.59509     904.2021     550.2551   1420.59509     904.2021     550.2551
   1420.57983     981.2012     593.9888   1420.57983     981.2012     593.9888
   1420.56458    1100.8519     664.1009   1420.56458    1100.8519     664.1009
   1420.54932    1270.2687     761.5742   1420.54932    1270.2687     761.5742
   1420.53406    1520.6978     907.5559   1420.53406    1520.6978     907.5559
   1420.51880    1816.1964    1079.5753   1420.51880    1816.1964    1079.5753
   1420.50354    1949.6987    1155.0194   1420.50354    1949.6987    1155.0194
   1420.48828    1991.6592    1180.3744   1420.48828    1991.6592    1180.3744
   1420.47302    2063.4475    1218.9127   1420.47302    2063.4475    1218.9127
   1420.45776    1992.3868    1174.7188   1420.45776    1992.3868    1174.7188
   1420.44250    1915.0481    1126.8446   1420.44250    1915.0481    1126.8446
   1420.42725    1869.8884    1100.2953   1420.42725    1869.8884    1100.2953
   1420.41199    1634.8582     963.1978   1420.41199    1634.8582     963.1978
   1420.39673    1488.5774     878.2693   1420.39673    1488.5774     878.2693
   1420.38147    1646.3607     964.4877   1420.38147    1646.3607     964.4877
   1420.36621    1768.4022    1035.4987   1420.36621    1768.4022    1035.4987
   1420.35095    1620.8932     947.9138   1420.35095    1620.8932     947.9138
   1420.33569    1474.2688     862.4617   1420.33569    1474.2688     862.4617
   1420.32043    1400.9534     819.1298   1420.32043    1400.9534     819.1298
   1420.30518    1064.1024     623.9263   1420.30518    1064.1024     623.9263
   1420.28992     866.4671     511.1649   1420.28992     866.4671     511.1649
   1420.27466     787.8863     466.1020   1420.27466     787.8863     466.1020
   1420.25940     751.4914     444.8651   1420.25940     751.4914     444.8651
   1420.24414     731.2059     433.1808   1420.24414     731.2059     433.1808
   1420.22888     720.6302     425.7916   1420.22888     720.6302     425.7916
   1420.21362     714.7327     421.8462   1420.21362     714.7327     421.8462
   1420.19836     711.8093     418.5122   1420.19836     711.8093     418.5122
   1420.18311     707.2673     416.0049   1420.18311     707.2673     416.0049
   1420.16785     706.6472     414.9174   1420.16785     706.6472     414.9174
   1420.15259     703.3593     413.7184   1420.15259     703.3593     413.7184
   1420.13733     703.8982     412.3657   1420.13733     703.8982     412.3657
   1420.12207     702.3148     410.7581   1420.12207     702.3148     410.7581
   1420.10681     701.2327     410.5352   1420.10681     701.2327     410.5352
   1420.09155     699.9255     408.3688   1420.09155     699.9255     408.3688
   1420.07629     699.4401     406.8806   1420.07629     699.4401     406.8806
   1420.06104     698.6823     406.7457   1420.06104     698.6823     406.7457
   1420.04578     698.8535     405.7425   1420.04578     698.8535     405.7425
   1420.03052     698.7505     405.3272   1420.03052     698.7505     405.3272
   1420.01526     698.1553     405.0754   1420.01526     698.1553     405.0754
   1420.00000     699.0936     406.0317   1420.00000     699.0936     406.0317
   1419.98474     700.0316     406.9881   1419.98474     700.0316     406.9881
   1419.96948     699.3098     404.0187   1419.96948     699.3098     404.0187
   1419.95422     696.7821     401.3718   1419.95422     696.7821     401.3718
   1419.93896     696.7037     400.8229   1419.93896     696.7037     400.8229
   1419.92371     697.2175     400.1674   1419.92371     697.2175     400.1674
   1419.90845     695.6530     399.7464   1419.90845     695.6530     399.7464
   1419.89319     695.7628     398.6921   1419.89319     695.7628     398.6921
   1419.87793     696.5740     398.8353   1419.87793     696.5740     398.8353
   1419.86267     695.8815     398.0808   1419.86267     695.8815     398.0808
   1419.84741     697.0113     397.2292   1419.84741     697.0113     397.2292
   1419.83215     695.9984     396.8694   1419.83215     695.9984     396.8694
   1419.81689     696.4612     396.8148   1419.81689     696.4612     396.8148
   1419.80164     695.9703     395.2351   1419.80164     695.9703     395.2351
   1419.78638     697.4164     395.7122   1419.78638     697.4164     395.7122
   1419.77112     696.0714     394.7543   1419.77112     696.0714     394.7543
   1419.75586     695.7537     393.9268   1419.75586     695.7537     393.9268
   1419.74060     696.4369     393.3514   1419.74060     696.4369     393.3514
   1419.72534     696.4480     393.1105   1419.72534     696.4480     393.1105
   1419.71008     696.4759     393.0698   1419.71008     696.4759     393.0698
   1419.69482     696.5345     392.3707   1419.69482     696.5345     392.3707
   1419.67957     696.8929     391.4856   1419.67957     696.8929     391.4856
   1419.66431     697.4375     392.0719   1419.66431     697.4375     392.0719
   1419.64905     695.9323     390.9286   1419.64905     695.9323     390.9286
   1419.63379     696.8984     390.6152   1419.63379     696.8984     390.6152
   1419.61853     697.5964     389.7275   1419.61853     697.5964     389.7275
   1419.60327     696.3319     390.2282   1419.60327     696.3319     390.2282
   1419.58801     696.7935     389.3138   1419.58801     696.7935     389.3138
   1419.57275     697.3094     389.1278   1419.57275     697.3094     389.1278
   1419.55750     697.9208     388.5883   1419.55750     697.9208     388.5883
   1419.54224     698.1021     388.1507   1419.54224     698.1021     388.1507
   1419.52698     698.2299     387.8987   1419.52698     698.2299     387.8987
   1419.51172     698.0920     388.1821   1419.51172     698.0920     388.1821
   1419.49646     698.2253     387.4878   1419.49646     698.2253     387.4878
   1419.48120     697.9934     387.6483   1419.48120     697.9934     387.6483
   1419.46594     698.2014     386.9091   1419.46594     698.2014     386.9091
   1419.45068     698.5186     386.0086   1419.45068     698.5186     386.0086
   1419.43542     699.1400     386.5064   1419.43542     699.1400     386.5064
   1419.42017     700.3963     385.4861   1419.42017     700.3963     385.4861
   1419.40491     698.6973     385.9110   1419.40491     698.6973     385.9110
   1419.38965     699.1137     384.7352   1419.38965     699.1137     384.7352
   1419.37439     700.5494     384.8026   1419.37439     700.5494     384.8026
   1419.35913     700.1389     384.8106   1419.35913     700.1389     384.8106
   1419.34387     700.1173     384.7226   1419.34387     700.1173     384.7226
   1419.32861     700.0505     383.9714   1419.32861     700.0505     383.9714
   1419.31335     699.9462     383.7889   1419.31335     699.9462     383.7889
   1419.29810     700.5806     383.5822   1419.29810     700.5806     383.5822
   1419.28284     702.5096     383.4586   1419.28284     702.5096     383.4586
   1419.26758     702.1956     384.0032   1419.26758     702.1956     384.0032
   1419.25232     701.7756     382.9987   1419.25232     701.7756     382.9987
   1419.23706     702.6771     383.2606   1419.23706     702.6771     383.2606
   1419.22180     702.7364     382.6467   1419.22180     702.7364     382.6467
   1419.20654     702.6557     382.8986   1419.20654     702.6557     382.8986
   1419.19128     703.0798     382.5709   1419.19128     703.0798     382.5709
   1419.17603     702.5446     382.4723   1419.17603     702.5446     382.4723
   1419.16077     702.9686     382.0845   1419.16077     702.9686     382.0845
   1419.14551     703.8167     382.1260   1419.14551     703.8167     382.1260
   1419.13025     704.6150     382.0858   1419.13025     704.6150     382.0858
   1419.11499     703.6501     382.0665   1419.11499     703.6501     382.0665
   1419.09973     703.9008     381.9664   1419.09973     703.9008     381.9664
   1419.08447     705.5513     381.9548   1419.08447     705.5513     381.9548
   1419.06921     705.4783     381.9709   1419.06921     705.4783     381.9709
   1419.05396     705.8520     382.4100   1419.05396     705.8520     382.4100
   1419.03870     706.5534     381.3995   1419.03870     706.5534     381.3995
   1419.02344     705.6571     381.8603   1419.02344     705.6571     381.8603
   1419.00818     706.9117     381.5664   1419.00818     706.9117     381.5664
   1418.99292     707.4619     381.8401   1418.99292     707.4619     381.8401
   1418.97766     707.2560     381.7863   1418.97766     707.2560     381.7863
   1418.96240     707.5986     381.7874   1418.96240     707.5986     381.7874
   1418.94714     708.9521     381.6491   1418.94714     708.9521     381.6491
   1418.93188     710.2671     381.3985   1418.93188     710.2671     381.3985
   1418.91663     707.9680     381.5250   1418.91663     707.9680     381.5250
   1418.90137     709.3080     381.9203   1418.90137     709.3080     381.9203
   1418.88611     710.2933     382.3371   1418.88611     710.2933     382.3371
   1418.87085     712.0685     382.2924   1418.87085     712.0685     382.2924
   1418.85559     711.7033     382.1950   1418.85559     711.7033     382.1950
   1418.84033     711.8452     381.9974   1418.84033     711.8452     381.9974
   1418.82507     712.8526     382.2082   1418.82507     712.8526     382.2082
   1418.80981     713.2058     382.7493   1418.80981     713.2058     382.7493
   1418.79456     714.4785     381.9722   1418.79456     714.4785     381.9722
   1418.77930     713.5811     382.4283   1418.77930     713.5811     382.4283
   1418.76404     714.8530     382.7657   1418.76404     714.8530     382.7657
   1418.74878     713.8220     382.7903   1418.74878     713.8220     382.7903
   1418.73352     715.4584     383.0656   1418.73352     715.4584     383.0656
   1418.71826     715.7227     383.1151   1418.71826     715.7227     383.1151
   1418.70300     716.3568     384.0648   1418.70300     716.3568     384.0648
   1418.68774     715.9357     383.5379   1418.68774     715.9357     383.5379
   1418.67249     717.0148     384.0848   1418.67249     717.0148     384.0848
   1418.65723     718.1868     383.8381   1418.65723     718.1868     383.8381
   1418.64197     718.4654     383.8849   1418.64197     718.4654     383.8849
   1418.62671     719.8494     384.8340   1418.62671     719.8494     384.8340
   1418.61145     719.9964     385.0000   1418.61145     719.9964     385.0000
   1418.59619     719.7264     384.9495   1418.59619     719.7264     384.9495
   1418.58093     719.4472     385.0790   1418.58093     719.4472     385.0790
   1418.56567     722.3961     384.9546   1418.56567     722.3961     384.9546
   1418.55042     721.4854     385.4666   1418.55042     721.4854     385.4666
   1418.53516     723.8597     385.9324   1418.53516     723.8597     385.9324
   1418.51990     722.8922     386.7303   1418.51990     722.8922     386.7303
   1418.50464     722.9313     386.1633   1418.50464     722.9313     386.1633
   1418.48938     724.2334     387.3605   1418.48938     724.2334     387.3605
   1418.47412     724.8958     387.6521   1418.47412     724.8958     387.6521
   1418.45886     725.6864     388.1625   1418.45886     725.6864     388.1625
   1418.44360     725.6313     388.6659   1418.44360     725.6313     388.6659
   1418.42834     727.4125     388.4351   1418.42834     727.4125     388.4351
   1418.41309     727.4712     388.7867   1418.41309     727.4712     388.7867
   1418.39783     726.6744     389.4336   1418.39783     726.6744     389.4336
   1418.38257     728.7014     389.5367   1418.38257     728.7014     389.5367
   1418.36731     729.2705     390.1244   1418.36731     729.2705     390.1244
   1418.35205     728.8982     390.8823   1418.35205     728.8982     390.8823
   1418.33679     731.1392     391.2700   1418.33679     731.1392     391.2700
   1418.32153     730.2350     391.4460   1418.32153     730.2350     391.4460
   1418.30627     732.1384     391.9463   1418.30627     732.1384     391.9463
   1418.29102     732.0601     392.3035   1418.29102     732.0601     392.3035
   1418.27576     732.8700     393.5657   1418.27576     732.8700     393.5657
   1418.26050     733.6476     393.5429   1418.26050     733.6476     393.5429
   1418.24524     733.6732     394.1705   1418.24524     733.6732     394.1705
   1418.22998     734.9046     394.1983   1418.22998     734.9046     394.1983
   1418.21472     736.5858     395.1322   1418.21472     736.5858     395.1322
   1418.19946     736.5710     395.6092   1418.19946     736.5710     395.6092
   1418.18420     738.0208     396.0103   1418.18420     738.0208     396.0103
   1418.16895     737.3909     396.5077   1418.16895     737.3909     396.5077
   1418.15369     738.3638     396.9769   1418.15369     738.3638     396.9769
   1418.13843     740.8203     397.9549   1418.13843     740.8203     397.9549
   1418.12317     739.2808     398.2564   1418.12317     739.2808     398.2564
   1418.10791     740.8559     398.8230   1418.10791     740.8559     398.8230
   1418.09265     741.8804     400.2501   1418.09265     741.8804     400.2501
   1418.07739     742.2189     399.4660   1418.07739     742.2189     399.4660
   1418.06213     744.0212     400.9517   1418.06213     744.0212     400.9517
   1418.04688     744.4652     401.6787   1418.04688     744.4652     401.6787
   1418.03162     744.9163     401.4895   1418.03162     744.9163     401.4895
   1418.01636     745.0861     402.1093   1418.01636     745.0861     402.1093
   1418.00110     745.2722     402.9252   1418.00110     745.2722     402.9252
   1417.98584     746.8466     404.1122   1417.98584     746.8466     404.1122
   1417.97058     747.2331     404.8176   1417.97058     747.2331     404.8176
   1417.95532     748.9980     404.7958   1417.95532     748.9980     404.7958
   1417.94006     748.2260     406.0386   1417.94006     748.2260     406.0386
   1417.92480     750.1673     406.5993   1417.92480     750.1673     406.5993
   1417.90955     750.4070     406.5640   1417.90955     750.4070     406.5640
   1417.89429     752.5273     408.8526   1417.89429     752.5273     408.8526
   1417.87903     752.5660     409.8463   1417.87903     752.5660     409.8463
   1417.86377     752.7939     409.2333   1417.86377     752.7939     409.2333
   1417.84851     753.0119     410.1362   1417.84851     753.0119     410.1362
   1417.83325     754.8019     411.3528   1417.83325     754.8019     411.3528
   1417.81799     755.6597     412.1382   1417.81799     755.6597     412.1382
   1417.80273     756.2555     412.5862   1417.80273     756.2555     412.5862
   1417.78748     756.9241     414.3916   1417.78748     756.9241     414.3916
   1417.77222     757.1587     413.9725   1417.77222     757.1587     413.9725
   1417.75696     757.9258     415.4054   1417.75696     757.9258     415.4054
   1417.74170     759.1834     416.1650   1417.74170     759.1834     416.1650
   1417.72644     759.2947     416.8404   1417.72644     759.2947     416.8404
   1417.71118     760.9854     417.6187   1417.71118     760.9854     417.6187
   1417.69592     761.7051     418.8074   1417.69592     761.7051     418.8074
   1417.68066     761.1804     419.6862   1417.68066     761.1804     419.6862
   1417.66541     762.4833     420.1392   1417.66541     762.4833     420.1392
   1417.65015     762.8598     420.8830   1417.65015     762.8598     420.8830
   1417.63489     764.2701     421.6480   1417.63489     764.2701     421.6480
   1417.61963     765.1805     423.1823   1417.61963     765.1805     423.1823
   1417.60437     765.3783     423.8806   1417.60437     765.3783     423.8806
   1417.58911     766.5993     424.1141   1417.58911     766.5993     424.1141
   1417.57385     767.8041     425.7181   1417.57385     767.8041     425.7181
   1417.55859     766.9397     426.7961   1417.55859     766.9397     426.7961
   1417.54333     769.2418     427.6261   1417.54333     769.2418     427.6261
   1417.52808     770.0919     428.0707   1417.52808     770.0919     428.0707
   1417.51282     771.0071     428.8796   1417.51282     771.0071     428.8796
   1417.49756     770.8109     429.6818   1417.49756     770.8109     429.6818
   1417.48230     772.1260     431.8224   1417.48230     772.1260     431.8224
   1417.46704     771.6990     432.2190   1417.46704     771.6990     432.2190
   1417.45178     773.4108     432.5742   1417.45178     773.4108     432.5742
   1417.43652     773.2679     433.6350   1417.43652     773.2679     433.6350
   1417.42126     774.6785     434.6858   1417.42126     774.6785     434.6858
   1417.40601     775.7847     435.8068   1417.40601     775.7847     435.8068
   1417.39075     774.7613     436.6573   1417.39075     774.7613     436.6573
   1417.37549     777.0592     437.9970   1417.37549     777.0592     437.9970
   1417.36023     777.0175     438.7370   1417.36023     777.0175     438.7370
   1417.34497     778.2601     440.0334   1417.34497     778.2601     440.0334
   1417.32971     777.6310     440.6874   1417.32971     777.6310     440.6874
   1417.31445     778.8106     441.9656   1417.31445     778.8106     441.9656
   1417.29919     779.3518     442.7459   1417.29919     779.3518     442.7459
   1417.28394     780.7817     444.0783   1417.28394     780.7817     444.0783
   1417.26868     780.4662     444.8542   1417.26868     780.4662     444.8542
   1417.25342     781.7095     445.5221   1417.25342     781.7095     445.5221
   1417.23816     782.7765     446.6518   1417.23816     782.7765     446.6518
   1417.22290     784.3438     447.5936   1417.22290     784.3438     447.5936
   1417.20764     784.5709     448.8683   1417.20764     784.5709     448.8683
   1417.19238     783.8193     450.4936   1417.19238     783.8193     450.4936
   1417.17712     784.1954     451.0461   1417.17712     784.1954     451.0461
   1417.16187     785.1120     451.0592   1417.16187     785.1120     451.0592
   1417.14661     786.7153     452.9738   1417.14661     786.7153     452.9738
   1417.13135     786.6494     454.4172   1417.13135     786.6494     454.4172
   1417.11609     787.7270     455.8605   1417.11609     787.7270     455.8605
   1417.10083     787.5812     455.8063   1417.10083     787.5812     455.8063
   1417.08557     788.2903     457.1410   1417.08557     788.2903     457.1410
   1417.07031     789.1550     458.6176   1417.07031     789.1550     458.6176
   1417.05505     789.3163     459.2295   1417.05505     789.3163     459.2295
   1417.03979     790.3448     459.5535   1417.03979     790.3448     459.5535
   1417.02454     788.6593     459.9349   1417.02454     788.6593     459.9349
   1417.00928     791.7355     461.9179   1417.00928     791.7355     461.9179
   1416.99402     791.4869     463.2299   1416.99402     791.4869     463.2299
   1416.97876     792.0416     463.4910   1416.97876     792.0416     463.4910
   1416.96350     792.2607     464.2000   1416.96350     792.2607     464.2000
   1416.94824     793.3765     465.0452   1416.94824     793.3765     465.0452
   1416.93298     793.0488     467.9709   1416.93298     793.0488     467.9709
   1416.91772     794.0887     467.7708   1416.91772     794.0887     467.7708
   1416.90247     794.3898     468.7318   1416.90247     794.3898     468.7318
   1416.88721     794.0411     469.9258   1416.88721     794.0411     469.9258
   1416.87195     794.7929     470.5690   1416.87195     794.7929     470.5690
   1416.85669     794.9431     470.8038   1416.85669     794.9431     470.8038
   1416.84143     795.5958     472.2318   1416.84143     795.5958     472.2318
   1416.82617     794.7071     473.6169   1416.82617     794.7071     473.6169
   1416.81091     794.8650     474.4294   1416.81091     794.8650     474.4294
   1416.79565     795.5868     475.8127   1416.79565     795.5868     475.8127
   1416.78040     796.6035     476.4400   1416.78040     796.6035     476.4400
   1416.76514     797.5333     477.4730   1416.76514     797.5333     477.4730
   1416.74988     797.4696     478.1013   1416.74988     797.4696     478.1013
   1416.73462     798.7967     478.8599   1416.73462     798.7967     478.8599
   1416.71936     797.1888     480.1323   1416.71936     797.1888     480.1323
   1416.70410     798.0588     479.9052   1416.70410     798.0588     479.9052
   1416.68884     796.9208     481.1942   1416.68884     796.9208     481.1942
   1416.67358     799.1371     482.0222   1416.67358     799.1371     482.0222
   1416.65833     798.3279     482.9668   1416.65833     798.3279     482.9668
   1416.64307     798.1777     483.7798   1416.64307     798.1777     483.7798
   1416.62781     799.4461     484.0424   1416.62781     799.4461     484.0424
   1416.61255     799.2510     486.1115   1416.61255     799.2510     486.1115
   1416.59729     799.3101     486.5691   1416.59729     799.3101     486.5691
   1416.58203     799.3217     487.1687   1416.58203     799.3217     487.1687
   1416.56677     799.3142     487.9291   1416.56677     799.3142     487.9291
   1416.55151     798.9111     488.6385   1416.55151     798.9111     488.6385
   1416.53625     798.0408     488.7159   1416.53625     798.0408     488.7159
   1416.52100     798.7651     489.5589   1416.52100     798.7651     489.5589
   1416.50574     799.2327     490.7026   1416.50574     799.2327     490.7026
   1416.49048     799.8173     490.8261   1416.49048     799.8173     490.8261
   1416.47522     799.9391     491.2456   1416.47522     799.9391     491.2456
   1416.45996     799.2897     492.0891   1416.45996     799.2897     492.0891
   1416.44470     798.5713     492.4835   1416.44470     798.5713     492.4835
   1416.42944     798.6620     493.7719   1416.42944     798.6620     493.7719
   1416.41418     799.3544     493.1886   1416.41418     799.3544     493.1886
   1416.39893     799.9655     494.2939   1416.39893     799.9655     494.2939
   1416.38367     799.2249     494.8828   1416.38367     799.2249     494.8828
   1416.36841     799.1799     495.2588   1416.36841     799.1799     495.2588
   1416.35315     797.7133     496.1514   1416.35315     797.7133     496.1514
   1416.33789     797.6260     497.1954   1416.33789     797.6260     497.1954
   1416.32263     798.0441     497.6108   1416.32263     798.0441     497.6108
   1416.30737     798.1336     497.5428   1416.30737     798.1336     497.5428
   1416.29211     798.5785     498.4707   1416.29211     798.5785     498.4707
   1416.27686     797.3102     498.5554   1416.27686     797.3102     498.5554
   1416.26160     798.9755     498.7857   1416.26160     798.9755     498.7857
   1416.24634     796.5643     499.2047   1416.24634     796.5643     499.2047
   1416.23108     796.8577     499.4529   1416.23108     796.8577     499.4529
   1416.21582     796.8832     500.9930   1416.21582     796.8832     500.9930
   1416.20056     795.3148     500.6634   1416.20056     795.3148     500.6634
   1416.18530     795.3300     501.0198   1416.18530     795.3300     501.0198
   1416.17004     795.6198     501.0817   1416.17004     795.6198     501.0817
   1416.15479     794.0857     500.9106   1416.15479     794.0857     500.9106
   1416.13953     794.6082     500.8435   1416.13953     794.6082     500.8435
   1416.12427     795.0101     501.8019   1416.12427     795.0101     501.8019
   1416.10901     794.0568     503.1579   1416.10901     794.0568     503.1579
   1416.09375     794.5089     503.0878   1416.09375     794.5089     503.0878
   1416.07849     793.0714     502.5776   1416.07849     793.0714     502.5776
   1416.06323     793.5851     503.1876   1416.06323     793.5851     503.1876
   1416.04797     791.6295     502.3145   1416.04797     791.6295     502.3145
   1416.03271     791.0413     503.4989   1416.03271     791.0413     503.4989
   1416.01746     791.1595     503.7002   1416.01746     791.1595     503.7002
   1416.00220     789.9320     503.4013   1416.00220     789.9320     503.4013
   1415.98694     790.1445     503.2664   1415.98694     790.1445     503.2664
   1415.97168     789.9670     503.2423   1415.97168     789.9670     503.2423
   1415.95642     788.3495     503.8044   1415.95642     788.3495     503.8044
   1415.94116     788.4077     503.9999   1415.94116     788.4077     503.9999
   1415.92590     787.9626     503.7562   1415.92590     787.9626     503.7562
   1415.91064     787.9068     504.5183   1415.91064     787.9068     504.5183
   1415.89539     787.6118     504.9853   1415.89539     787.6118     504.9853
   1415.88013     786.3906     505.3284   1415.88013     786.3906     505.3284
   1415.86487     785.9238     504.0268   1415.86487     785.9238     504.0268
   1415.84961     785.7181     504.5388   1415.84961     785.7181     504.5388
   1415.83435     784.9570     505.0307   1415.83435     784.9570     505.0307
   1415.81909     784.6279     504.6439   1415.81909     784.6279     504.6439
   1415.80383     782.5744     504.5567   1415.80383     782.5744     504.5567
   1415.78857     782.9433     504.4792   1415.78857     782.9433     504.4792
   1415.77332     780.7726     504.0005   1415.77332     780.7726     504.0005
   1415.75806     780.9445     505.0265   1415.75806     780.9445     505.0265
   1415.74280     781.4271     505.2825   1415.74280     781.4271     505.2825
   1415.72754     778.6782     505.3463   1415.72754     778.6782     505.3463
   1415.71228     779.1990     504.8527   1415.71228     779.1990     504.8527
   1415.69702     779.1309     504.8641   1415.69702     779.1309     504.8641
   1415.68176     776.7859     504.5245   1415.68176     776.7859     504.5245
   1415.66650     777.4027     504.4937   1415.66650     777.4027     504.4937
   1415.65125     775.2182     504.2631   1415.65125     775.2182     504.2631
   1415.63599     775.2137     504.7370   1415.63599     775.2137     504.7370
   1415.62073     774.7062     504.7026   1415.62073     774.7062     504.7026
   1415.60547     771.9590     503.7276   1415.60547     771.9590     503.7276
   1415.59021     772.9052     504.3615   1415.59021     772.9052     504.3615
   1415.57495     771.2161     503.0366   1415.57495     771.2161     503.0366
   1415.55969     771.0820     504.4774   1415.55969     771.0820     504.4774
   1415.54443     770.9603     504.3781   1415.54443     770.9603     504.3781
   1415.52917     769.3555     503.5485   1415.52917     769.3555     503.5485
   1415.51392     769.2315     502.8658   1415.51392     769.2315     502.8658
   1415.49866     767.6716     503.0351   1415.49866     767.6716     503.0351
   1415.48340     765.3650     503.5757   1415.48340     765.3650     503.5757
   1415.46814     765.4521     503.7910   1415.46814     765.4521     503.7910
   1415.45288     763.9536     503.1205   1415.45288     763.9536     503.1205
   1415.43762     762.5447     502.0534   1415.43762     762.5447     502.0534
   1415.42236     762.7076     501.8423   1415.42236     762.7076     501.8423
   1415.40710     761.4598     502.2711   1415.40710     761.4598     502.2711
   1415.39185     760.3668     502.1241   1415.39185     760.3668     502.1241
   1415.37659     758.9287     501.3139   1415.37659     758.9287     501.3139
   1415.36133     758.1114     501.1491   1415.36133     758.1114     501.1491
   1415.34607     756.9526     500.7331   1415.34607     756.9526     500.7331
   1415.33081     755.8144     500.5392   1415.33081     755.8144     500.5392
   1415.31555     753.6161     499.5803   1415.31555     753.6161     499.5803
   1415.30029     754.5731     500.2909   1415.30029     754.5731     500.2909
   1415.28503     753.5833     500.4445   1415.28503     753.5833     500.4445
   1415.26978     751.8090     499.1611   1415.26978     751.8090     499.1611
   1415.25452     750.7471     499.0781   1415.25452     750.7471     499.0781
   1415.23926     749.7477     498.4617   1415.23926     749.7477     498.4617
   1415.22400     748.3800     498.5853   1415.22400     748.3800     498.5853
   1415.20874     746.4174     497.3622   1415.20874     746.4174     497.3622
   1415.19348     745.8306     497.8801   1415.19348     745.8306     497.8801
   1415.17822     745.0198     497.8452   1415.17822     745.0198     497.8452
   1415.16296     743.4965     496.5210   1415.16296     743.4965     496.5210
   1415.14771     741.8618     495.8132   1415.14771     741.8618     495.8132
   1415.13245     740.4031     495.9484   1415.13245     740.4031     495.9484
   1415.11719     739.0038     495.8134   1415.11719     739.0038     495.8134
   1415.10193     738.3662     495.5535   1415.10193     738.3662     495.5535
   1415.08667     736.9552     494.3913   1415.08667     736.9552     494.3913
   1415.07141     734.5264     494.5038   1415.07141     734.5264     494.5038
   1415.05615     734.0555     493.1971   1415.05615     734.0555     493.1971
   1415.04089     732.7294     493.8203   1415.04089     732.7294     493.8203
   1415.02563     730.4053     493.2851   1415.02563     730.4053     493.2851
   1415.01038     731.2927     491.7580   1415.01038     731.2927     491.7580
   1414.99512     728.8045     490.9210   1414.99512     728.8045     490.9210
   1414.97986     725.9471     490.7784   1414.97986     725.9471     490.7784
   1414.96460     726.0483     491.2380   1414.96460     726.0483     491.2380
   1414.94934     724.1364     489.4376   1414.94934     724.1364     489.4376
   1414.93408     721.8305     488.9308   1414.93408     721.8305     488.9308
   1414.91882     721.2787     488.5906   1414.91882     721.2787     488.5906
   1414.90356     719.7565     487.9376   1414.90356     719.7565     487.9376
   1414.88831     717.3345     486.1876   1414.88831     717.3345     486.1876
   1414.87305     716.0331     487.5752   1414.87305     716.0331     487.5752
   1414.85779     714.7318     485.9235   1414.85779     714.7318     485.9235
   1414.84253     711.9811     485.2444   1414.84253     711.9811     485.2444
   1414.82727     710.6113     484.2986   1414.82727     710.6113     484.2986
   1414.81201     709.2574     483.4424   1414.81201     709.2574     483.4424
   1414.79675     708.3586     482.2974   1414.79675     708.3586     482.2974
   1414.78149     705.2232     482.6106   1414.78149     705.2232     482.6106
   1414.76624     703.2630     480.9388   1414.76624     703.2630     480.9388
   1414.75098     701.6955     480.3422   1414.75098     701.6955     480.3422
   1414.73572     699.9316     479.1699   1414.73572     699.9316     479.1699
   1414.72046     700.4305     477.9359   1414.72046     700.4305     477.9359
   1414.70520     697.3551     477.8599   1414.70520     697.3551     477.8599
   1414.68994     694.4437     476.6577   1414.68994     694.4437     476.6577
   1414.67468     692.7000     476.1911   1414.67468     692.7000     476.1911
   1414.65942     691.4384     475.4012   1414.65942     691.4384     475.4012
   1414.64417     689.2627     474.2516   1414.64417     689.2627     474.2516
   1414.62891     687.0367     472.8625   1414.62891     687.0367     472.8625
   1414.61365     685.3695     472.6967   1414.61365     685.3695     472.6967
   1414.59839     682.8844     471.2235   1414.59839     682.8844     471.2235
   1414.58313     681.8573     469.9905   1414.58313     681.8573     469.9905
   1414.56787     678.3394     469.7351   1414.56787     678.3394     469.7351
   1414.55261     677.5970     468.1019   1414.55261     677.5970     468.1019
   1414.53735     674.9978     467.2405   1414.53735     674.9978     467.2405
   1414.52209     673.3521     466.4760   1414.52209     673.3521     466.4760
   1414.50684     670.9223     464.8905   1414.50684     670.9223     464.8905
   1414.49158     668.4589     464.2442   1414.49158     668.4589     464.2442
   1414.47632     666.7726     464.0723   1414.47632     666.7726     464.0723
   1414.46106     665.0478     461.8045   1414.46106     665.0478     461.8045
   1414.44580     662.3757     461.2587   1414.44580     662.3757     461.2587
   1414.43054     660.8964     460.8737   1414.43054     660.8964     460.8737
   1414.41528     658.6858     459.5500   1414.41528     658.6858     459.5500
   1414.40002     657.0198     457.8221   1414.40002     657.0198     457.8221
   1414.38477     653.9464     456.2812   1414.38477     653.9464     456.2812
   1414.36951     651.1083     455.6886   1414.36951     651.1083     455.6886
   1414.35425     649.1717     454.1674   1414.35425     649.1717     454.1674
   1414.33899     648.0298     453.4545   1414.33899     648.0298     453.4545
   1414.32373     645.0107     452.0350   1414.32373     645.0107     452.0350
   1414.30847     642.8223     450.2148   1414.30847     642.8223     450.2148
   1414.29321     639.9091     448.9865   1414.29321     639.9091     448.9865
   1414.27795     637.9547     448.3125   1414.27795     637.9547     448.3125
   1414.26270     635.0624     447.2535   1414.26270     635.0624     447.2535
   1414.24744     632.7415     445.4103   1414.24744     632.7415     445.4103
   1414.23218     629.8878     444.5368   1414.23218     629.8878     444.5368
   1414.21692     627.2217     442.5886   1414.21692     627.2217     442.5886
   1414.20166     624.3749     440.5267   1414.20166     624.3749     440.5267
   1414.18640     623.1885     439.5472   1414.18640     623.1885     439.5472
   1414.17114     619.7665     439.2980   1414.17114     619.7665     439.2980
   1414.15588     618.3600     437.0696   1414.15588     618.3600     437.0696
   1414.14062     614.9108     435.4040   1414.14062     614.9108     435.4040
   1414.12537     612.4688     434.3181   1414.12537     612.4688     434.3181
   1414.11011     611.0367     433.3573   1414.11011     611.0367     433.3573
   1414.09485     607.3195     432.2493   1414.09485     607.3195     432.2493
   1414.07959     604.1957     429.8945   1414.07959     604.1957     429.8945
   1414.06433     601.8979     428.6631   1414.06433     601.8979     428.6631
   1414.04907     599.4656     427.5783   1414.04907     599.4656     427.5783
   1414.03381     597.6039     426.0385   1414.03381     597.6039     426.0385
   1414.01855     594.2410     424.3816   1414.01855     594.2410     424.3816
   1414.00330     607.9855     428.8015   1414.00330     607.9855     428.8015
   1413.98804     589.6525     421.2944   1413.98804     589.6525     421.2944
   1413.97278     586.6475     419.4192   1413.97278     586.6475     419.4192
   1413.95752     583.8142     417.7924   1413.95752     583.8142     417.7924
   1413.94226     580.6718     416.6425   1413.94226     580.6718     416.6425
   1413.92700     577.8686     415.2005   1413.92700     577.8686     415.2005
   1413.91174     575.3639     413.9749   1413.91174     575.3639     413.9749
   1413.89648     573.0982     411.5526   1413.89648     573.0982     411.5526
   1413.88123     570.5622     411.3045   1413.88123     570.5622     411.3045
   1413.86597     566.4333     409.2414   1413.86597     566.4333     409.2414
   1413.85071     563.9178     407.7661   1413.85071     563.9178     407.7661
   1413.83545     561.4998     405.8752   1413.83545     561.4998     405.8752
   1413.82019     559.7405     404.4446   1413.82019     559.7405     404.4446
   1413.80493     556.7894     402.0081   1413.80493     556.7894     402.0081
   1413.78967     554.0540     400.8329   1413.78967     554.0540     400.8329
   1413.77441     549.3201     399.4346   1413.77441     549.3201     399.4346
   1413.75916     547.2529     397.7505   1413.75916     547.2529     397.7505
   1413.74390     545.5339     395.6433   1413.74390     545.5339     395.6433
   1413.72864     541.7272     393.8501   1413.72864     541.7272     393.8501
   1413.71338     538.7149     392.4007   1413.71338     538.7149     392.4007
   1413.69812     535.9779     391.1415   1413.69812     535.9779     391.1415
   1413.68286     534.3906     389.6064   1413.68286     534.3906     389.6064
   1413.66760     530.1063     387.7154   1413.66760     530.1063     387.7154
   1413.65234     527.8854     386.0329   1413.65234     527.8854     386.0329
   1413.63708     525.6303     385.0697   1413.63708     525.6303     385.0697
   1413.62183     522.1436     383.1680   1413.62183     522.1436     383.1680
   1413.60657     519.8326     381.7881   1413.60657     519.8326     381.7881
   1413.59131     516.4918     380.1949   1413.59131     516.4918     380.1949
   1413.57605     513.7765     378.3217   1413.57605     513.7765     378.3217
   1413.56079     511.1028     376.5049   1413.56079     511.1028     376.5049
   1413.54553     508.6946     375.1905   1413.54553     508.6946     375.1905
   1413.53027     505.5655     373.0368   1413.53027     505.5655     373.0368
   1413.51501     503.8139     371.9717   1413.51501     503.8139     371.9717
   1413.49976     500.0166     369.7611   1413.49976     500.0166     369.7611
   1413.48450     496.6507     368.5725   1413.48450     496.6507     368.5725
   1413.46924     494.3596     366.8334   1413.46924     494.3596     366.8334
   1413.45398     491.8540     365.2115   1413.45398     491.8540     365.2115
   1413.43872     489.2942     364.2523   1413.43872     489.2942     364.2523
   1413.42346     486.3045     362.8174   1413.42346     486.3045     362.8174
   1413.40820     483.2853     360.8059   1413.40820     483.2853     360.8059
   1413.39294     481.1394     359.5176   1413.39294     481.1394     359.5176
   1413.37769     478.0041     357.6946   1413.37769     478.0041     357.6946
   1413.36243     475.0342     356.3079   1413.36243     475.0342     356.3079
   1413.34717     472.9095     354.7651   1413.34717     472.9095     354.7651
   1413.33191     470.6230     353.5194   1413.33191     470.6230     353.5194
   1413.31665     467.5265     352.3445   1413.31665     467.5265     352.3445
   1413.30139     465.2145     350.4034   1413.30139     465.2145     350.4034
   1413.28613     461.9763     349.3398   1413.28613     461.9763     349.3398
   1413.27087     459.9210     347.9389   1413.27087     459.9210     347.9389
   1413.25562     457.0883     346.1988   1413.25562     457.0883     346.1988
   1413.24036     454.2137     344.7165   1413.24036     454.2137     344.7165
   1413.22510     451.6871     343.4688   1413.22510     451.6871     343.4688
   1413.20984     450.1042     342.3291   1413.20984     450.1042     342.3291
   1413.19458     447.3766     340.6248   1413.19458     447.3766     340.6248
   1413.17932     445.2820     339.5881   1413.17932     445.2820     339.5881
   1413.16406     442.9513     338.4116   1413.16406     442.9513     338.4116
   1413.14880     440.0960     337.6791   1413.14880     440.0960     337.6791
   1413.13354     438.8907     335.9468   1413.13354     438.8907     335.9468
   1413.11829     436.2997     335.3562   1413.11829     436.2997     335.3562
   1413.10303     433.1597     333.5047   1413.10303     433.1597     333.5047
   1413.08777     430.6667     332.6592   1413.08777     430.6667     332.6592
   1413.07251     428.4655     331.0088   1413.07251     428.4655     331.0088
   1413.05725     426.5964     330.5359   1413.05725     426.5964     330.5359
   1413.04199     423.8608     328.8043   1413.04199     423.8608     328.8043
   1413.02673     422.1586     327.5579   1413.02673     422.1586     327.5579
   1413.01147     420.0734     327.3379   1413.01147     420.0734     327.3379
   1412.99622     418.0874     326.2096   1412.99622     418.0874     326.2096
   1412.98096     416.0436     324.6709   1412.98096     416.0436     324.6709
   1412.96570     414.3400     324.1996   1412.96570     414.3400     324.1996
   1412.95044     411.8344     323.1456   1412.95044     411.8344     323.1456
   1412.93518     409.9619     322.7811   1412.93518     409.9619     322.7811
   1412.91992     407.5183     321.9460   1412.91992     407.5183     321.9460
   1412.90466     406.8501     321.8046   1412.90466     406.8501     321.8046
   1412.88940     405.4280     320.5128   1412.88940     405.4280     320.5128
   1412.87415     403.3990     319.6703   1412.87415     403.3990     319.6703
   1412.85889     401.7869     319.4708   1412.85889     401.7869     319.4708
   1412.84363     400.1180     317.9518   1412.84363     400.1180     317.9518
   1412.82837     397.8024     318.3802   1412.82837     397.8024     318.3802
   1412.81311     396.2993     317.1083   1412.81311     396.2993     317.1083
   1412.79785     395.3777     317.2590   1412.79785     395.3777     317.2590
   1412.78259     393.4362     316.8416   1412.78259     393.4362     316.8416
   1412.76733     392.3832     316.4024   1412.76733     392.3832     316.4024
   1412.75208     390.3770     316.3246   1412.75208     390.3770     316.3246
   1412.73682     389.1793     315.8881   1412.73682     389.1793     315.8881
   1412.72156     387.6319     314.8811   1412.72156     387.6319     314.8811
   1412.70630     386.2745     314.9457   1412.70630     386.2745     314.9457
   1412.69104     385.2933     314.7120   1412.69104     385.2933     314.7120
   1412.67578     384.2071     314.5399   1412.67578     384.2071     314.5399
   1412.66052     382.9668     314.3708   1412.66052     382.9668     314.3708
   1412.64526     381.7912     314.4178   1412.64526     381.7912     314.4178
   1412.63000     380.8827     315.0149   1412.63000     380.8827     315.0149
   1412.61475     380.1956     314.9551   1412.61475     380.1956     314.9551
   1412.59949     379.5177     314.8153   1412.59949     379.5177     314.8153
   1412.58423     378.9716     314.7651   1412.58423     378.9716     314.7651
   1412.56897     377.8004     315.3177   1412.56897     377.8004     315.3177
   1412.55371     376.8021     315.6412   1412.55371     376.8021     315.6412
   1412.53845     376.0758     315.4001   1412.53845     376.0758     315.4001
   1412.52319     375.3040     316.3364   1412.52319     375.3040     316.3364
   1412.50793     375.0961     316.6075   1412.50793     375.0961     316.6075
   1412.49268     374.2400     317.1777   1412.49268     374.2400     317.1777
   1412.47742     373.8290     317.4680   1412.47742     373.8290     317.4680
   1412.46216     373.9319     318.5775   1412.46216     373.9319     318.5775
   1412.44690     372.8569     318.6812   1412.44690     372.8569     318.6812
   1412.43164     372.4846     319.3423   1412.43164     372.4846     319.3423
   1412.41638     372.3064     320.5347   1412.41638     372.3064     320.5347
   1412.40112     372.0071     321.2392   1412.40112     372.0071     321.2392
   1412.38586     371.5074     322.2942   1412.38586     371.5074     322.2942
   1412.37061     371.8548     322.8876   1412.37061     371.8548     322.8876
   1412.35535     371.6023     324.2307   1412.35535     371.6023     324.2307
   1412.34009     371.3772     324.6040   1412.34009     371.3772     324.6040
   1412.32483     371.1783     325.7710   1412.32483     371.1783     325.7710
   1412.30957     371.8040     327.1961   1412.30957     371.8040     327.1961
   1412.29431     372.1273     328.1597   1412.29431     372.1273     328.1597
   1412.27905     372.1867     329.5148   1412.27905     372.1867     329.5148
   1412.26379     372.1688     330.9666   1412.26379     372.1688     330.9666
   1412.24854     372.6808     331.8885   1412.24854     372.6808     331.8885
   1412.23328     372.9148     333.2619   1412.23328     372.9148     333.2619
   1412.21802     373.4652     334.2499   1412.21802     373.4652     334.2499
   1412.20276     374.1178     337.0983   1412.20276     374.1178     337.0983