#     FILENAME=!Skynet_57528_lach-hhg-168_20547_20991.cyb.fits
#     BASENAME=Skynet_57528_lach-hhg-168_20547_20991
#     SRC_NAME=lach-hhg-168
#     OBSERVER=hhgmadison16_9500
#     DATE_OBS=2016-05-20T18:12:42.750
#        OBSID=20547
#      SCANNUM=20991
#          MJD=57528.7599
#          UTC=65651
#     SCANTYPE=track
#     DATAMODE=HIRES
#     TUNEFREQ=1420.0000
# Actual_FREQ1=1420.0000
# Actual_FREQ2=1420.0000
#    LO1Tuning=6870.000
#     RFFILTER=1355_1435
#        OBSBW=-15.6250
#        NCHAN=1024 
#        FOCUS=37.0709
#           RA=05:13:34.55
#          DEC=38:56:40.33
#      RA(hrs)=5.226300
#     DEC(deg)=38.944500
#    AZIM(deg)=81.926
#    ELEV(deg)=84.830
#     IFattens=10.00, 9.00
#      WARNING=None
#    TCAL_XL1=7.9635
#    TCAL_YR1=9.1340
#    TCAL_XL2=7.9635
#    TCAL_YR2=9.1340
#     TRX_XL1=11.7060
#     TRX_YR1=11.7060
#     TRX_XL2=11.7060
#     TRX_YR2=11.7060
#        TAVE=1.0000
#Freq1(MHz)          XL1          YR1  Freq2(MHz)          XL2          YR2 

   1427.81250     377.7983     335.4050   1427.81250     377.7983     335.4050
   1427.79724     378.9897     335.9521   1427.79724     378.9897     335.9521
   1427.78198     379.1170     338.5006   1427.78198     379.1170     338.5006
   1427.76672     379.7986     340.4698   1427.76672     379.7986     340.4698
   1427.75146     381.5052     341.8221   1427.75146     381.5052     341.8221
   1427.73621     381.2658     343.3554   1427.73621     381.2658     343.3554
   1427.72095     382.3350     345.3638   1427.72095     382.3350     345.3638
   1427.70569     383.1964     347.4148   1427.70569     383.1964     347.4148
   1427.69043     384.5032     349.3632   1427.69043     384.5032     349.3632
   1427.67517     385.9152     350.9414   1427.67517     385.9152     350.9414
   1427.65991     386.8373     353.1237   1427.65991     386.8373     353.1237
   1427.64465     388.2557     354.8349   1427.64465     388.2557     354.8349
   1427.62939     388.9644     357.6620   1427.62939     388.9644     357.6620
   1427.61414     389.5809     359.3370   1427.61414     389.5809     359.3370
   1427.59888     391.5484     361.6049   1427.59888     391.5484     361.6049
   1427.58362     393.2214     363.9243   1427.58362     393.2214     363.9243
   1427.56836     394.2688     366.4206   1427.56836     394.2688     366.4206
   1427.55310     395.2048     368.9997   1427.55310     395.2048     368.9997
   1427.53784     396.7830     371.2740   1427.53784     396.7830     371.2740
   1427.52258     398.6057     372.6992   1427.52258     398.6057     372.6992
   1427.50732     400.2191     375.6830   1427.50732     400.2191     375.6830
   1427.49207     402.1698     377.2538   1427.49207     402.1698     377.2538
   1427.47681     403.6308     380.5299   1427.47681     403.6308     380.5299
   1427.46155     405.5515     383.9860   1427.46155     405.5515     383.9860
   1427.44629     407.0641     385.7324   1427.44629     407.0641     385.7324
   1427.43103     408.6139     388.1568   1427.43103     408.6139     388.1568
   1427.41577     411.1233     391.7732   1427.41577     411.1233     391.7732
   1427.40051     413.1884     393.4138   1427.40051     413.1884     393.4138
   1427.38525     414.7606     396.3929   1427.38525     414.7606     396.3929
   1427.37000     417.2651     399.3231   1427.37000     417.2651     399.3231
   1427.35474     419.2811     401.9273   1427.35474     419.2811     401.9273
   1427.33948     421.0908     404.2817   1427.33948     421.0908     404.2817
   1427.32422     423.1729     407.6776   1427.32422     423.1729     407.6776
   1427.30896     425.6258     409.9517   1427.30896     425.6258     409.9517
   1427.29370     427.7949     413.4252   1427.29370     427.7949     413.4252
   1427.27844     429.7513     416.3420   1427.27844     429.7513     416.3420
   1427.26318     432.5277     418.5301   1427.26318     432.5277     418.5301
   1427.24792     434.7999     422.0381   1427.24792     434.7999     422.0381
   1427.23267     436.8263     424.6355   1427.23267     436.8263     424.6355
   1427.21741     439.0215     427.1546   1427.21741     439.0215     427.1546
   1427.20215     441.4324     430.8013   1427.20215     441.4324     430.8013
   1427.18689     444.7890     433.1254   1427.18689     444.7890     433.1254
   1427.17163     446.1162     435.4117   1427.17163     446.1162     435.4117
   1427.15637     449.6102     439.3302   1427.15637     449.6102     439.3302
   1427.14111     452.2408     441.7057   1427.14111     452.2408     441.7057
   1427.12585     454.9126     445.0964   1427.12585     454.9126     445.0964
   1427.11060     457.4598     448.2152   1427.11060     457.4598     448.2152
   1427.09534     460.6650     451.9072   1427.09534     460.6650     451.9072
   1427.08008     462.8832     454.2867   1427.08008     462.8832     454.2867
   1427.06482     464.9526     457.0952   1427.06482     464.9526     457.0952
   1427.04956     468.4138     460.0419   1427.04956     468.4138     460.0419
   1427.03430     471.3103     462.4923   1427.03430     471.3103     462.4923
   1427.01904     473.7622     465.9373   1427.01904     473.7622     465.9373
   1427.00378     476.1719     468.2844   1427.00378     476.1719     468.2844
   1426.98853     479.4461     472.2056   1426.98853     479.4461     472.2056
   1426.97327     483.2184     474.7806   1426.97327     483.2184     474.7806
   1426.95801     485.4520     477.9818   1426.95801     485.4520     477.9818
   1426.94275     488.5184     480.7888   1426.94275     488.5184     480.7888
   1426.92749     491.4488     484.1419   1426.92749     491.4488     484.1419
   1426.91223     494.5842     486.5670   1426.91223     494.5842     486.5670
   1426.89697     497.9377     489.5116   1426.89697     497.9377     489.5116
   1426.88171     500.6783     492.6159   1426.88171     500.6783     492.6159
   1426.86646     502.8647     495.0981   1426.86646     502.8647     495.0981
   1426.85120     506.6653     498.2859   1426.85120     506.6653     498.2859
   1426.83594     509.9000     501.7576   1426.83594     509.9000     501.7576
   1426.82068     512.5549     503.2947   1426.82068     512.5549     503.2947
   1426.80542     515.3181     506.8812   1426.80542     515.3181     506.8812
   1426.79016     519.9847     510.2779   1426.79016     519.9847     510.2779
   1426.77490     523.0104     511.7919   1426.77490     523.0104     511.7919
   1426.75964     525.1428     515.4586   1426.75964     525.1428     515.4586
   1426.74438     528.8638     518.0021   1426.74438     528.8638     518.0021
   1426.72913     531.5572     520.3339   1426.72913     531.5572     520.3339
   1426.71387     534.5277     523.8587   1426.71387     534.5277     523.8587
   1426.69861     537.9869     525.8868   1426.69861     537.9869     525.8868
   1426.68335     541.8325     527.8729   1426.68335     541.8325     527.8729
   1426.66809     543.7402     531.6025   1426.66809     543.7402     531.6025
   1426.65283     547.0162     534.0749   1426.65283     547.0162     534.0749
   1426.63757     550.5204     536.5820   1426.63757     550.5204     536.5820
   1426.62231     557.3275     542.3536   1426.62231     557.3275     542.3536
   1426.60706     556.4972     541.9441   1426.60706     556.4972     541.9441
   1426.59180     559.7998     543.2676   1426.59180     559.7998     543.2676
   1426.57654     562.4885     545.7032   1426.57654     562.4885     545.7032
   1426.56128     566.6047     548.8798   1426.56128     566.6047     548.8798
   1426.54602     569.4950     551.3726   1426.54602     569.4950     551.3726
   1426.53076     571.9774     553.5565   1426.53076     571.9774     553.5565
   1426.51550     575.8020     556.1888   1426.51550     575.8020     556.1888
   1426.50024     579.2309     558.1960   1426.50024     579.2309     558.1960
   1426.48499     582.6194     560.5298   1426.48499     582.6194     560.5298
   1426.46973     585.7708     562.1708   1426.46973     585.7708     562.1708
   1426.45447     587.4183     565.9777   1426.45447     587.4183     565.9777
   1426.43921     590.7809     566.7430   1426.43921     590.7809     566.7430
   1426.42395     594.0550     569.6140   1426.42395     594.0550     569.6140
   1426.40869     597.3115     571.8231   1426.40869     597.3115     571.8231
   1426.39343     599.8943     573.0665   1426.39343     599.8943     573.0665
   1426.37817     604.0754     575.6292   1426.37817     604.0754     575.6292
   1426.36292     606.0677     578.4507   1426.36292     606.0677     578.4507
   1426.34766     610.1676     579.7211   1426.34766     610.1676     579.7211
   1426.33240     612.0001     582.5722   1426.33240     612.0001     582.5722
   1426.31714     616.5758     582.9582   1426.31714     616.5758     582.9582
   1426.30188     618.4391     586.1306   1426.30188     618.4391     586.1306
   1426.28662     621.7769     587.2750   1426.28662     621.7769     587.2750
   1426.27136     624.6866     589.0082   1426.27136     624.6866     589.0082
   1426.25610     627.1157     591.6288   1426.25610     627.1157     591.6288
   1426.24084     630.6492     593.4355   1426.24084     630.6492     593.4355
   1426.22559     632.9653     595.1081   1426.22559     632.9653     595.1081
   1426.21033     635.7753     596.5442   1426.21033     635.7753     596.5442
   1426.19507     638.9461     597.8546   1426.19507     638.9461     597.8546
   1426.17981     641.4692     599.4599   1426.17981     641.4692     599.4599
   1426.16455     645.4518     601.1885   1426.16455     645.4518     601.1885
   1426.14929     646.9024     602.5876   1426.14929     646.9024     602.5876
   1426.13403     649.7340     604.8762   1426.13403     649.7340     604.8762
   1426.11877     652.5587     606.1332   1426.11877     652.5587     606.1332
   1426.10352     655.8868     608.0363   1426.10352     655.8868     608.0363
   1426.08826     658.8309     609.0638   1426.08826     658.8309     609.0638
   1426.07300     661.5164     609.9241   1426.07300     661.5164     609.9241
   1426.05774     663.9063     612.1724   1426.05774     663.9063     612.1724
   1426.04248     666.4814     613.8111   1426.04248     666.4814     613.8111
   1426.02722     668.6058     614.1976   1426.02722     668.6058     614.1976
   1426.01196     670.6860     615.1929   1426.01196     670.6860     615.1929
   1425.99670     673.9126     617.1127   1425.99670     673.9126     617.1127
   1425.98145     675.0983     618.3391   1425.98145     675.0983     618.3391
   1425.96619     679.4715     618.4805   1425.96619     679.4715     618.4805
   1425.95093     681.4338     620.8401   1425.95093     681.4338     620.8401
   1425.93567     684.0793     622.1295   1425.93567     684.0793     622.1295
   1425.92041     686.1019     622.2717   1425.92041     686.1019     622.2717
   1425.90515     688.3721     623.5813   1425.90515     688.3721     623.5813
   1425.88989     690.2559     625.7988   1425.88989     690.2559     625.7988
   1425.87463     693.5860     625.9912   1425.87463     693.5860     625.9912
   1425.85938     695.2478     627.1404   1425.85938     695.2478     627.1404
   1425.84412     696.9773     628.5750   1425.84412     696.9773     628.5750
   1425.82886     700.0956     628.5073   1425.82886     700.0956     628.5073
   1425.81360     701.6658     629.3533   1425.81360     701.6658     629.3533
   1425.79834     704.1790     630.7364   1425.79834     704.1790     630.7364
   1425.78308     706.1110     631.2709   1425.78308     706.1110     631.2709
   1425.76782     707.9647     631.1669   1425.76782     707.9647     631.1669
   1425.75256     710.1696     632.3079   1425.75256     710.1696     632.3079
   1425.73730     712.5884     633.6012   1425.73730     712.5884     633.6012
   1425.72205     713.7015     635.2175   1425.72205     713.7015     635.2175
   1425.70679     716.8150     635.9424   1425.70679     716.8150     635.9424
   1425.69153     716.3108     636.2928   1425.69153     716.3108     636.2928
   1425.67627     719.7004     636.8091   1425.67627     719.7004     636.8091
   1425.66101     721.2036     638.0457   1425.66101     721.2036     638.0457
   1425.64575     723.3030     639.0124   1425.64575     723.3030     639.0124
   1425.63049     725.2021     639.4312   1425.63049     725.2021     639.4312
   1425.61523     726.8947     639.2106   1425.61523     726.8947     639.2106
   1425.59998     728.8079     640.1764   1425.59998     728.8079     640.1764
   1425.58472     730.5190     640.8529   1425.58472     730.5190     640.8529
   1425.56946     732.0372     641.1016   1425.56946     732.0372     641.1016
   1425.55420     732.5385     641.3026   1425.55420     732.5385     641.3026
   1425.53894     735.4528     641.9964   1425.53894     735.4528     641.9964
   1425.52368     736.3946     642.0258   1425.52368     736.3946     642.0258
   1425.50842     737.8530     643.1631   1425.50842     737.8530     643.1631
   1425.49316     740.0668     643.4745   1425.49316     740.0668     643.4745
   1425.47791     741.5463     643.1625   1425.47791     741.5463     643.1625
   1425.46265     742.6472     643.8246   1425.46265     742.6472     643.8246
   1425.44739     744.2001     645.0662   1425.44739     744.2001     645.0662
   1425.43213     745.4301     645.3239   1425.43213     745.4301     645.3239
   1425.41687     746.7699     646.1724   1425.41687     746.7699     646.1724
   1425.40161     747.9137     646.2563   1425.40161     747.9137     646.2563
   1425.38635     748.7153     645.2704   1425.38635     748.7153     645.2704
   1425.37109     749.0895     646.4703   1425.37109     749.0895     646.4703
   1425.35583     751.7202     646.8849   1425.35583     751.7202     646.8849
   1425.34058     752.5730     647.1869   1425.34058     752.5730     647.1869
   1425.32532     753.0569     646.6053   1425.32532     753.0569     646.6053
   1425.31006     755.3300     646.3411   1425.31006     755.3300     646.3411
   1425.29480     754.4512     647.0380   1425.29480     754.4512     647.0380
   1425.27954     756.1201     647.6376   1425.27954     756.1201     647.6376
   1425.26428     757.3561     647.0400   1425.26428     757.3561     647.0400
   1425.24902     757.4777     647.3885   1425.24902     757.4777     647.3885
   1425.23376     759.0825     647.9284   1425.23376     759.0825     647.9284
   1425.21851     759.7517     647.5363   1425.21851     759.7517     647.5363
   1425.20325     761.4597     647.0094   1425.20325     761.4597     647.0094
   1425.18799     761.8341     647.8707   1425.18799     761.8341     647.8707
   1425.17273     763.4443     646.9450   1425.17273     763.4443     646.9450
   1425.15747     763.6071     647.1168   1425.15747     763.6071     647.1168
   1425.14221     763.0703     646.9252   1425.14221     763.0703     646.9252
   1425.12695     764.4208     647.9516   1425.12695     764.4208     647.9516
   1425.11169     766.2038     647.9482   1425.11169     766.2038     647.9482
   1425.09644     766.9221     647.9971   1425.09644     766.9221     647.9971
   1425.08118     766.9311     648.0807   1425.08118     766.9311     648.0807
   1425.06592     767.6100     647.7701   1425.06592     767.6100     647.7701
   1425.05066     768.1295     646.8258   1425.05066     768.1295     646.8258
   1425.03540     768.3336     647.3613   1425.03540     768.3336     647.3613
   1425.02014     769.9225     648.0292   1425.02014     769.9225     648.0292
   1425.00488     769.8909     647.3165   1425.00488     769.8909     647.3165
   1424.98962     770.3088     647.4155   1424.98962     770.3088     647.4155
   1424.97437     769.8365     647.0992   1424.97437     769.8365     647.0992
   1424.95911     771.5419     647.1541   1424.95911     771.5419     647.1541
   1424.94385     771.5991     645.5541   1424.94385     771.5991     645.5541
   1424.92859     772.8746     646.8762   1424.92859     772.8746     646.8762
   1424.91333     772.5674     645.8938   1424.91333     772.5674     645.8938
   1424.89807     772.9150     646.0876   1424.89807     772.9150     646.0876
   1424.88281     772.4311     645.3670   1424.88281     772.4311     645.3670
   1424.86755     773.6359     645.7979   1424.86755     773.6359     645.7979
   1424.85229     773.0241     644.8712   1424.85229     773.0241     644.8712
   1424.83704     774.2964     644.6853   1424.83704     774.2964     644.6853
   1424.82178     773.4229     644.4253   1424.82178     773.4229     644.4253
   1424.80652     773.4950     645.1976   1424.80652     773.4950     645.1976
   1424.79126     774.6949     644.1640   1424.79126     774.6949     644.1640
   1424.77600     774.1751     645.4980   1424.77600     774.1751     645.4980
   1424.76074     774.6938     644.2040   1424.76074     774.6938     644.2040
   1424.74548     774.1049     643.5745   1424.74548     774.1049     643.5745
   1424.73022     776.0466     642.6617   1424.73022     776.0466     642.6617
   1424.71497     774.7332     643.0088   1424.71497     774.7332     643.0088
   1424.69971     775.3569     642.1837   1424.69971     775.3569     642.1837
   1424.68445     774.1562     642.0788   1424.68445     774.1562     642.0788
   1424.66919     774.1176     642.2106   1424.66919     774.1176     642.2106
   1424.65393     776.1331     641.5008   1424.65393     776.1331     641.5008
   1424.63867     773.8031     640.7905   1424.63867     773.8031     640.7905
   1424.62341     774.0040     641.1146   1424.62341     774.0040     641.1146
   1424.60815     772.6102     640.9959   1424.60815     772.6102     640.9959
   1424.59290     774.6923     639.1782   1424.59290     774.6923     639.1782
   1424.57764     773.2591     638.3184   1424.57764     773.2591     638.3184
   1424.56238     774.6848     638.8038   1424.56238     774.6848     638.8038
   1424.54712     773.8945     637.5931   1424.54712     773.8945     637.5931
   1424.53186     773.3830     638.2410   1424.53186     773.3830     638.2410
   1424.51660     773.7998     637.4626   1424.51660     773.7998     637.4626
   1424.50134     772.8878     636.9914   1424.50134     772.8878     636.9914
   1424.48608     774.0771     637.2552   1424.48608     774.0771     637.2552
   1424.47083     773.2382     636.9913   1424.47083     773.2382     636.9913
   1424.45557     773.0960     636.8422   1424.45557     773.0960     636.8422
   1424.44031     773.3452     636.2815   1424.44031     773.3452     636.2815
   1424.42505     772.3927     635.6216   1424.42505     772.3927     635.6216
   1424.40979     771.8655     634.4962   1424.40979     771.8655     634.4962
   1424.39453     771.8380     634.4622   1424.39453     771.8380     634.4622
   1424.37927     772.4484     632.9092   1424.37927     772.4484     632.9092
   1424.36401     771.3799     632.9872   1424.36401     771.3799     632.9872
   1424.34875     771.1824     633.2048   1424.34875     771.1824     633.2048
   1424.33350     771.3501     631.7011   1424.33350     771.3501     631.7011
   1424.31824     771.5218     631.6456   1424.31824     771.5218     631.6456
   1424.30298     770.3574     631.0505   1424.30298     770.3574     631.0505
   1424.28772     771.0997     631.0977   1424.28772     771.0997     631.0977
   1424.27246     768.9971     629.5959   1424.27246     768.9971     629.5959
   1424.25720     769.7877     629.0705   1424.25720     769.7877     629.0705
   1424.24194     769.9841     628.7066   1424.24194     769.9841     628.7066
   1424.22668     768.7404     629.0106   1424.22668     768.7404     629.0106
   1424.21143     768.9442     628.0175   1424.21143     768.9442     628.0175
   1424.19617     767.9977     627.1355   1424.19617     767.9977     627.1355
   1424.18091     768.3368     627.0078   1424.18091     768.3368     627.0078
   1424.16565     766.6614     626.1989   1424.16565     766.6614     626.1989
   1424.15039     767.7562     626.1395   1424.15039     767.7562     626.1395
   1424.13513     765.7332     624.0295   1424.13513     765.7332     624.0295
   1424.11987     766.2483     624.2576   1424.11987     766.2483     624.2576
   1424.10461     765.1545     623.7418   1424.10461     765.1545     623.7418
   1424.08936     764.4759     624.5950   1424.08936     764.4759     624.5950
   1424.07410     764.5803     623.5826   1424.07410     764.5803     623.5826
   1424.05884     764.3633     621.9457   1424.05884     764.3633     621.9457
   1424.04358     764.4272     621.5200   1424.04358     764.4272     621.5200
   1424.02832     764.6484     621.8673   1424.02832     764.6484     621.8673
   1424.01306     763.6653     620.3746   1424.01306     763.6653     620.3746
   1423.99780     762.9085     619.4990   1423.99780     762.9085     619.4990
   1423.98254     761.8795     619.2520   1423.98254     761.8795     619.2520
   1423.96729     762.5429     618.5587   1423.96729     762.5429     618.5587
   1423.95203     763.3427     618.3381   1423.95203     763.3427     618.3381
   1423.93677     760.3943     618.2548   1423.93677     760.3943     618.2548
   1423.92151     760.9252     616.4292   1423.92151     760.9252     616.4292
   1423.90625     759.3773     616.5446   1423.90625     759.3773     616.5446
   1423.89099     759.9624     615.2706   1423.89099     759.9624     615.2706
   1423.87573     758.8397     615.4518   1423.87573     758.8397     615.4518
   1423.86047     758.1874     615.3010   1423.86047     758.1874     615.3010
   1423.84521     757.8239     612.5136   1423.84521     757.8239     612.5136
   1423.82996     757.2738     613.8799   1423.82996     757.2738     613.8799
   1423.81470     757.4725     611.9025   1423.81470     757.4725     611.9025
   1423.79944     756.6272     611.9110   1423.79944     756.6272     611.9110
   1423.78418     756.5725     611.3389   1423.78418     756.5725     611.3389
   1423.76892     754.9724     610.2638   1423.76892     754.9724     610.2638
   1423.75366     754.8817     609.2175   1423.75366     754.8817     609.2175
   1423.73840     754.6025     608.2045   1423.73840     754.6025     608.2045
   1423.72314     753.2807     608.0544   1423.72314     753.2807     608.0544
   1423.70789     754.4720     607.3469   1423.70789     754.4720     607.3469
   1423.69263     752.8306     606.5197   1423.69263     752.8306     606.5197
   1423.67737     752.1194     605.8045   1423.67737     752.1194     605.8045
   1423.66211     752.3387     604.6938   1423.66211     752.3387     604.6938
   1423.64685     750.5561     604.1915   1423.64685     750.5561     604.1915
   1423.63159     752.3234     603.1068   1423.63159     752.3234     603.1068
   1423.61633     751.5491     601.4692   1423.61633     751.5491     601.4692
   1423.60107     750.6627     601.6937   1423.60107     750.6627     601.6937
   1423.58582     749.3091     601.6231   1423.58582     749.3091     601.6231
   1423.57056     751.0031     600.2311   1423.57056     751.0031     600.2311
   1423.55530     749.5234     600.4047   1423.55530     749.5234     600.4047
   1423.54004     748.5308     599.4523   1423.54004     748.5308     599.4523
   1423.52478     747.3097     598.5928   1423.52478     747.3097     598.5928
   1423.50952     748.5524     598.2325   1423.50952     748.5524     598.2325
   1423.49426     748.5980     597.0186   1423.49426     748.5980     597.0186
   1423.47900     747.0062     595.8578   1423.47900     747.0062     595.8578
   1423.46375     747.3764     596.6735   1423.46375     747.3764     596.6735
   1423.44849     744.8092     595.1851   1423.44849     744.8092     595.1851
   1423.43323     745.1893     594.1396   1423.43323     745.1893     594.1396
   1423.41797     744.9685     593.6745   1423.41797     744.9685     593.6745
   1423.40271     744.9753     592.4585   1423.40271     744.9753     592.4585
   1423.38745     743.5489     591.5934   1423.38745     743.5489     591.5934
   1423.37219     744.0120     590.6888   1423.37219     744.0120     590.6888
   1423.35693     743.4981     589.8327   1423.35693     743.4981     589.8327
   1423.34167     742.3666     589.0972   1423.34167     742.3666     589.0972
   1423.32642     744.7458     588.7149   1423.32642     744.7458     588.7149
   1423.31116     741.9658     587.4986   1423.31116     741.9658     587.4986
   1423.29590     743.3020     587.8647   1423.29590     743.3020     587.8647
   1423.28064     742.7961     587.1404   1423.28064     742.7961     587.1404
   1423.26538     741.5501     585.1321   1423.26538     741.5501     585.1321
   1423.25012     740.8341     584.2385   1423.25012     740.8341     584.2385
   1423.23486     739.8931     583.9606   1423.23486     739.8931     583.9606
   1423.21960     739.9120     583.5971   1423.21960     739.9120     583.5971
   1423.20435     739.9890     582.1895   1423.20435     739.9890     582.1895
   1423.18909     738.2545     582.1345   1423.18909     738.2545     582.1345
   1423.17383     738.8462     581.4739   1423.17383     738.8462     581.4739
   1423.15857     737.6300     579.6812   1423.15857     737.6300     579.6812
   1423.14331     739.0549     579.4337   1423.14331     739.0549     579.4337
   1423.12805     737.9944     578.5089   1423.12805     737.9944     578.5089
   1423.11279     737.8586     577.6100   1423.11279     737.8586     577.6100
   1423.09753     736.1377     576.2593   1423.09753     736.1377     576.2593
   1423.08228     737.2747     576.3116   1423.08228     737.2747     576.3116
   1423.06702     736.7566     575.0061   1423.06702     736.7566     575.0061
   1423.05176     736.5463     574.9445   1423.05176     736.5463     574.9445
   1423.03650     735.9706     573.1294   1423.03650     735.9706     573.1294
   1423.02124     735.2864     572.2102   1423.02124     735.2864     572.2102
   1423.00598     734.9941     572.3067   1423.00598     734.9941     572.3067
   1422.99072     734.4679     569.7866   1422.99072     734.4679     569.7866
   1422.97546     735.2609     569.7845   1422.97546     735.2609     569.7845
   1422.96021     734.4042     569.6974   1422.96021     734.4042     569.6974
   1422.94495     733.5106     568.2847   1422.94495     733.5106     568.2847
   1422.92969     733.2397     567.8766   1422.92969     733.2397     567.8766
   1422.91443     735.2808     566.5654   1422.91443     735.2808     566.5654
   1422.89917     732.6667     564.8986   1422.89917     732.6667     564.8986
   1422.88391     732.3828     564.2770   1422.88391     732.3828     564.2770
   1422.86865     734.3643     563.6476   1422.86865     734.3643     563.6476
   1422.85339     732.0158     562.6226   1422.85339     732.0158     562.6226
   1422.83813     732.4571     562.0265   1422.83813     732.4571     562.0265
   1422.82288     732.2114     560.9479   1422.82288     732.2114     560.9479
   1422.80762     731.5442     559.8032   1422.80762     731.5442     559.8032
   1422.79236     730.6228     559.1646   1422.79236     730.6228     559.1646
   1422.77710     731.8967     559.1559   1422.77710     731.8967     559.1559
   1422.76184     731.9597     557.2101   1422.76184     731.9597     557.2101
   1422.74658     730.5678     557.1152   1422.74658     730.5678     557.1152
   1422.73132     730.1266     556.3066   1422.73132     730.1266     556.3066
   1422.71606     730.6304     554.6122   1422.71606     730.6304     554.6122
   1422.70081     729.2502     553.9295   1422.70081     729.2502     553.9295
   1422.68555     728.7191     553.2642   1422.68555     728.7191     553.2642
   1422.67029     728.8534     551.6343   1422.67029     728.8534     551.6343
   1422.65503     729.1276     551.4325   1422.65503     729.1276     551.4325
   1422.63977     729.1306     550.0770   1422.63977     729.1306     550.0770
   1422.62451     728.7755     549.6943   1422.62451     728.7755     549.6943
   1422.60925     729.0352     548.7728   1422.60925     729.0352     548.7728
   1422.59399     728.1432     547.7507   1422.59399     728.1432     547.7507
   1422.57874     728.5729     546.7432   1422.57874     728.5729     546.7432
   1422.56348     726.2924     545.6406   1422.56348     726.2924     545.6406
   1422.54822     728.5121     544.3784   1422.54822     728.5121     544.3784
   1422.53296     727.2633     544.0572   1422.53296     727.2633     544.0572
   1422.51770     729.0554     543.7314   1422.51770     729.0554     543.7314
   1422.50244     726.8959     542.7705   1422.50244     726.8959     542.7705
   1422.48718     726.7994     541.0682   1422.48718     726.7994     541.0682
   1422.47192     727.3353     541.2960   1422.47192     727.3353     541.2960
   1422.45667     727.2566     538.6031   1422.45667     727.2566     538.6031
   1422.44141     726.2515     537.9727   1422.44141     726.2515     537.9727
   1422.42615     726.6801     536.8273   1422.42615     726.6801     536.8273
   1422.41089     726.3599     535.7109   1422.41089     726.3599     535.7109
   1422.39563     726.3262     534.7104   1422.39563     726.3262     534.7104
   1422.38037     725.1396     534.4628   1422.38037     725.1396     534.4628
   1422.36511     725.7518     533.7136   1422.36511     725.7518     533.7136
   1422.34985     724.9882     532.9939   1422.34985     724.9882     532.9939
   1422.33459     725.3850     531.3170   1422.33459     725.3850     531.3170
   1422.31934     725.7086     530.9827   1422.31934     725.7086     530.9827
   1422.30408     724.3017     529.1265   1422.30408     724.3017     529.1265
   1422.28882     725.6801     528.6385   1422.28882     725.6801     528.6385
   1422.27356     725.3997     527.9404   1422.27356     725.3997     527.9404
   1422.25830     724.9188     526.9908   1422.25830     724.9188     526.9908
   1422.24304     725.2405     526.1498   1422.24304     725.2405     526.1498
   1422.22778     724.5223     525.1085   1422.22778     724.5223     525.1085
   1422.21252     724.7866     524.3884   1422.21252     724.7866     524.3884
   1422.19727     724.6763     524.2905   1422.19727     724.6763     524.2905
   1422.18201     724.7561     521.7041   1422.18201     724.7561     521.7041
   1422.16675     723.6467     522.1539   1422.16675     723.6467     522.1539
   1422.15149     725.1157     520.2047   1422.15149     725.1157     520.2047
   1422.13623     724.2211     519.5281   1422.13623     724.2211     519.5281
   1422.12097     723.0187     518.5876   1422.12097     723.0187     518.5876
   1422.10571     724.8021     517.6268   1422.10571     724.8021     517.6268
   1422.09045     723.4002     516.3281   1422.09045     723.4002     516.3281
   1422.07520     722.7926     515.6157   1422.07520     722.7926     515.6157
   1422.05994     723.5939     514.8516   1422.05994     723.5939     514.8516
   1422.04468     724.0840     513.6745   1422.04468     724.0840     513.6745
   1422.02942     723.2028     513.5887   1422.02942     723.2028     513.5887
   1422.01416     722.8332     512.1957   1422.01416     722.8332     512.1957
   1421.99890     723.0712     512.1663   1421.99890     723.0712     512.1663
   1421.98364     723.5262     510.1802   1421.98364     723.5262     510.1802
   1421.96838     723.6566     509.3557   1421.96838     723.6566     509.3557
   1421.95312     723.1559     508.3513   1421.95312     723.1559     508.3513
   1421.93787     722.5207     507.3090   1421.93787     722.5207     507.3090
   1421.92261     722.2621     506.2807   1421.92261     722.2621     506.2807
   1421.90735     722.4471     505.3596   1421.90735     722.4471     505.3596
   1421.89209     724.1614     504.4717   1421.89209     724.1614     504.4717
   1421.87683     723.0837     502.7121   1421.87683     723.0837     502.7121
   1421.86157     723.7346     502.5893   1421.86157     723.7346     502.5893
   1421.84631     722.3662     501.5423   1421.84631     722.3662     501.5423
   1421.83105     722.6799     500.9478   1421.83105     722.6799     500.9478
   1421.81580     722.3080     499.6906   1421.81580     722.3080     499.6906
   1421.80054     721.6126     498.8750   1421.80054     721.6126     498.8750
   1421.78528     721.9203     497.3431   1421.78528     721.9203     497.3431
   1421.77002     721.9567     496.3185   1421.77002     721.9567     496.3185
   1421.75476     722.2321     496.1049   1421.75476     722.2321     496.1049
   1421.73950     722.2352     495.0481   1421.73950     722.2352     495.0481
   1421.72424     721.4947     493.9704   1421.72424     721.4947     493.9704
   1421.70898     720.9957     493.2446   1421.70898     720.9957     493.2446
   1421.69373     721.9802     492.5481   1421.69373     721.9802     492.5481
   1421.67847     721.8901     491.1393   1421.67847     721.8901     491.1393
   1421.66321     719.6014     490.3007   1421.66321     719.6014     490.3007
   1421.64795     721.0202     488.4234   1421.64795     721.0202     488.4234
   1421.63269     720.9468     488.7784   1421.63269     720.9468     488.7784
   1421.61743     720.9227     487.7155   1421.61743     720.9227     487.7155
   1421.60217     721.3389     486.4586   1421.60217     721.3389     486.4586
   1421.58691     721.2778     485.3913   1421.58691     721.2778     485.3913
   1421.57166     720.1116     484.8416   1421.57166     720.1116     484.8416
   1421.55640     720.0768     483.9250   1421.55640     720.0768     483.9250
   1421.54114     720.7283     482.9804   1421.54114     720.7283     482.9804
   1421.52588     720.0198     481.6030   1421.52588     720.0198     481.6030
   1421.51062     719.7982     480.7894   1421.51062     719.7982     480.7894
   1421.49536     721.5767     480.2539   1421.49536     721.5767     480.2539
   1421.48010     719.6841     479.0607   1421.48010     719.6841     479.0607
   1421.46484     720.4043     478.5783   1421.46484     720.4043     478.5783
   1421.44958     719.2041     476.8599   1421.44958     719.2041     476.8599
   1421.43433     719.2441     476.4424   1421.43433     719.2441     476.4424
   1421.41907     719.3841     475.6202   1421.41907     719.3841     475.6202
   1421.40381     719.0397     474.6385   1421.40381     719.0397     474.6385
   1421.38855     719.4876     473.0892   1421.38855     719.4876     473.0892
   1421.37329     719.7650     472.5355   1421.37329     719.7650     472.5355
   1421.35803     718.3051     471.5349   1421.35803     718.3051     471.5349
   1421.34277     718.0396     470.9534   1421.34277     718.0396     470.9534
   1421.32751     718.8438     469.3519   1421.32751     718.8438     469.3519
   1421.31226     719.8964     468.5749   1421.31226     719.8964     468.5749
   1421.29700     719.0536     467.9530   1421.29700     719.0536     467.9530
   1421.28174     718.6619     467.5017   1421.28174     718.6619     467.5017
   1421.26648     717.2737     466.0676   1421.26648     717.2737     466.0676
   1421.25122     716.9360     465.5283   1421.25122     716.9360     465.5283
   1421.23596     718.4706     464.3472   1421.23596     718.4706     464.3472
   1421.22070     717.9086     463.7149   1421.22070     717.9086     463.7149
   1421.20544     717.6454     462.5794   1421.20544     717.6454     462.5794
   1421.19019     717.2157     461.4975   1421.19019     717.2157     461.4975
   1421.17493     716.8321     460.6685   1421.17493     716.8321     460.6685
   1421.15967     716.1342     459.4142   1421.15967     716.1342     459.4142
   1421.14441     717.8403     459.2643   1421.14441     717.8403     459.2643
   1421.12915     717.7200     458.3947   1421.12915     717.7200     458.3947
   1421.11389     716.3823     457.7171   1421.11389     716.3823     457.7171
   1421.09863     717.4081     456.7710   1421.09863     717.4081     456.7710
   1421.08337     717.1982     454.9445   1421.08337     717.1982     454.9445
   1421.06812     715.6725     454.6895   1421.06812     715.6725     454.6895
   1421.05286     716.0653     453.9506   1421.05286     716.0653     453.9506
   1421.03760     716.8255     453.1952   1421.03760     716.8255     453.1952
   1421.02234     717.1715     452.6349   1421.02234     717.1715     452.6349
   1421.00708     716.7747     451.2226   1421.00708     716.7747     451.2226
   1420.99182     716.9358     450.4564   1420.99182     716.9358     450.4564
   1420.97656     717.2301     450.3743   1420.97656     717.2301     450.3743
   1420.96130     717.8766     448.8910   1420.96130     717.8766     448.8910
   1420.94604     716.4179     448.9688   1420.94604     716.4179     448.9688
   1420.93079     717.9650     447.7829   1420.93079     717.9650     447.7829
   1420.91553     717.7823     447.2677   1420.91553     717.7823     447.2677
   1420.90027     717.8138     446.7417   1420.90027     717.8138     446.7417
   1420.88501     717.8085     445.9187   1420.88501     717.8085     445.9187
   1420.86975     718.9813     445.3102   1420.86975     718.9813     445.3102
   1420.85449     717.5012     444.5807   1420.85449     717.5012     444.5807
   1420.83923     717.5151     443.6693   1420.83923     717.5151     443.6693
   1420.82397     717.1898     443.3717   1420.82397     717.1898     443.3717
   1420.80872     716.8415     441.8491   1420.80872     716.8415     441.8491
   1420.79346     717.5999     441.8067   1420.79346     717.5999     441.8067
   1420.77820     718.6984     441.4742   1420.77820     718.6984     441.4742
   1420.76294     719.3610     440.8222   1420.76294     719.3610     440.8222
   1420.74768     720.0901     440.0916   1420.74768     720.0901     440.0916
   1420.73242     719.0052     440.4341   1420.73242     719.0052     440.4341
   1420.71716     720.9998     438.9510   1420.71716     720.9998     438.9510
   1420.70190     719.8138     439.5902   1420.70190     719.8138     439.5902
   1420.68665     721.3331     439.4485   1420.68665     721.3331     439.4485
   1420.67139     722.8322     438.2071   1420.67139     722.8322     438.2071
   1420.65613     727.4294     440.0843   1420.65613     727.4294     440.0843
   1420.64087     730.3920     441.4879   1420.64087     730.3920     441.4879
   1420.62561     736.9414     445.5320   1420.62561     736.9414     445.5320
   1420.61035     749.1342     451.2420   1420.61035     749.1342     451.2420
   1420.59509     765.8986     460.5736   1420.59509     765.8986     460.5736
   1420.57983     786.0508     470.9252   1420.57983     786.0508     470.9252
   1420.56458     810.0460     484.0776   1420.56458     810.0460     484.0776
   1420.54932     843.3022     503.4024   1420.54932     843.3022     503.4024
   1420.53406     876.0237     520.4903   1420.53406     876.0237     520.4903
   1420.51880     914.6564     543.5592   1420.51880     914.6564     543.5592
   1420.50354    1034.5082     612.0958   1420.50354    1034.5082     612.0958
   1420.48828    1337.0171     786.9161   1420.48828    1337.0171     786.9161
   1420.47302    1677.9343     981.7917   1420.47302    1677.9343     981.7917
   1420.45776    1796.1210    1048.1853   1420.45776    1796.1210    1048.1853
   1420.44250    1933.2245    1126.3970   1420.44250    1933.2245    1126.3970
   1420.42725    2081.3347    1212.7565   1420.42725    2081.3347    1212.7565
   1420.41199    2145.8267    1247.4723   1420.41199    2145.8267    1247.4723
   1420.39673    2055.7390    1193.4735   1420.39673    2055.7390    1193.4735
   1420.38147    2031.8170    1177.8062   1420.38147    2031.8170    1177.8062
   1420.36621    2118.7937    1224.6671   1420.36621    2118.7937    1224.6671
   1420.35095    2145.2856    1238.7906   1420.35095    2145.2856    1238.7906
   1420.33569    2090.8530    1204.0319   1420.33569    2090.8530    1204.0319
   1420.32043    1924.1613    1107.6895   1420.32043    1924.1613    1107.6895
   1420.30518    1529.6210     883.5849   1420.30518    1529.6210     883.5849
   1420.28992    1313.4519     759.2412   1420.28992    1313.4519     759.2412
   1420.27466    1018.8478     589.8800   1420.27466    1018.8478     589.8800
   1420.25940     852.8750     495.3189   1420.25940     852.8750     495.3189
   1420.24414     784.7679     456.7435   1420.24414     784.7679     456.7435
   1420.22888     753.8644     437.8698   1420.22888     753.8644     437.8698
   1420.21362     735.3871     425.8593   1420.21362     735.3871     425.8593
   1420.19836     724.5232     419.7588   1420.19836     724.5232     419.7588
   1420.18311     718.4539     415.6812   1420.18311     718.4539     415.6812
   1420.16785     715.7930     413.4514   1420.16785     715.7930     413.4514
   1420.15259     713.1462     410.9558   1420.15259     713.1462     410.9558
   1420.13733     710.9843     410.2217   1420.13733     710.9843     410.2217
   1420.12207     710.1345     408.6839   1420.12207     710.1345     408.6839
   1420.10681     708.4960     406.4063   1420.10681     708.4960     406.4063
   1420.09155     706.8530     405.7149   1420.09155     706.8530     405.7149
   1420.07629     705.7059     404.0779   1420.07629     705.7059     404.0779
   1420.06104     704.7200     403.1585   1420.06104     704.7200     403.1585
   1420.04578     704.8306     403.4682   1420.04578     704.8306     403.4682
   1420.03052     704.2646     402.0430   1420.03052     704.2646     402.0430
   1420.01526     704.1897     401.7330   1420.01526     704.1897     401.7330
   1420.00000     705.4540     402.4270   1420.00000     705.4540     402.4270
   1419.98474     706.7181     403.1208   1419.98474     706.7181     403.1208
   1419.96948     705.4801     400.5226   1419.96948     705.4801     400.5226
   1419.95422     702.3281     398.8140   1419.95422     702.3281     398.8140
   1419.93896     702.3772     398.3911   1419.93896     702.3772     398.3911
   1419.92371     702.1886     397.6509   1419.92371     702.1886     397.6509
   1419.90845     704.2639     396.8906   1419.90845     704.2639     396.8906
   1419.89319     703.4194     396.4171   1419.89319     703.4194     396.4171
   1419.87793     702.1439     395.4095   1419.87793     702.1439     395.4095
   1419.86267     702.2480     395.5060   1419.86267     702.2480     395.5060
   1419.84741     702.1367     394.2776   1419.84741     702.1367     394.2776
   1419.83215     702.4415     393.9803   1419.83215     702.4415     393.9803
   1419.81689     701.7465     393.7714   1419.81689     701.7465     393.7714
   1419.80164     701.9527     392.7276   1419.80164     701.9527     392.7276
   1419.78638     701.8705     392.6496   1419.78638     701.8705     392.6496
   1419.77112     702.7563     391.5311   1419.77112     702.7563     391.5311
   1419.75586     703.3412     391.1619   1419.75586     703.3412     391.1619
   1419.74060     701.3495     391.1410   1419.74060     701.3495     391.1410
   1419.72534     702.8936     390.5009   1419.72534     702.8936     390.5009
   1419.71008     701.3998     390.5634   1419.71008     701.3998     390.5634
   1419.69482     702.1240     388.9842   1419.69482     702.1240     388.9842
   1419.67957     702.5504     389.0865   1419.67957     702.5504     389.0865
   1419.66431     703.3868     388.8305   1419.66431     703.3868     388.8305
   1419.64905     702.5012     388.2991   1419.64905     702.5012     388.2991
   1419.63379     702.2209     387.9714   1419.63379     702.2209     387.9714
   1419.61853     703.0311     387.7896   1419.61853     703.0311     387.7896
   1419.60327     702.6385     387.3868   1419.60327     702.6385     387.3868
   1419.58801     702.8035     386.9723   1419.58801     702.8035     386.9723
   1419.57275     702.8641     386.3620   1419.57275     702.8641     386.3620
   1419.55750     703.3993     386.2118   1419.55750     703.3993     386.2118
   1419.54224     703.6281     384.5103   1419.54224     703.6281     384.5103
   1419.52698     701.8912     385.4758   1419.52698     701.8912     385.4758
   1419.51172     702.7448     385.5203   1419.51172     702.7448     385.5203
   1419.49646     703.5745     385.3747   1419.49646     703.5745     385.3747
   1419.48120     702.6683     384.5784   1419.48120     702.6683     384.5784
   1419.46594     702.7197     384.3246   1419.46594     702.7197     384.3246
   1419.45068     703.3806     384.0136   1419.45068     703.3806     384.0136
   1419.43542     704.2009     383.8250   1419.43542     704.2009     383.8250
   1419.42017     703.8697     383.5702   1419.42017     703.8697     383.5702
   1419.40491     705.9420     383.7615   1419.40491     705.9420     383.7615
   1419.38965     704.4698     383.0416   1419.38965     704.4698     383.0416
   1419.37439     704.2817     383.1983   1419.37439     704.2817     383.1983
   1419.35913     705.1193     382.4637   1419.35913     705.1193     382.4637
   1419.34387     705.5752     382.4849   1419.34387     705.5752     382.4849
   1419.32861     706.1209     382.2646   1419.32861     706.1209     382.2646
   1419.31335     706.2139     381.8732   1419.31335     706.2139     381.8732
   1419.29810     705.6166     381.2700   1419.29810     705.6166     381.2700
   1419.28284     706.6205     381.9688   1419.28284     706.6205     381.9688
   1419.26758     706.6875     381.6303   1419.26758     706.6875     381.6303
   1419.25232     706.7905     381.3568   1419.25232     706.7905     381.3568
   1419.23706     706.3270     381.3178   1419.23706     706.3270     381.3178
   1419.22180     707.9187     381.4073   1419.22180     707.9187     381.4073
   1419.20654     707.8124     380.7690   1419.20654     707.8124     380.7690
   1419.19128     708.0353     380.8774   1419.19128     708.0353     380.8774
   1419.17603     708.0693     380.1602   1419.17603     708.0693     380.1602
   1419.16077     708.4872     379.9774   1419.16077     708.4872     379.9774
   1419.14551     708.1366     380.3739   1419.14551     708.1366     380.3739
   1419.13025     709.0974     379.9286   1419.13025     709.0974     379.9286
   1419.11499     709.2076     380.0106   1419.11499     709.2076     380.0106
   1419.09973     709.2554     380.1657   1419.09973     709.2554     380.1657
   1419.08447     709.7094     380.3512   1419.08447     709.7094     380.3512
   1419.06921     711.2297     379.6188   1419.06921     711.2297     379.6188
   1419.05396     709.7090     379.7057   1419.05396     709.7090     379.7057
   1419.03870     710.4727     380.0223   1419.03870     710.4727     380.0223
   1419.02344     710.7017     380.5350   1419.02344     710.7017     380.5350
   1419.00818     712.5704     379.9613   1419.00818     712.5704     379.9613
   1418.99292     711.8742     379.8923   1418.99292     711.8742     379.8923
   1418.97766     713.1105     379.9872   1418.97766     713.1105     379.9872
   1418.96240     712.7007     379.4640   1418.96240     712.7007     379.4640
   1418.94714     713.3778     380.8836   1418.94714     713.3778     380.8836
   1418.93188     712.3298     380.2788   1418.93188     712.3298     380.2788
   1418.91663     714.0989     380.3092   1418.91663     714.0989     380.3092
   1418.90137     713.9332     380.7431   1418.90137     713.9332     380.7431
   1418.88611     713.5423     380.3705   1418.88611     713.5423     380.3705
   1418.87085     714.1427     380.5005   1418.87085     714.1427     380.5005
   1418.85559     715.0765     380.9665   1418.85559     715.0765     380.9665
   1418.84033     716.0238     380.5158   1418.84033     716.0238     380.5158
   1418.82507     715.2902     381.3007   1418.82507     715.2902     381.3007
   1418.80981     715.6976     381.2863   1418.80981     715.6976     381.2863
   1418.79456     715.2379     381.0535   1418.79456     715.2379     381.0535
   1418.77930     718.5775     380.9202   1418.77930     718.5775     380.9202
   1418.76404     718.0985     381.7697   1418.76404     718.0985     381.7697
   1418.74878     718.5354     381.6432   1418.74878     718.5354     381.6432
   1418.73352     717.7761     381.7733   1418.73352     717.7761     381.7733
   1418.71826     720.3568     382.2321   1418.71826     720.3568     382.2321
   1418.70300     720.1815     381.5796   1418.70300     720.1815     381.5796
   1418.68774     720.6388     381.8503   1418.68774     720.6388     381.8503
   1418.67249     720.6208     382.5228   1418.67249     720.6208     382.5228
   1418.65723     721.1641     383.1750   1418.65723     721.1641     383.1750
   1418.64197     721.4897     383.3019   1418.64197     721.4897     383.3019
   1418.62671     722.2692     383.4555   1418.62671     722.2692     383.4555
   1418.61145     721.9944     384.0828   1418.61145     721.9944     384.0828
   1418.59619     724.3024     384.2730   1418.59619     724.3024     384.2730
   1418.58093     723.2159     384.6405   1418.58093     723.2159     384.6405
   1418.56567     723.9589     384.2365   1418.56567     723.9589     384.2365
   1418.55042     724.0911     384.8673   1418.55042     724.0911     384.8673
   1418.53516     723.6857     385.0298   1418.53516     723.6857     385.0298
   1418.51990     725.2291     385.4961   1418.51990     725.2291     385.4961
   1418.50464     726.6069     385.6371   1418.50464     726.6069     385.6371
   1418.48938     726.8739     385.4242   1418.48938     726.8739     385.4242
   1418.47412     726.8707     386.2407   1418.47412     726.8707     386.2407
   1418.45886     728.0129     386.7833   1418.45886     728.0129     386.7833
   1418.44360     728.6196     387.7203   1418.44360     728.6196     387.7203
   1418.42834     729.0754     388.0056   1418.42834     729.0754     388.0056
   1418.41309     729.8392     387.5886   1418.41309     729.8392     387.5886
   1418.39783     730.2385     388.4622   1418.39783     730.2385     388.4622
   1418.38257     730.7903     388.2505   1418.38257     730.7903     388.2505
   1418.36731     731.8861     389.3131   1418.36731     731.8861     389.3131
   1418.35205     732.0726     389.5665   1418.35205     732.0726     389.5665
   1418.33679     732.4601     390.2426   1418.33679     732.4601     390.2426
   1418.32153     733.1187     390.4335   1418.32153     733.1187     390.4335
   1418.30627     733.3250     391.7560   1418.30627     733.3250     391.7560
   1418.29102     733.9105     391.4626   1418.29102     733.9105     391.4626
   1418.27576     734.0834     392.1736   1418.27576     734.0834     392.1736
   1418.26050     735.4649     391.9514   1418.26050     735.4649     391.9514
   1418.24524     735.3438     392.9758   1418.24524     735.3438     392.9758
   1418.22998     736.8358     393.5890   1418.22998     736.8358     393.5890
   1418.21472     737.0608     393.7180   1418.21472     737.0608     393.7180
   1418.19946     738.4165     394.5891   1418.19946     738.4165     394.5891
   1418.18420     738.5931     395.4415   1418.18420     738.5931     395.4415
   1418.16895     738.8766     395.4127   1418.16895     738.8766     395.4127
   1418.15369     740.8096     396.3943   1418.15369     740.8096     396.3943
   1418.13843     741.4513     397.0489   1418.13843     741.4513     397.0489
   1418.12317     741.1046     397.9647   1418.12317     741.1046     397.9647
   1418.10791     741.3181     397.4393   1418.10791     741.3181     397.4393
   1418.09265     741.8030     398.9456   1418.09265     741.8030     398.9456
   1418.07739     742.2252     399.7857   1418.07739     742.2252     399.7857
   1418.06213     743.1061     400.0493   1418.06213     743.1061     400.0493
   1418.04688     745.0163     400.1585   1418.04688     745.0163     400.1585
   1418.03162     744.6756     400.9161   1418.03162     744.6756     400.9161
   1418.01636     745.4834     401.3288   1418.01636     745.4834     401.3288
   1418.00110     745.3876     401.9753   1418.00110     745.3876     401.9753
   1417.98584     746.2035     403.1288   1417.98584     746.2035     403.1288
   1417.97058     747.9794     403.1613   1417.97058     747.9794     403.1613
   1417.95532     748.8953     404.0466   1417.95532     748.8953     404.0466
   1417.94006     749.0817     405.7561   1417.94006     749.0817     405.7561
   1417.92480     749.2138     406.1429   1417.92480     749.2138     406.1429
   1417.90955     750.7550     405.9193   1417.90955     750.7550     405.9193
   1417.89429     750.9554     407.3518   1417.89429     750.9554     407.3518
   1417.87903     751.2516     408.3715   1417.87903     751.2516     408.3715
   1417.86377     752.3550     408.8274   1417.86377     752.3550     408.8274
   1417.84851     752.7516     409.4295   1417.84851     752.7516     409.4295
   1417.83325     754.0629     410.3049   1417.83325     754.0629     410.3049
   1417.81799     754.4772     410.7487   1417.81799     754.4772     410.7487
   1417.80273     755.3193     411.8012   1417.80273     755.3193     411.8012
   1417.78748     755.6136     412.9058   1417.78748     755.6136     412.9058
   1417.77222     756.3421     413.1432   1417.77222     756.3421     413.1432
   1417.75696     757.5705     414.8229   1417.75696     757.5705     414.8229
   1417.74170     757.8060     415.9055   1417.74170     757.8060     415.9055
   1417.72644     758.1351     415.5033   1417.72644     758.1351     415.5033
   1417.71118     758.8097     416.4534   1417.71118     758.8097     416.4534
   1417.69592     759.7508     417.2327   1417.69592     759.7508     417.2327
   1417.68066     760.5249     418.5818   1417.68066     760.5249     418.5818
   1417.66541     761.7642     419.7227   1417.66541     761.7642     419.7227
   1417.65015     762.4346     420.3760   1417.65015     762.4346     420.3760
   1417.63489     762.7272     420.8891   1417.63489     762.7272     420.8891
   1417.61963     763.3558     421.4478   1417.61963     763.3558     421.4478
   1417.60437     763.3004     422.6747   1417.60437     763.3004     422.6747
   1417.58911     765.5901     423.3603   1417.58911     765.5901     423.3603
   1417.57385     765.2714     424.1385   1417.57385     765.2714     424.1385
   1417.55859     765.6756     425.5295   1417.55859     765.6756     425.5295
   1417.54333     766.8524     425.4362   1417.54333     766.8524     425.4362
   1417.52808     766.9618     426.8144   1417.52808     766.9618     426.8144
   1417.51282     768.2095     428.2417   1417.51282     768.2095     428.2417
   1417.49756     768.6740     428.9425   1417.49756     768.6740     428.9425
   1417.48230     769.6598     430.0162   1417.48230     769.6598     430.0162
   1417.46704     770.0023     430.8632   1417.46704     770.0023     430.8632
   1417.45178     770.5541     431.6912   1417.45178     770.5541     431.6912
   1417.43652     771.3614     433.4804   1417.43652     771.3614     433.4804
   1417.42126     772.4711     433.5627   1417.42126     772.4711     433.5627
   1417.40601     773.3318     434.2120   1417.40601     773.3318     434.2120
   1417.39075     772.7073     435.6585   1417.39075     772.7073     435.6585
   1417.37549     774.3237     436.2046   1417.37549     774.3237     436.2046
   1417.36023     774.3320     437.9410   1417.36023     774.3320     437.9410
   1417.34497     775.2913     438.7434   1417.34497     775.2913     438.7434
   1417.32971     775.8279     439.0048   1417.32971     775.8279     439.0048
   1417.31445     776.4365     439.1971   1417.31445     776.4365     439.1971
   1417.29919     776.4163     441.1542   1417.29919     776.4163     441.1542
   1417.28394     778.1826     442.3227   1417.28394     778.1826     442.3227
   1417.26868     777.5292     442.6107   1417.26868     777.5292     442.6107
   1417.25342     777.4743     444.4177   1417.25342     777.4743     444.4177
   1417.23816     779.6981     445.0953   1417.23816     779.6981     445.0953
   1417.22290     781.7507     446.4908   1417.22290     781.7507     446.4908
   1417.20764     781.3476     447.8891   1417.20764     781.3476     447.8891
   1417.19238     780.6519     448.3752   1417.19238     780.6519     448.3752
   1417.17712     782.1071     449.6607   1417.17712     782.1071     449.6607
   1417.16187     782.6937     449.7275   1417.16187     782.6937     449.7275
   1417.14661     783.2060     450.7439   1417.14661     783.2060     450.7439
   1417.13135     782.3951     452.5706   1417.13135     782.3951     452.5706
   1417.11609     782.6345     453.1315   1417.11609     782.6345     453.1315
   1417.10083     784.0848     454.1065   1417.10083     784.0848     454.1065
   1417.08557     784.5397     455.3100   1417.08557     784.5397     455.3100
   1417.07031     784.6278     454.9113   1417.07031     784.6278     454.9113
   1417.05505     786.4196     456.9469   1417.05505     786.4196     456.9469
   1417.03979     784.8886     457.5152   1417.03979     784.8886     457.5152
   1417.02454     787.0605     459.1762   1417.02454     787.0605     459.1762
   1417.00928     787.5409     459.5794   1417.00928     787.5409     459.5794
   1416.99402     787.7344     460.8511   1416.99402     787.7344     460.8511
   1416.97876     788.4380     462.0722   1416.97876     788.4380     462.0722
   1416.96350     788.4272     462.4331   1416.96350     788.4272     462.4331
   1416.94824     789.6514     464.6236   1416.94824     789.6514     464.6236
   1416.93298     789.6030     464.7539   1416.93298     789.6030     464.7539
   1416.91772     789.7106     465.9240   1416.91772     789.7106     465.9240
   1416.90247     790.5870     466.3553   1416.90247     790.5870     466.3553
   1416.88721     789.8425     467.0251   1416.88721     789.8425     467.0251
   1416.87195     789.3795     467.9915   1416.87195     789.3795     467.9915
   1416.85669     790.4752     469.5951   1416.85669     790.4752     469.5951
   1416.84143     791.6707     469.6076   1416.84143     791.6707     469.6076
   1416.82617     791.8691     470.0512   1416.82617     791.8691     470.0512
   1416.81091     793.3489     471.8591   1416.81091     793.3489     471.8591
   1416.79565     792.2216     473.0689   1416.79565     792.2216     473.0689
   1416.78040     791.3099     473.5780   1416.78040     791.3099     473.5780
   1416.76514     793.4702     474.6515   1416.76514     793.4702     474.6515
   1416.74988     793.8028     475.6550   1416.74988     793.8028     475.6550
   1416.73462     793.5634     475.9931   1416.73462     793.5634     475.9931
   1416.71936     795.0640     476.6983   1416.71936     795.0640     476.6983
   1416.70410     794.4390     477.5014   1416.70410     794.4390     477.5014
   1416.68884     794.2040     478.7522   1416.68884     794.2040     478.7522
   1416.67358     793.8234     479.3189   1416.67358     793.8234     479.3189
   1416.65833     794.1017     479.8381   1416.65833     794.1017     479.8381
   1416.64307     794.5865     481.2830   1416.64307     794.5865     481.2830
   1416.62781     795.2103     481.5984   1416.62781     795.2103     481.5984
   1416.61255     794.1150     481.7785   1416.61255     794.1150     481.7785
   1416.59729     795.1970     483.3608   1416.59729     795.1970     483.3608
   1416.58203     796.4471     484.4883   1416.58203     796.4471     484.4883
   1416.56677     794.5545     485.0663   1416.56677     794.5545     485.0663
   1416.55151     795.2708     485.8696   1416.55151     795.2708     485.8696
   1416.53625     795.3259     485.0173   1416.53625     795.3259     485.0173
   1416.52100     794.9109     485.7784   1416.52100     794.9109     485.7784
   1416.50574     795.1971     486.8630   1416.50574     795.1971     486.8630
   1416.49048     795.7235     487.8233   1416.49048     795.7235     487.8233
   1416.47522     795.6279     488.1711   1416.47522     795.6279     488.1711
   1416.45996     795.3626     488.6256   1416.45996     795.3626     488.6256
   1416.44470     795.9958     490.0611   1416.44470     795.9958     490.0611
   1416.42944     795.0982     490.0774   1416.42944     795.0982     490.0774
   1416.41418     794.7080     490.5722   1416.41418     794.7080     490.5722
   1416.39893     795.2453     490.7506   1416.39893     795.2453     490.7506
   1416.38367     796.3832     491.2334   1416.38367     796.3832     491.2334
   1416.36841     796.0601     491.7971   1416.36841     796.0601     491.7971
   1416.35315     795.3486     492.4266   1416.35315     795.3486     492.4266
   1416.33789     795.7362     493.6578   1416.33789     795.7362     493.6578
   1416.32263     794.8863     493.4193   1416.32263     794.8863     493.4193
   1416.30737     795.2706     494.1913   1416.30737     795.2706     494.1913
   1416.29211     795.1754     494.8653   1416.29211     795.1754     494.8653
   1416.27686     795.2570     494.1779   1416.27686     795.2570     494.1779
   1416.26160     792.9217     494.9931   1416.26160     792.9217     494.9931
   1416.24634     793.6100     495.6742   1416.24634     793.6100     495.6742
   1416.23108     794.6591     496.3944   1416.23108     794.6591     496.3944
   1416.21582     792.7997     495.9951   1416.21582     792.7997     495.9951
   1416.20056     793.5713     495.8728   1416.20056     793.5713     495.8728
   1416.18530     793.3536     496.8751   1416.18530     793.3536     496.8751
   1416.17004     793.1998     497.4214   1416.17004     793.1998     497.4214
   1416.15479     792.7177     497.1313   1416.15479     792.7177     497.1313
   1416.13953     792.9927     497.6329   1416.13953     792.9927     497.6329
   1416.12427     792.1339     497.5248   1416.12427     792.1339     497.5248
   1416.10901     792.0897     498.0615   1416.10901     792.0897     498.0615
   1416.09375     791.5690     498.5656   1416.09375     791.5690     498.5656
   1416.07849     792.4958     499.2813   1416.07849     792.4958     499.2813
   1416.06323     791.1628     499.3410   1416.06323     791.1628     499.3410
   1416.04797     790.3655     498.8679   1416.04797     790.3655     498.8679
   1416.03271     790.5397     499.2892   1416.03271     790.5397     499.2892
   1416.01746     790.0584     498.6639   1416.01746     790.0584     498.6639
   1416.00220     789.0962     500.1565   1416.00220     789.0962     500.1565
   1415.98694     788.0041     500.0233   1415.98694     788.0041     500.0233
   1415.97168     787.7598     499.8854   1415.97168     787.7598     499.8854
   1415.95642     787.8992     500.2384   1415.95642     787.8992     500.2384
   1415.94116     787.1906     499.9695   1415.94116     787.1906     499.9695
   1415.92590     787.1989     500.7206   1415.92590     787.1989     500.7206
   1415.91064     786.7350     500.4985   1415.91064     786.7350     500.4985
   1415.89539     785.7623     501.2097   1415.89539     785.7623     501.2097
   1415.88013     785.3916     500.1728   1415.88013     785.3916     500.1728
   1415.86487     783.7204     500.0833   1415.86487     783.7204     500.0833
   1415.84961     785.4224     501.1470   1415.84961     785.4224     501.1470
   1415.83435     782.7949     501.0563   1415.83435     782.7949     501.0563
   1415.81909     782.2748     500.9319   1415.81909     782.2748     500.9319
   1415.80383     782.4821     500.9278   1415.80383     782.4821     500.9278
   1415.78857     782.1008     500.7409   1415.78857     782.1008     500.7409
   1415.77332     781.0438     500.8803   1415.77332     781.0438     500.8803
   1415.75806     780.4020     501.1582   1415.75806     780.4020     501.1582
   1415.74280     779.6289     500.5138   1415.74280     779.6289     500.5138
   1415.72754     779.1718     501.0567   1415.72754     779.1718     501.0567
   1415.71228     778.5905     500.5921   1415.71228     778.5905     500.5921
   1415.69702     778.7277     501.3961   1415.69702     778.7277     501.3961
   1415.68176     777.4702     500.8753   1415.68176     777.4702     500.8753
   1415.66650     776.9445     500.5440   1415.66650     776.9445     500.5440
   1415.65125     775.7342     501.0732   1415.65125     775.7342     501.0732
   1415.63599     775.2302     500.7928   1415.63599     775.2302     500.7928
   1415.62073     775.6406     499.3348   1415.62073     775.6406     499.3348
   1415.60547     773.2175     500.9943   1415.60547     773.2175     500.9943
   1415.59021     772.2805     499.4941   1415.59021     772.2805     499.4941
   1415.57495     772.2645     499.3636   1415.57495     772.2645     499.3636
   1415.55969     771.9457     499.5524   1415.55969     771.9457     499.5524
   1415.54443     770.6602     499.7514   1415.54443     770.6602     499.7514
   1415.52917     769.4470     499.1840   1415.52917     769.4470     499.1840
   1415.51392     769.4182     499.2096   1415.51392     769.4182     499.2096
   1415.49866     769.3237     498.7428   1415.49866     769.3237     498.7428
   1415.48340     767.8683     499.0215   1415.48340     767.8683     499.0215
   1415.46814     766.7074     499.0507   1415.46814     766.7074     499.0507
   1415.45288     765.0042     498.6922   1415.45288     765.0042     498.6922
   1415.43762     764.1560     498.6649   1415.43762     764.1560     498.6649
   1415.42236     765.0610     498.9756   1415.42236     765.0610     498.9756
   1415.40710     762.3715     498.3870   1415.40710     762.3715     498.3870
   1415.39185     762.4476     498.0011   1415.39185     762.4476     498.0011
   1415.37659     761.7614     497.6130   1415.37659     761.7614     497.6130
   1415.36133     759.8097     496.7602   1415.36133     759.8097     496.7602
   1415.34607     759.7070     496.5818   1415.34607     759.7070     496.5818
   1415.33081     757.6822     496.6012   1415.33081     757.6822     496.6012
   1415.31555     757.7950     496.0260   1415.31555     757.7950     496.0260
   1415.30029     756.4083     496.1198   1415.30029     756.4083     496.1198
   1415.28503     755.0217     496.8657   1415.28503     755.0217     496.8657
   1415.26978     754.3593     495.5220   1415.26978     754.3593     495.5220
   1415.25452     753.7916     494.4098   1415.25452     753.7916     494.4098
   1415.23926     751.6468     494.9635   1415.23926     751.6468     494.9635
   1415.22400     751.4688     494.9272   1415.22400     751.4688     494.9272
   1415.20874     751.4186     493.5276   1415.20874     751.4186     493.5276
   1415.19348     748.1511     492.6790   1415.19348     748.1511     492.6790
   1415.17822     747.8349     493.8578   1415.17822     747.8349     493.8578
   1415.16296     745.8246     492.4208   1415.16296     745.8246     492.4208
   1415.14771     744.6562     493.4034   1415.14771     744.6562     493.4034
   1415.13245     744.3118     493.0915   1415.13245     744.3118     493.0915
   1415.11719     743.0058     492.6561   1415.11719     743.0058     492.6561
   1415.10193     740.3544     491.4740   1415.10193     740.3544     491.4740
   1415.08667     741.0453     489.6040   1415.08667     741.0453     489.6040
   1415.07141     740.4986     490.2341   1415.07141     740.4986     490.2341
   1415.05615     738.8910     491.3601   1415.05615     738.8910     491.3601
   1415.04089     736.8276     489.9299   1415.04089     736.8276     489.9299
   1415.02563     734.9445     488.6956   1415.02563     734.9445     488.6956
   1415.01038     733.3183     487.9636   1415.01038     733.3183     487.9636
   1414.99512     731.8238     487.7016   1414.99512     731.8238     487.7016
   1414.97986     731.9774     486.9351   1414.97986     731.9774     486.9351
   1414.96460     729.5831     486.5366   1414.96460     729.5831     486.5366
   1414.94934     729.0465     486.2539   1414.94934     729.0465     486.2539
   1414.93408     727.7963     485.5826   1414.93408     727.7963     485.5826
   1414.91882     725.1810     484.9594   1414.91882     725.1810     484.9594
   1414.90356     724.4153     484.8214   1414.90356     724.4153     484.8214
   1414.88831     724.0829     483.6169   1414.88831     724.0829     483.6169
   1414.87305     722.2787     482.3477   1414.87305     722.2787     482.3477
   1414.85779     720.8518     482.9034   1414.85779     720.8518     482.9034
   1414.84253     717.5058     481.9164   1414.84253     717.5058     481.9164
   1414.82727     715.5858     481.4046   1414.82727     715.5858     481.4046
   1414.81201     714.4364     480.3946   1414.81201     714.4364     480.3946
   1414.79675     712.3710     478.4973   1414.79675     712.3710     478.4973
   1414.78149     711.8276     479.4038   1414.78149     711.8276     479.4038
   1414.76624     710.8309     478.4290   1414.76624     710.8309     478.4290
   1414.75098     707.3860     476.9447   1414.75098     707.3860     476.9447
   1414.73572     706.4635     476.4395   1414.73572     706.4635     476.4395
   1414.72046     704.5757     476.0602   1414.72046     704.5757     476.0602
   1414.70520     702.5477     474.2159   1414.70520     702.5477     474.2159
   1414.68994     701.0787     473.2780   1414.68994     701.0787     473.2780
   1414.67468     700.0199     473.2568   1414.67468     700.0199     473.2568
   1414.65942     696.1835     472.7712   1414.65942     696.1835     472.7712
   1414.64417     696.2051     472.0307   1414.64417     696.2051     472.0307
   1414.62891     694.4672     470.7740   1414.62891     694.4672     470.7740
   1414.61365     691.8898     468.9908   1414.61365     691.8898     468.9908
   1414.59839     690.9792     468.5497   1414.59839     690.9792     468.5497
   1414.58313     688.3190     467.5171   1414.58313     688.3190     467.5171
   1414.56787     686.3409     466.5201   1414.56787     686.3409     466.5201
   1414.55261     684.0714     465.7164   1414.55261     684.0714     465.7164
   1414.53735     681.6572     463.9835   1414.53735     681.6572     463.9835
   1414.52209     681.6982     463.4978   1414.52209     681.6982     463.4978
   1414.50684     678.0685     462.6772   1414.50684     678.0685     462.6772
   1414.49158     676.1277     461.5276   1414.49158     676.1277     461.5276
   1414.47632     672.9024     460.6724   1414.47632     672.9024     460.6724
   1414.46106     673.8708     459.5237   1414.46106     673.8708     459.5237
   1414.44580     670.8190     458.6175   1414.44580     670.8190     458.6175
   1414.43054     666.8258     457.0087   1414.43054     666.8258     457.0087
   1414.41528     665.8876     456.0966   1414.41528     665.8876     456.0966
   1414.40002     663.4489     454.8201   1414.40002     663.4489     454.8201
   1414.38477     660.4501     453.9403   1414.38477     660.4501     453.9403
   1414.36951     659.2564     453.1841   1414.36951     659.2564     453.1841
   1414.35425     657.3936     451.7352   1414.35425     657.3936     451.7352
   1414.33899     655.3808     450.0416   1414.33899     655.3808     450.0416
   1414.32373     651.5961     449.4093   1414.32373     651.5961     449.4093
   1414.30847     649.9351     448.2579   1414.30847     649.9351     448.2579
   1414.29321     647.7922     446.2512   1414.29321     647.7922     446.2512
   1414.27795     646.0377     445.7983   1414.27795     646.0377     445.7983
   1414.26270     642.5088     443.8136   1414.26270     642.5088     443.8136
   1414.24744     640.3619     443.1170   1414.24744     640.3619     443.1170
   1414.23218     637.8701     442.2106   1414.23218     637.8701     442.2106
   1414.21692     635.5834     440.0892   1414.21692     635.5834     440.0892
   1414.20166     633.5067     439.0358   1414.20166     633.5067     439.0358
   1414.18640     631.0656     437.7622   1414.18640     631.0656     437.7622
   1414.17114     629.3459     436.1859   1414.17114     629.3459     436.1859
   1414.15588     627.1668     435.0336   1414.15588     627.1668     435.0336
   1414.14062     623.4585     433.7227   1414.14062     623.4585     433.7227
   1414.12537     621.3361     432.2884   1414.12537     621.3361     432.2884
   1414.11011     617.6262     430.7634   1414.11011     617.6262     430.7634
   1414.09485     616.3671     429.5969   1414.09485     616.3671     429.5969
   1414.07959     613.7822     428.4916   1414.07959     613.7822     428.4916
   1414.06433     610.8738     426.9968   1414.06433     610.8738     426.9968
   1414.04907     607.9001     425.0761   1414.04907     607.9001     425.0761
   1414.03381     605.0308     423.7009   1414.03381     605.0308     423.7009
   1414.01855     603.3000     422.1910   1414.01855     603.3000     422.1910
   1414.00330     622.8962     427.8422   1414.00330     622.8962     427.8422
   1413.98804     598.7558     419.6232   1413.98804     598.7558     419.6232
   1413.97278     594.7473     417.8864   1413.97278     594.7473     417.8864
   1413.95752     592.6492     416.2648   1413.95752     592.6492     416.2648
   1413.94226     589.2532     415.1013   1413.94226     589.2532     415.1013
   1413.92700     587.0380     414.0329   1413.92700     587.0380     414.0329
   1413.91174     584.6867     411.9793   1413.91174     584.6867     411.9793
   1413.89648     581.2501     410.2358   1413.89648     581.2501     410.2358
   1413.88123     578.4960     408.9104   1413.88123     578.4960     408.9104
   1413.86597     575.5750     407.6198   1413.86597     575.5750     407.6198
   1413.85071     573.6559     405.0377   1413.85071     573.6559     405.0377
   1413.83545     570.4329     404.2244   1413.83545     570.4329     404.2244
   1413.82019     567.4247     402.4653   1413.82019     567.4247     402.4653
   1413.80493     564.7101     400.7704   1413.80493     564.7101     400.7704
   1413.78967     562.2999     399.7688   1413.78967     562.2999     399.7688
   1413.77441     558.8160     397.1219   1413.77441     558.8160     397.1219
   1413.75916     557.2153     395.9384   1413.75916     557.2153     395.9384
   1413.74390     553.4150     394.8086   1413.74390     553.4150     394.8086
   1413.72864     551.2983     393.4909   1413.72864     551.2983     393.4909
   1413.71338     547.7706     391.6880   1413.71338     547.7706     391.6880
   1413.69812     545.3022     389.9637   1413.69812     545.3022     389.9637
   1413.68286     541.7491     388.1006   1413.68286     541.7491     388.1006
   1413.66760     539.4245     387.0656   1413.66760     539.4245     387.0656
   1413.65234     536.5551     385.0345   1413.65234     536.5551     385.0345
   1413.63708     533.9174     383.4075   1413.63708     533.9174     383.4075
   1413.62183     531.2692     381.7072   1413.62183     531.2692     381.7072
   1413.60657     528.5165     379.8086   1413.60657     528.5165     379.8086
   1413.59131     525.7771     378.6851   1413.59131     525.7771     378.6851
   1413.57605     521.9298     376.6967   1413.57605     521.9298     376.6967
   1413.56079     519.4810     375.4287   1413.56079     519.4810     375.4287
   1413.54553     517.0682     373.7354   1413.54553     517.0682     373.7354
   1413.53027     513.8284     372.7934   1413.53027     513.8284     372.7934
   1413.51501     510.5829     370.8700   1413.51501     510.5829     370.8700
   1413.49976     508.4956     369.7327   1413.49976     508.4956     369.7327
   1413.48450     505.4633     367.8588   1413.48450     505.4633     367.8588
   1413.46924     502.6475     366.4397   1413.46924     502.6475     366.4397
   1413.45398     499.2673     364.1180   1413.45398     499.2673     364.1180
   1413.43872     497.3087     363.6450   1413.43872     497.3087     363.6450
   1413.42346     494.7836     361.2423   1413.42346     494.7836     361.2423
   1413.40820     490.9868     360.3144   1413.40820     490.9868     360.3144
   1413.39294     488.6395     358.2742   1413.39294     488.6395     358.2742
   1413.37769     486.7038     356.7321   1413.37769     486.7038     356.7321
   1413.36243     483.0027     355.1270   1413.36243     483.0027     355.1270
   1413.34717     480.7178     353.9105   1413.34717     480.7178     353.9105
   1413.33191     478.3737     352.4884   1413.33191     478.3737     352.4884
   1413.31665     475.9139     350.8675   1413.31665     475.9139     350.8675
   1413.30139     473.1391     349.2945   1413.30139     473.1391     349.2945
   1413.28613     470.3225     348.6313   1413.28613     470.3225     348.6313
   1413.27087     467.1523     347.1831   1413.27087     467.1523     347.1831
   1413.25562     464.5234     345.8384   1413.25562     464.5234     345.8384
   1413.24036     462.5242     344.5085   1413.24036     462.5242     344.5085
   1413.22510     459.6060     342.4905   1413.22510     459.6060     342.4905
   1413.20984     457.0784     341.3867   1413.20984     457.0784     341.3867
   1413.19458     454.2959     339.9269   1413.19458     454.2959     339.9269
   1413.17932     452.1248     338.6797   1413.17932     452.1248     338.6797
   1413.16406     448.9206     337.8412   1413.16406     448.9206     337.8412
   1413.14880     447.4850     336.3367   1413.14880     447.4850     336.3367
   1413.13354     445.3276     335.0992   1413.13354     445.3276     335.0992
   1413.11829     442.0569     333.3814   1413.11829     442.0569     333.3814
   1413.10303     440.0158     332.7229   1413.10303     440.0158     332.7229
   1413.08777     436.8854     331.4632   1413.08777     436.8854     331.4632
   1413.07251     435.7640     330.4301   1413.07251     435.7640     330.4301
   1413.05725     433.0688     329.4187   1413.05725     433.0688     329.4187
   1413.04199     430.9543     328.3291   1413.04199     430.9543     328.3291
   1413.02673     429.4734     327.0493   1413.02673     429.4734     327.0493
   1413.01147     426.4028     326.5857   1413.01147     426.4028     326.5857
   1412.99622     424.1205     325.1466   1412.99622     424.1205     325.1466
   1412.98096     422.5061     324.2527   1412.98096     422.5061     324.2527
   1412.96570     420.3366     323.1337   1412.96570     420.3366     323.1337
   1412.95044     418.6275     322.2376   1412.95044     418.6275     322.2376
   1412.93518     415.9484     321.2936   1412.93518     415.9484     321.2936
   1412.91992     415.0177     320.8118   1412.91992     415.0177     320.8118
   1412.90466     412.4782     320.1501   1412.90466     412.4782     320.1501
   1412.88940     410.7495     318.9096   1412.88940     410.7495     318.9096
   1412.87415     408.6024     318.1914   1412.87415     408.6024     318.1914
   1412.85889     406.9406     317.7989   1412.85889     406.9406     317.7989
   1412.84363     405.3087     317.2725   1412.84363     405.3087     317.2725
   1412.82837     403.5874     316.4564   1412.82837     403.5874     316.4564
   1412.81311     402.0454     316.1450   1412.81311     402.0454     316.1450
   1412.79785     399.9266     315.9413   1412.79785     399.9266     315.9413
   1412.78259     398.6872     315.5141   1412.78259     398.6872     315.5141
   1412.76733     397.2011     314.4006   1412.76733     397.2011     314.4006
   1412.75208     396.4431     314.2527   1412.75208     396.4431     314.2527
   1412.73682     394.7958     313.8344   1412.73682     394.7958     313.8344
   1412.72156     392.9515     313.1850   1412.72156     392.9515     313.1850
   1412.70630     392.7709     313.8025   1412.70630     392.7709     313.8025
   1412.69104     389.8527     313.6509   1412.69104     389.8527     313.6509
   1412.67578     389.1593     312.8330   1412.67578     389.1593     312.8330
   1412.66052     388.2958     312.9626   1412.66052     388.2958     312.9626
   1412.64526     386.8225     312.9364   1412.64526     386.8225     312.9364
   1412.63000     385.2672     312.4469   1412.63000     385.2672     312.4469
   1412.61475     384.3145     312.7612   1412.61475     384.3145     312.7612
   1412.59949     384.5187     312.6558   1412.59949     384.5187     312.6558
   1412.58423     382.7787     312.7377   1412.58423     382.7787     312.7377
   1412.56897     382.0145     313.5400   1412.56897     382.0145     313.5400
   1412.55371     380.9574     314.1572   1412.55371     380.9574     314.1572
   1412.53845     380.7783     313.6423   1412.53845     380.7783     313.6423
   1412.52319     379.9386     314.2632   1412.52319     379.9386     314.2632
   1412.50793     378.8789     314.6516   1412.50793     378.8789     314.6516
   1412.49268     378.5238     314.5919   1412.49268     378.5238     314.5919
   1412.47742     378.0321     315.2153   1412.47742     378.0321     315.2153
   1412.46216     377.0535     315.5900   1412.46216     377.0535     315.5900
   1412.44690     376.7790     316.1815   1412.44690     376.7790     316.1815
   1412.43164     376.7301     317.4800   1412.43164     376.7301     317.4800
   1412.41638     376.5240     318.0632   1412.41638     376.5240     318.0632
   1412.40112     376.2437     318.8237   1412.40112     376.2437     318.8237
   1412.38586     375.8574     319.9697   1412.38586     375.8574     319.9697
   1412.37061     375.7820     320.7418   1412.37061     375.7820     320.7418
   1412.35535     376.0039     321.7104   1412.35535     376.0039     321.7104
   1412.34009     375.6588     322.5576   1412.34009     375.6588     322.5576
   1412.32483     375.2342     323.4148   1412.32483     375.2342     323.4148
   1412.30957     375.6200     324.0731   1412.30957     375.6200     324.0731
   1412.29431     375.3714     324.9394   1412.29431     375.3714     324.9394
   1412.27905     375.9168     326.7976   1412.27905     375.9168     326.7976
   1412.26379     376.2448     328.0515   1412.26379     376.2448     328.0515
   1412.24854     376.4668     329.7020   1412.24854     376.4668     329.7020
   1412.23328     376.7675     330.4980   1412.23328     376.7675     330.4980
   1412.21802     377.0483     332.0612   1412.21802     377.0483     332.0612
   1412.20276     377.6118     333.4369   1412.20276     377.6118     333.4369