#     FILENAME=!Skynet_57528_lach-hhg-173_20558_20996.cyb.fits
#     BASENAME=Skynet_57528_lach-hhg-173_20558_20996
#     SRC_NAME=lach-hhg-173
#     OBSERVER=hhgmadison16_9500
#     DATE_OBS=2016-05-20T18:26:04.560
#        OBSID=20558
#      SCANNUM=20996
#          MJD=57528.7691
#          UTC=66453
#     SCANTYPE=track
#     DATAMODE=HIRES
#     TUNEFREQ=1420.0000
# Actual_FREQ1=1420.0000
# Actual_FREQ2=1420.0000
#    LO1Tuning=6870.000
#     RFFILTER=1355_1435
#        OBSBW=-15.6250
#        NCHAN=1024 
#        FOCUS=37.0489
#           RA=05:27:50.51
#          DEC=34:50:18.17
#      RA(hrs)=5.464000
#     DEC(deg)=34.838400
#    AZIM(deg)=121.377
#    ELEV(deg)=83.446
#     IFattens=11.00, 10.00
#      WARNING=None
#    TCAL_XL1=7.9635
#    TCAL_YR1=9.1340
#    TCAL_XL2=7.9635
#    TCAL_YR2=9.1340
#     TRX_XL1=11.7060
#     TRX_YR1=11.7060
#     TRX_XL2=11.7060
#     TRX_YR2=11.7060
#        TAVE=1.0000
#Freq1(MHz)          XL1          YR1  Freq2(MHz)          XL2          YR2 

   1427.81250     307.5796     284.5015   1427.81250     307.5796     284.5015
   1427.79724     308.2000     286.1379   1427.79724     308.2000     286.1379
   1427.78198     308.7837     287.6750   1427.78198     308.7837     287.6750
   1427.76672     309.1144     288.7141   1427.76672     309.1144     288.7141
   1427.75146     309.8516     290.2552   1427.75146     309.8516     290.2552
   1427.73621     311.1252     292.2712   1427.73621     311.1252     292.2712
   1427.72095     311.7307     293.5334   1427.72095     311.7307     293.5334
   1427.70569     312.2383     294.7982   1427.70569     312.2383     294.7982
   1427.69043     313.0212     296.8427   1427.69043     313.0212     296.8427
   1427.67517     313.9567     298.4692   1427.67517     313.9567     298.4692
   1427.65991     315.0585     299.7464   1427.65991     315.0585     299.7464
   1427.64465     314.9673     301.6686   1427.64465     314.9673     301.6686
   1427.62939     316.2331     303.2368   1427.62939     316.2331     303.2368
   1427.61414     317.1079     305.3918   1427.61414     317.1079     305.3918
   1427.59888     318.6008     307.3499   1427.59888     318.6008     307.3499
   1427.58362     319.6304     309.2941   1427.58362     319.6304     309.2941
   1427.56836     320.5302     311.2563   1427.56836     320.5302     311.2563
   1427.55310     322.5733     312.9008   1427.55310     322.5733     312.9008
   1427.53784     323.2210     314.5122   1427.53784     323.2210     314.5122
   1427.52258     324.5970     317.0357   1427.52258     324.5970     317.0357
   1427.50732     325.7859     318.3344   1427.50732     325.7859     318.3344
   1427.49207     327.4584     321.2291   1427.49207     327.4584     321.2291
   1427.47681     328.0896     323.0887   1427.47681     328.0896     323.0887
   1427.46155     330.3333     325.7393   1427.46155     330.3333     325.7393
   1427.44629     331.3756     327.4050   1427.44629     331.3756     327.4050
   1427.43103     332.8104     330.1221   1427.43103     332.8104     330.1221
   1427.41577     333.7054     331.9395   1427.41577     333.7054     331.9395
   1427.40051     335.7557     333.8832   1427.40051     335.7557     333.8832
   1427.38525     337.1478     336.3082   1427.38525     337.1478     336.3082
   1427.37000     338.4088     337.8841   1427.37000     338.4088     337.8841
   1427.35474     340.7768     340.5698   1427.35474     340.7768     340.5698
   1427.33948     342.2995     343.5723   1427.33948     342.2995     343.5723
   1427.32422     343.9753     345.8867   1427.32422     343.9753     345.8867
   1427.30896     345.9023     348.3232   1427.30896     345.9023     348.3232
   1427.29370     347.5066     350.3133   1427.29370     347.5066     350.3133
   1427.27844     349.0707     352.9916   1427.27844     349.0707     352.9916
   1427.26318     351.2391     355.2991   1427.26318     351.2391     355.2991
   1427.24792     352.9743     358.3121   1427.24792     352.9743     358.3121
   1427.23267     355.3233     359.7463   1427.23267     355.3233     359.7463
   1427.21741     357.5010     362.8392   1427.21741     357.5010     362.8392
   1427.20215     358.7581     365.2032   1427.20215     358.7581     365.2032
   1427.18689     361.1252     367.4988   1427.18689     361.1252     367.4988
   1427.17163     362.2924     369.8618   1427.17163     362.2924     369.8618
   1427.15637     365.1127     372.3437   1427.15637     365.1127     372.3437
   1427.14111     366.7494     375.3103   1427.14111     366.7494     375.3103
   1427.12585     368.8083     377.1416   1427.12585     368.8083     377.1416
   1427.11060     371.5350     379.4344   1427.11060     371.5350     379.4344
   1427.09534     373.6710     382.7590   1427.09534     373.6710     382.7590
   1427.08008     375.2198     385.0115   1427.08008     375.2198     385.0115
   1427.06482     377.6347     387.4885   1427.06482     377.6347     387.4885
   1427.04956     380.1164     390.1205   1427.04956     380.1164     390.1205
   1427.03430     381.6393     392.4964   1427.03430     381.6393     392.4964
   1427.01904     383.7243     394.9378   1427.01904     383.7243     394.9378
   1427.00378     386.3911     397.8583   1427.00378     386.3911     397.8583
   1426.98853     388.4729     400.2148   1426.98853     388.4729     400.2148
   1426.97327     390.9816     402.7723   1426.97327     390.9816     402.7723
   1426.95801     393.0383     404.8151   1426.95801     393.0383     404.8151
   1426.94275     395.8558     407.9102   1426.94275     395.8558     407.9102
   1426.92749     398.3305     410.1205   1426.92749     398.3305     410.1205
   1426.91223     400.1451     412.6615   1426.91223     400.1451     412.6615
   1426.89697     402.9674     414.9462   1426.89697     402.9674     414.9462
   1426.88171     404.6077     417.3170   1426.88171     404.6077     417.3170
   1426.86646     407.1965     419.8338   1426.86646     407.1965     419.8338
   1426.85120     409.2623     422.0902   1426.85120     409.2623     422.0902
   1426.83594     412.4261     424.7213   1426.83594     412.4261     424.7213
   1426.82068     414.7145     426.7976   1426.82068     414.7145     426.7976
   1426.80542     417.2944     429.9813   1426.80542     417.2944     429.9813
   1426.79016     419.1560     431.6416   1426.79016     419.1560     431.6416
   1426.77490     421.8743     433.8367   1426.77490     421.8743     433.8367
   1426.75964     423.7971     436.7393   1426.75964     423.7971     436.7393
   1426.74438     427.5352     438.3637   1426.74438     427.5352     438.3637
   1426.72913     429.8180     441.1376   1426.72913     429.8180     441.1376
   1426.71387     431.8232     442.7689   1426.71387     431.8232     442.7689
   1426.69861     434.3516     445.7032   1426.69861     434.3516     445.7032
   1426.68335     437.3200     447.9381   1426.68335     437.3200     447.9381
   1426.66809     439.5395     449.6965   1426.66809     439.5395     449.6965
   1426.65283     441.4813     451.7095   1426.65283     441.4813     451.7095
   1426.63757     443.9543     454.4043   1426.63757     443.9543     454.4043
   1426.62231     448.4516     460.0223   1426.62231     448.4516     460.0223
   1426.60706     448.8432     459.5305   1426.60706     448.8432     459.5305
   1426.59180     452.0789     461.2397   1426.59180     452.0789     461.2397
   1426.57654     454.0080     462.4399   1426.57654     454.0080     462.4399
   1426.56128     457.2277     464.9517   1426.56128     457.2277     464.9517
   1426.54602     458.7442     467.2648   1426.54602     458.7442     467.2648
   1426.53076     461.3723     469.3417   1426.53076     461.3723     469.3417
   1426.51550     463.8672     470.6808   1426.51550     463.8672     470.6808
   1426.50024     467.1827     471.9351   1426.50024     467.1827     471.9351
   1426.48499     468.4619     474.5507   1426.48499     468.4619     474.5507
   1426.46973     470.9394     475.7789   1426.46973     470.9394     475.7789
   1426.45447     473.5946     479.4070   1426.45447     473.5946     479.4070
   1426.43921     475.9800     479.9168   1426.43921     475.9800     479.9168
   1426.42395     478.3305     482.2063   1426.42395     478.3305     482.2063
   1426.40869     480.3559     484.0717   1426.40869     480.3559     484.0717
   1426.39343     483.2657     485.0911   1426.39343     483.2657     485.0911
   1426.37817     486.0372     486.9886   1426.37817     486.0372     486.9886
   1426.36292     487.8636     488.9270   1426.36292     487.8636     488.9270
   1426.34766     490.9774     491.0358   1426.34766     490.9774     491.0358
   1426.33240     492.1474     492.2531   1426.33240     492.1474     492.2531
   1426.31714     494.7376     494.5042   1426.31714     494.7376     494.5042
   1426.30188     497.7810     495.4407   1426.30188     497.7810     495.4407
   1426.28662     499.9670     496.5352   1426.28662     499.9670     496.5352
   1426.27136     502.5935     498.3257   1426.27136     502.5935     498.3257
   1426.25610     504.2723     500.8289   1426.25610     504.2723     500.8289
   1426.24084     505.8259     501.2435   1426.24084     505.8259     501.2435
   1426.22559     509.4283     503.0444   1426.22559     509.4283     503.0444
   1426.21033     511.7799     504.4639   1426.21033     511.7799     504.4639
   1426.19507     513.9343     505.4142   1426.19507     513.9343     505.4142
   1426.17981     514.9651     508.0271   1426.17981     514.9651     508.0271
   1426.16455     517.9521     508.9163   1426.16455     517.9521     508.9163
   1426.14929     520.3027     510.4054   1426.14929     520.3027     510.4054
   1426.13403     522.6569     511.7920   1426.13403     522.6569     511.7920
   1426.11877     524.2379     511.8570   1426.11877     524.2379     511.8570
   1426.10352     526.3007     513.8948   1426.10352     526.3007     513.8948
   1426.08826     529.0915     514.5944   1426.08826     529.0915     514.5944
   1426.07300     532.2472     516.2458   1426.07300     532.2472     516.2458
   1426.05774     532.5474     516.6718   1426.05774     532.5474     516.6718
   1426.04248     534.8260     518.0826   1426.04248     534.8260     518.0826
   1426.02722     536.5396     518.9471   1426.02722     536.5396     518.9471
   1426.01196     538.8044     519.9550   1426.01196     538.8044     519.9550
   1425.99670     540.8738     521.6072   1425.99670     540.8738     521.6072
   1425.98145     543.0959     522.5789   1425.98145     543.0959     522.5789
   1425.96619     545.0967     523.1844   1425.96619     545.0967     523.1844
   1425.95093     546.8254     525.5057   1425.95093     546.8254     525.5057
   1425.93567     548.2386     526.3688   1425.93567     548.2386     526.3688
   1425.92041     550.1965     526.5657   1425.92041     550.1965     526.5657
   1425.90515     552.2664     527.2658   1425.90515     552.2664     527.2658
   1425.88989     554.5555     528.7906   1425.88989     554.5555     528.7906
   1425.87463     556.6561     529.8845   1425.87463     556.6561     529.8845
   1425.85938     557.6078     529.1074   1425.85938     557.6078     529.1074
   1425.84412     558.9843     530.6672   1425.84412     558.9843     530.6672
   1425.82886     561.5984     532.3661   1425.82886     561.5984     532.3661
   1425.81360     563.9475     532.4791   1425.81360     563.9475     532.4791
   1425.79834     565.7247     533.3953   1425.79834     565.7247     533.3953
   1425.78308     566.3627     534.1155   1425.78308     566.3627     534.1155
   1425.76782     567.2722     535.0107   1425.76782     567.2722     535.0107
   1425.75256     569.3333     535.3940   1425.75256     569.3333     535.3940
   1425.73730     571.7640     535.7643   1425.73730     571.7640     535.7643
   1425.72205     573.2194     536.6472   1425.72205     573.2194     536.6472
   1425.70679     574.4888     536.9877   1425.70679     574.4888     536.9877
   1425.69153     576.2722     537.3052   1425.69153     576.2722     537.3052
   1425.67627     575.9475     537.0583   1425.67627     575.9475     537.0583
   1425.66101     578.7884     537.1924   1425.66101     578.7884     537.1924
   1425.64575     579.7747     538.8231   1425.64575     579.7747     538.8231
   1425.63049     581.2741     539.5211   1425.63049     581.2741     539.5211
   1425.61523     582.4066     539.2789   1425.61523     582.4066     539.2789
   1425.59998     584.5668     539.9572   1425.59998     584.5668     539.9572
   1425.58472     585.8788     541.3260   1425.58472     585.8788     541.3260
   1425.56946     587.1544     540.7747   1425.56946     587.1544     540.7747
   1425.55420     587.4110     541.2277   1425.55420     587.4110     541.2277
   1425.53894     589.6003     540.8329   1425.53894     589.6003     540.8329
   1425.52368     590.5819     541.8657   1425.52368     590.5819     541.8657
   1425.50842     592.3681     542.5250   1425.50842     592.3681     542.5250
   1425.49316     593.0084     542.1058   1425.49316     593.0084     542.1058
   1425.47791     593.5024     542.3456   1425.47791     593.5024     542.3456
   1425.46265     595.5022     543.2244   1425.46265     595.5022     543.2244
   1425.44739     596.0392     543.0792   1425.44739     596.0392     543.0792
   1425.43213     597.3521     542.6508   1425.43213     597.3521     542.6508
   1425.41687     599.1263     543.2247   1425.41687     599.1263     543.2247
   1425.40161     598.8596     543.8494   1425.40161     598.8596     543.8494
   1425.38635     600.4688     543.7684   1425.38635     600.4688     543.7684
   1425.37109     602.1906     544.0071   1425.37109     602.1906     544.0071
   1425.35583     602.1164     543.4226   1425.35583     602.1164     543.4226
   1425.34058     603.1804     543.8717   1425.34058     603.1804     543.8717
   1425.32532     603.8469     543.8668   1425.32532     603.8469     543.8668
   1425.31006     605.1730     544.5806   1425.31006     605.1730     544.5806
   1425.29480     605.9242     544.2362   1425.29480     605.9242     544.2362
   1425.27954     605.8796     544.2407   1425.27954     605.8796     544.2407
   1425.26428     607.7642     543.8862   1425.26428     607.7642     543.8862
   1425.24902     608.3699     544.2915   1425.24902     608.3699     544.2915
   1425.23376     608.9188     544.1797   1425.23376     608.9188     544.1797
   1425.21851     609.3468     545.0909   1425.21851     609.3468     545.0909
   1425.20325     610.2103     544.1824   1425.20325     610.2103     544.1824
   1425.18799     610.5775     543.2574   1425.18799     610.5775     543.2574
   1425.17273     611.3077     543.9556   1425.17273     611.3077     543.9556
   1425.15747     612.4587     544.4346   1425.15747     612.4587     544.4346
   1425.14221     612.9157     543.9642   1425.14221     612.9157     543.9642
   1425.12695     613.3404     543.9600   1425.12695     613.3404     543.9600
   1425.11169     613.4807     543.5771   1425.11169     613.4807     543.5771
   1425.09644     615.1587     543.3353   1425.09644     615.1587     543.3353
   1425.08118     614.5508     543.2838   1425.08118     614.5508     543.2838
   1425.06592     615.7185     542.5673   1425.06592     615.7185     542.5673
   1425.05066     616.6575     543.4054   1425.05066     616.6575     543.4054
   1425.03540     616.4721     542.9715   1425.03540     616.4721     542.9715
   1425.02014     617.1976     541.9316   1425.02014     617.1976     541.9316
   1425.00488     617.6309     542.0577   1425.00488     617.6309     542.0577
   1424.98962     617.2153     542.0845   1424.98962     617.2153     542.0845
   1424.97437     617.7739     541.8272   1424.97437     617.7739     541.8272
   1424.95911     619.0066     541.9020   1424.95911     619.0066     541.9020
   1424.94385     618.4437     540.8738   1424.94385     618.4437     540.8738
   1424.92859     619.3502     541.1755   1424.92859     619.3502     541.1755
   1424.91333     620.3315     540.7385   1424.91333     620.3315     540.7385
   1424.89807     619.7157     541.1039   1424.89807     619.7157     541.1039
   1424.88281     619.1296     540.6002   1424.88281     619.1296     540.6002
   1424.86755     619.8835     539.3921   1424.86755     619.8835     539.3921
   1424.85229     620.3503     538.9810   1424.85229     620.3503     538.9810
   1424.83704     620.5508     538.7509   1424.83704     620.5508     538.7509
   1424.82178     620.3505     539.2662   1424.82178     620.3505     539.2662
   1424.80652     620.8889     537.7770   1424.80652     620.8889     537.7770
   1424.79126     621.1429     537.4862   1424.79126     621.1429     537.4862
   1424.77600     621.0482     537.9537   1424.77600     621.0482     537.9537
   1424.76074     620.5788     536.6161   1424.76074     620.5788     536.6161
   1424.74548     620.6530     537.0845   1424.74548     620.6530     537.0845
   1424.73022     621.0761     536.6459   1424.73022     621.0761     536.6459
   1424.71497     621.2776     536.2100   1424.71497     621.2776     536.2100
   1424.69971     621.1936     535.7530   1424.69971     621.1936     535.7530
   1424.68445     621.8121     535.5619   1424.68445     621.8121     535.5619
   1424.66919     621.4411     535.2762   1424.66919     621.4411     535.2762
   1424.65393     621.2311     534.4403   1424.65393     621.2311     534.4403
   1424.63867     620.9592     533.8185   1424.63867     620.9592     533.8185
   1424.62341     621.2257     533.2416   1424.62341     621.2257     533.2416
   1424.60815     622.1385     533.3268   1424.60815     622.1385     533.3268
   1424.59290     622.4833     532.8604   1424.59290     622.4833     532.8604
   1424.57764     621.5216     532.3167   1424.57764     621.5216     532.3167
   1424.56238     621.5241     531.2121   1424.56238     621.5241     531.2121
   1424.54712     621.7159     531.7145   1424.54712     621.7159     531.7145
   1424.53186     621.7556     530.7813   1424.53186     621.7556     530.7813
   1424.51660     620.1960     530.9431   1424.51660     620.1960     530.9431
   1424.50134     621.0824     530.3481   1424.50134     621.0824     530.3481
   1424.48608     620.6561     528.8819   1424.48608     620.6561     528.8819
   1424.47083     620.2044     528.9703   1424.47083     620.2044     528.9703
   1424.45557     620.0715     527.6689   1424.45557     620.0715     527.6689
   1424.44031     619.8443     527.9650   1424.44031     619.8443     527.9650
   1424.42505     620.2781     526.6260   1424.42505     620.2781     526.6260
   1424.40979     619.7114     528.0192   1424.40979     619.7114     528.0192
   1424.39453     620.2289     526.8947   1424.39453     620.2289     526.8947
   1424.37927     618.3030     526.3014   1424.37927     618.3030     526.3014
   1424.36401     618.9857     524.8627   1424.36401     618.9857     524.8627
   1424.34875     619.2397     524.7665   1424.34875     619.2397     524.7665
   1424.33350     618.9385     524.5924   1424.33350     618.9385     524.5924
   1424.31824     619.1575     524.6829   1424.31824     619.1575     524.6829
   1424.30298     618.5854     523.3248   1424.30298     618.5854     523.3248
   1424.28772     617.6517     522.0917   1424.28772     617.6517     522.0917
   1424.27246     619.0238     522.6652   1424.27246     619.0238     522.6652
   1424.25720     617.5629     520.9442   1424.25720     617.5629     520.9442
   1424.24194     618.4304     519.8926   1424.24194     618.4304     519.8926
   1424.22668     618.3308     520.3221   1424.22668     618.3308     520.3221
   1424.21143     617.4509     519.7863   1424.21143     617.4509     519.7863
   1424.19617     616.7090     519.6383   1424.19617     616.7090     519.6383
   1424.18091     616.0253     519.4111   1424.18091     616.0253     519.4111
   1424.16565     615.7714     518.2714   1424.16565     615.7714     518.2714
   1424.15039     615.9596     518.4135   1424.15039     615.9596     518.4135
   1424.13513     615.5471     517.4388   1424.13513     615.5471     517.4388
   1424.11987     614.5796     516.9876   1424.11987     614.5796     516.9876
   1424.10461     614.8806     515.7561   1424.10461     614.8806     515.7561
   1424.08936     614.2458     515.8209   1424.08936     614.2458     515.8209
   1424.07410     614.5482     514.9896   1424.07410     614.5482     514.9896
   1424.05884     614.3824     513.8448   1424.05884     614.3824     513.8448
   1424.04358     612.9633     513.7502   1424.04358     612.9633     513.7502
   1424.02832     614.2491     513.0159   1424.02832     614.2491     513.0159
   1424.01306     613.7034     511.8347   1424.01306     613.7034     511.8347
   1423.99780     612.0639     511.3383   1423.99780     612.0639     511.3383
   1423.98254     611.7394     511.8247   1423.98254     611.7394     511.8247
   1423.96729     611.4370     510.6237   1423.96729     611.4370     510.6237
   1423.95203     610.7751     510.5822   1423.95203     610.7751     510.5822
   1423.93677     611.4118     510.2450   1423.93677     611.4118     510.2450
   1423.92151     611.1713     508.7513   1423.92151     611.1713     508.7513
   1423.90625     609.6646     508.0775   1423.90625     609.6646     508.0775
   1423.89099     610.4495     507.6800   1423.89099     610.4495     507.6800
   1423.87573     610.2244     506.6990   1423.87573     610.2244     506.6990
   1423.86047     609.6395     507.5409   1423.86047     609.6395     507.5409
   1423.84521     609.4880     505.5070   1423.84521     609.4880     505.5070
   1423.82996     609.1443     505.3589   1423.82996     609.1443     505.3589
   1423.81470     608.6108     504.4783   1423.81470     608.6108     504.4783
   1423.79944     608.4037     503.7687   1423.79944     608.4037     503.7687
   1423.78418     607.8592     503.7184   1423.78418     607.8592     503.7184
   1423.76892     607.8454     501.9321   1423.76892     607.8454     501.9321
   1423.75366     606.3318     502.2946   1423.75366     606.3318     502.2946
   1423.73840     607.5851     501.4615   1423.73840     607.5851     501.4615
   1423.72314     605.6531     501.2410   1423.72314     605.6531     501.2410
   1423.70789     606.7195     500.4610   1423.70789     606.7195     500.4610
   1423.69263     606.3168     499.5561   1423.69263     606.3168     499.5561
   1423.67737     605.7382     499.7298   1423.67737     605.7382     499.7298
   1423.66211     605.6425     498.2605   1423.66211     605.6425     498.2605
   1423.64685     604.2719     497.4066   1423.64685     604.2719     497.4066
   1423.63159     605.1814     497.2406   1423.63159     605.1814     497.2406
   1423.61633     604.3861     495.6445   1423.61633     604.3861     495.6445
   1423.60107     604.1844     495.3633   1423.60107     604.1844     495.3633
   1423.58582     603.7747     494.8086   1423.58582     603.7747     494.8086
   1423.57056     602.0275     494.8910   1423.57056     602.0275     494.8910
   1423.55530     603.1046     494.2653   1423.55530     603.1046     494.2653
   1423.54004     601.9955     493.6716   1423.54004     601.9955     493.6716
   1423.52478     603.3722     492.7435   1423.52478     603.3722     492.7435
   1423.50952     602.0696     492.0519   1423.50952     602.0696     492.0519
   1423.49426     602.1049     491.4184   1423.49426     602.1049     491.4184
   1423.47900     600.8887     490.8967   1423.47900     600.8887     490.8967
   1423.46375     601.6638     489.7718   1423.46375     601.6638     489.7718
   1423.44849     600.5983     489.1101   1423.44849     600.5983     489.1101
   1423.43323     601.0961     489.4735   1423.43323     601.0961     489.4735
   1423.41797     601.2152     487.2423   1423.41797     601.2152     487.2423
   1423.40271     599.6895     487.7816   1423.40271     599.6895     487.7816
   1423.38745     599.8949     487.4391   1423.38745     599.8949     487.4391
   1423.37219     598.6102     485.4201   1423.37219     598.6102     485.4201
   1423.35693     599.1944     484.8570   1423.35693     599.1944     484.8570
   1423.34167     599.5055     484.1418   1423.34167     599.5055     484.1418
   1423.32642     598.1008     483.9723   1423.32642     598.1008     483.9723
   1423.31116     597.1977     482.9196   1423.31116     597.1977     482.9196
   1423.29590     597.9344     483.0030   1423.29590     597.9344     483.0030
   1423.28064     597.4458     481.7004   1423.28064     597.4458     481.7004
   1423.26538     597.0748     481.9250   1423.26538     597.0748     481.9250
   1423.25012     596.5093     479.9271   1423.25012     596.5093     479.9271
   1423.23486     595.8597     479.7014   1423.23486     595.8597     479.7014
   1423.21960     595.4824     478.9247   1423.21960     595.4824     478.9247
   1423.20435     596.2735     478.3628   1423.20435     596.2735     478.3628
   1423.18909     595.8366     477.6356   1423.18909     595.8366     477.6356
   1423.17383     595.6900     476.8404   1423.17383     595.6900     476.8404
   1423.15857     595.5327     476.3418   1423.15857     595.5327     476.3418
   1423.14331     594.3700     475.9725   1423.14331     594.3700     475.9725
   1423.12805     594.0134     474.3445   1423.12805     594.0134     474.3445
   1423.11279     594.2083     474.0679   1423.11279     594.2083     474.0679
   1423.09753     594.7968     473.5414   1423.09753     594.7968     473.5414
   1423.08228     593.5639     472.8987   1423.08228     593.5639     472.8987
   1423.06702     593.7101     472.3734   1423.06702     593.7101     472.3734
   1423.05176     593.7396     471.6189   1423.05176     593.7396     471.6189
   1423.03650     594.2556     470.7591   1423.03650     594.2556     470.7591
   1423.02124     593.6727     469.7710   1423.02124     593.6727     469.7710
   1423.00598     592.6680     469.1017   1423.00598     592.6680     469.1017
   1422.99072     593.6423     469.2992   1422.99072     593.6423     469.2992
   1422.97546     592.4648     467.3353   1422.97546     592.4648     467.3353
   1422.96021     592.2761     466.7618   1422.96021     592.2761     466.7618
   1422.94495     592.7112     467.1013   1422.94495     592.7112     467.1013
   1422.92969     590.9128     465.9514   1422.92969     590.9128     465.9514
   1422.91443     590.8896     465.3934   1422.91443     590.8896     465.3934
   1422.89917     591.2939     464.6262   1422.89917     591.2939     464.6262
   1422.88391     591.0499     463.9272   1422.88391     591.0499     463.9272
   1422.86865     591.1846     462.9429   1422.86865     591.1846     462.9429
   1422.85339     591.3864     462.4565   1422.85339     591.3864     462.4565
   1422.83813     591.4894     462.0212   1422.83813     591.4894     462.0212
   1422.82288     590.6934     461.4576   1422.82288     590.6934     461.4576
   1422.80762     589.9823     460.3246   1422.80762     589.9823     460.3246
   1422.79236     589.9293     460.2141   1422.79236     589.9293     460.2141
   1422.77710     590.1422     459.5845   1422.77710     590.1422     459.5845
   1422.76184     589.4423     459.0332   1422.76184     589.4423     459.0332
   1422.74658     590.1768     457.6565   1422.74658     590.1768     457.6565
   1422.73132     589.4174     457.7691   1422.73132     589.4174     457.7691
   1422.71606     589.3470     456.9295   1422.71606     589.3470     456.9295
   1422.70081     588.9989     455.6015   1422.70081     588.9989     455.6015
   1422.68555     589.6638     456.0273   1422.68555     589.6638     456.0273
   1422.67029     589.0126     454.6186   1422.67029     589.0126     454.6186
   1422.65503     588.8312     454.0244   1422.65503     588.8312     454.0244
   1422.63977     588.6583     453.2412   1422.63977     588.6583     453.2412
   1422.62451     589.0980     452.3106   1422.62451     589.0980     452.3106
   1422.60925     587.8303     452.0981   1422.60925     587.8303     452.0981
   1422.59399     588.4093     450.6758   1422.59399     588.4093     450.6758
   1422.57874     587.3149     450.3651   1422.57874     587.3149     450.3651
   1422.56348     588.2945     450.0114   1422.56348     588.2945     450.0114
   1422.54822     587.6962     448.2402   1422.54822     587.6962     448.2402
   1422.53296     587.0706     448.4629   1422.53296     587.0706     448.4629
   1422.51770     587.6385     447.0589   1422.51770     587.6385     447.0589
   1422.50244     586.5422     447.1737   1422.50244     586.5422     447.1737
   1422.48718     587.0878     446.2095   1422.48718     587.0878     446.2095
   1422.47192     588.0946     444.8288   1422.47192     588.0946     444.8288
   1422.45667     586.6041     444.6041   1422.45667     586.6041     444.6041
   1422.44141     586.8859     443.2237   1422.44141     586.8859     443.2237
   1422.42615     587.0002     442.9128   1422.42615     587.0002     442.9128
   1422.41089     586.9026     442.2236   1422.41089     586.9026     442.2236
   1422.39563     586.6215     442.7563   1422.39563     586.6215     442.7563
   1422.38037     586.9186     440.8383   1422.38037     586.9186     440.8383
   1422.36511     585.8484     440.4964   1422.36511     585.8484     440.4964
   1422.34985     586.6506     439.4139   1422.34985     586.6506     439.4139
   1422.33459     586.6087     438.8933   1422.33459     586.6087     438.8933
   1422.31934     584.9064     439.4634   1422.31934     584.9064     439.4634
   1422.30408     586.4448     437.8523   1422.30408     586.4448     437.8523
   1422.28882     586.4309     436.8599   1422.28882     586.4309     436.8599
   1422.27356     586.7468     436.6055   1422.27356     586.7468     436.6055
   1422.25830     585.9655     435.4250   1422.25830     585.9655     435.4250
   1422.24304     585.7919     435.2752   1422.24304     585.7919     435.2752
   1422.22778     585.9729     434.3739   1422.22778     585.9729     434.3739
   1422.21252     585.4482     433.4780   1422.21252     585.4482     433.4780
   1422.19727     585.5100     432.1604   1422.19727     585.5100     432.1604
   1422.18201     584.5543     432.2430   1422.18201     584.5543     432.2430
   1422.16675     585.6211     432.1755   1422.16675     585.6211     432.1755
   1422.15149     585.4589     430.8623   1422.15149     585.4589     430.8623
   1422.13623     585.4780     430.0654   1422.13623     585.4780     430.0654
   1422.12097     584.9957     428.8954   1422.12097     584.9957     428.8954
   1422.10571     585.0077     429.0017   1422.10571     585.0077     429.0017
   1422.09045     585.3862     427.8682   1422.09045     585.3862     427.8682
   1422.07520     584.6653     427.4961   1422.07520     584.6653     427.4961
   1422.05994     584.7169     426.7281   1422.05994     584.7169     426.7281
   1422.04468     585.0283     425.6751   1422.04468     585.0283     425.6751
   1422.02942     585.4721     424.8198   1422.02942     585.4721     424.8198
   1422.01416     585.1051     423.5970   1422.01416     585.1051     423.5970
   1421.99890     583.9810     423.6334   1421.99890     583.9810     423.6334
   1421.98364     585.4218     423.5378   1421.98364     585.4218     423.5378
   1421.96838     584.5909     422.5868   1421.96838     584.5909     422.5868
   1421.95312     585.1964     421.6565   1421.95312     585.1964     421.6565
   1421.93787     583.4548     420.7357   1421.93787     583.4548     420.7357
   1421.92261     585.1078     419.9533   1421.92261     585.1078     419.9533
   1421.90735     583.5798     419.7245   1421.90735     583.5798     419.7245
   1421.89209     584.8417     418.6424   1421.89209     584.8417     418.6424
   1421.87683     584.9327     418.3101   1421.87683     584.9327     418.3101
   1421.86157     583.4785     417.6603   1421.86157     583.4785     417.6603
   1421.84631     584.3719     416.7419   1421.84631     584.3719     416.7419
   1421.83105     584.1766     416.2584   1421.83105     584.1766     416.2584
   1421.81580     584.4098     415.6214   1421.81580     584.4098     415.6214
   1421.80054     583.6177     414.8238   1421.80054     583.6177     414.8238
   1421.78528     582.6391     414.4115   1421.78528     582.6391     414.4115
   1421.77002     584.8088     414.1054   1421.77002     584.8088     414.1054
   1421.75476     583.4286     413.2081   1421.75476     583.4286     413.2081
   1421.73950     583.0321     411.6731   1421.73950     583.0321     411.6731
   1421.72424     582.3195     411.6019   1421.72424     582.3195     411.6019
   1421.70898     582.8401     410.2037   1421.70898     582.8401     410.2037
   1421.69373     584.3442     409.8433   1421.69373     584.3442     409.8433
   1421.67847     582.5363     408.4804   1421.67847     582.5363     408.4804
   1421.66321     583.6902     408.1392   1421.66321     583.6902     408.1392
   1421.64795     583.0106     407.7895   1421.64795     583.0106     407.7895
   1421.63269     581.9918     407.0093   1421.63269     581.9918     407.0093
   1421.61743     582.1104     406.3261   1421.61743     582.1104     406.3261
   1421.60217     583.1371     405.1745   1421.60217     583.1371     405.1745
   1421.58691     582.5293     404.9984   1421.58691     582.5293     404.9984
   1421.57166     583.3242     403.6821   1421.57166     583.3242     403.6821
   1421.55640     581.4161     403.6535   1421.55640     581.4161     403.6535
   1421.54114     582.1725     402.7132   1421.54114     582.1725     402.7132
   1421.52588     582.6425     401.7868   1421.52588     582.6425     401.7868
   1421.51062     581.5320     401.9686   1421.51062     581.5320     401.9686
   1421.49536     582.0294     400.5001   1421.49536     582.0294     400.5001
   1421.48010     582.5283     400.3036   1421.48010     582.5283     400.3036
   1421.46484     580.9022     399.7060   1421.46484     580.9022     399.7060
   1421.44958     580.7215     398.3509   1421.44958     580.7215     398.3509
   1421.43433     581.9887     397.8066   1421.43433     581.9887     397.8066
   1421.41907     581.4097     396.9547   1421.41907     581.4097     396.9547
   1421.40381     581.3452     396.6154   1421.40381     581.3452     396.6154
   1421.38855     580.4431     395.6450   1421.38855     580.4431     395.6450
   1421.37329     580.6615     395.1868   1421.37329     580.6615     395.1868
   1421.35803     581.1443     394.8341   1421.35803     581.1443     394.8341
   1421.34277     580.5943     392.9594   1421.34277     580.5943     392.9594
   1421.32751     580.6522     393.5462   1421.32751     580.6522     393.5462
   1421.31226     581.2050     392.8210   1421.31226     581.2050     392.8210
   1421.29700     579.7259     392.3477   1421.29700     579.7259     392.3477
   1421.28174     579.2389     391.3271   1421.28174     579.2389     391.3271
   1421.26648     579.8095     390.3930   1421.26648     579.8095     390.3930
   1421.25122     580.5438     389.3979   1421.25122     580.5438     389.3979
   1421.23596     579.0020     388.9446   1421.23596     579.0020     388.9446
   1421.22070     577.4739     387.9749   1421.22070     577.4739     387.9749
   1421.20544     579.7316     387.7188   1421.20544     579.7316     387.7188
   1421.19019     578.9069     386.9637   1421.19019     578.9069     386.9637
   1421.17493     578.8647     386.2932   1421.17493     578.8647     386.2932
   1421.15967     578.3912     385.4214   1421.15967     578.3912     385.4214
   1421.14441     577.9536     385.0547   1421.14441     577.9536     385.0547
   1421.12915     579.0591     384.0840   1421.12915     579.0591     384.0840
   1421.11389     577.6545     383.5583   1421.11389     577.6545     383.5583
   1421.09863     578.6409     382.9013   1421.09863     578.6409     382.9013
   1421.08337     577.6790     382.3592   1421.08337     577.6790     382.3592
   1421.06812     578.3458     381.5686   1421.06812     578.3458     381.5686
   1421.05286     577.7320     380.1931   1421.05286     577.7320     380.1931
   1421.03760     577.0427     380.4808   1421.03760     577.0427     380.4808
   1421.02234     576.5238     379.5856   1421.02234     576.5238     379.5856
   1421.00708     576.7273     379.2161   1421.00708     576.7273     379.2161
   1420.99182     576.6678     378.2127   1420.99182     576.6678     378.2127
   1420.97656     577.0789     377.9236   1420.97656     577.0789     377.9236
   1420.96130     576.9669     376.9807   1420.96130     576.9669     376.9807
   1420.94604     577.3056     376.5005   1420.94604     577.3056     376.5005
   1420.93079     576.4678     376.1062   1420.93079     576.4678     376.1062
   1420.91553     576.6758     374.9252   1420.91553     576.6758     374.9252
   1420.90027     576.0673     374.1829   1420.90027     576.0673     374.1829
   1420.88501     577.3296     373.9998   1420.88501     577.3296     373.9998
   1420.86975     577.0582     372.5823   1420.86975     577.0582     372.5823
   1420.85449     576.4141     372.4781   1420.85449     576.4141     372.4781
   1420.83923     576.3960     371.9955   1420.83923     576.3960     371.9955
   1420.82397     576.5522     371.8270   1420.82397     576.5522     371.8270
   1420.80872     575.8272     371.1017   1420.80872     575.8272     371.1017
   1420.79346     577.5186     369.9484   1420.79346     577.5186     369.9484
   1420.77820     576.2952     369.9120   1420.77820     576.2952     369.9120
   1420.76294     576.3073     368.5922   1420.76294     576.3073     368.5922
   1420.74768     577.0576     369.2528   1420.74768     577.0576     369.2528
   1420.73242     576.5549     368.6384   1420.73242     576.5549     368.6384
   1420.71716     577.5309     368.6079   1420.71716     577.5309     368.6079
   1420.70190     576.9141     368.0806   1420.70190     576.9141     368.0806
   1420.68665     576.8590     367.6214   1420.68665     576.8590     367.6214
   1420.67139     579.9852     367.5294   1420.67139     579.9852     367.5294
   1420.65613     579.4468     366.9388   1420.65613     579.4468     366.9388
   1420.64087     580.4845     367.1776   1420.64087     580.4845     367.1776
   1420.62561     581.8267     367.1437   1420.62561     581.8267     367.1437
   1420.61035     583.0098     367.4807   1420.61035     583.0098     367.4807
   1420.59509     586.2910     369.1660   1420.59509     586.2910     369.1660
   1420.57983     590.8748     371.8997   1420.57983     590.8748     371.8997
   1420.56458     598.9163     375.7863   1420.56458     598.9163     375.7863
   1420.54932     609.1064     381.3557   1420.54932     609.1064     381.3557
   1420.53406     617.3329     385.9615   1420.53406     617.3329     385.9615
   1420.51880     626.9307     391.2253   1420.51880     626.9307     391.2253
   1420.50354     639.4872     397.6179   1420.50354     639.4872     397.6179
   1420.48828     657.0883     408.3001   1420.48828     657.0883     408.3001
   1420.47302     684.9654     424.6591   1420.47302     684.9654     424.6591
   1420.45776     732.6322     452.9433   1420.45776     732.6322     452.9433
   1420.44250     826.7428     509.4134   1420.44250     826.7428     509.4134
   1420.42725    1022.0566     626.6888   1420.42725    1022.0566     626.6888
   1420.41199    1287.5710     786.4343   1420.41199    1287.5710     786.4343
   1420.39673    1561.5876     951.3539   1420.39673    1561.5876     951.3539
   1420.38147    1760.7578    1069.1941   1420.38147    1760.7578    1069.1941
   1420.36621    1854.0168    1122.0792   1420.36621    1854.0168    1122.0792
   1420.35095    1985.9210    1201.2969   1420.35095    1985.9210    1201.2969
   1420.33569    2101.5081    1266.7742   1420.33569    2101.5081    1266.7742
   1420.32043    2002.0092    1205.9363   1420.32043    2002.0092    1205.9363
   1420.30518    1883.1580    1137.9004   1420.30518    1883.1580    1137.9004
   1420.28992    1753.0580    1055.4884   1420.28992    1753.0580    1055.4884
   1420.27466    1253.7871     755.4430   1420.27466    1253.7871     755.4430
   1420.25940     856.5498     521.0465   1420.25940     856.5498     521.0465
   1420.24414     708.8913     431.7404   1420.24414     708.8913     431.7404
   1420.22888     644.7751     392.2450   1420.22888     644.7751     392.2450
   1420.21362     614.0696     373.7994   1420.21362     614.0696     373.7994
   1420.19836     598.1344     363.5659   1420.19836     598.1344     363.5659
   1420.18311     589.4882     357.1839   1420.18311     589.4882     357.1839
   1420.16785     582.9647     353.5481   1420.16785     582.9647     353.5481
   1420.15259     578.3533     350.9535   1420.15259     578.3533     350.9535
   1420.13733     576.3105     348.9092   1420.13733     576.3105     348.9092
   1420.12207     574.4731     347.0367   1420.12207     574.4731     347.0367
   1420.10681     572.3449     345.2060   1420.10681     572.3449     345.2060
   1420.09155     571.0241     343.6456   1420.09155     571.0241     343.6456
   1420.07629     569.1152     342.0279   1420.07629     569.1152     342.0279
   1420.06104     568.3865     341.5826   1420.06104     568.3865     341.5826
   1420.04578     567.1251     340.8366   1420.04578     567.1251     340.8366
   1420.03052     566.8621     340.3968   1420.03052     566.8621     340.3968
   1420.01526     567.6432     339.8216   1420.01526     567.6432     339.8216
   1420.00000     568.2535     340.3609   1420.00000     568.2535     340.3609
   1419.98474     568.8636     340.9002   1419.98474     568.8636     340.9002
   1419.96948     569.5493     338.6331   1419.96948     569.5493     338.6331
   1419.95422     566.7933     337.1007   1419.95422     566.7933     337.1007
   1419.93896     565.7979     335.8378   1419.93896     565.7979     335.8378
   1419.92371     565.5039     335.9355   1419.92371     565.5039     335.9355
   1419.90845     565.7466     335.2589   1419.90845     565.7466     335.2589
   1419.89319     566.0112     334.8936   1419.89319     566.0112     334.8936
   1419.87793     565.3898     334.8235   1419.87793     565.3898     334.8235
   1419.86267     565.5591     333.7968   1419.86267     565.5591     333.7968
   1419.84741     564.8403     333.5517   1419.84741     564.8403     333.5517
   1419.83215     564.4708     333.4920   1419.83215     564.4708     333.4920
   1419.81689     565.6539     332.4218   1419.81689     565.6539     332.4218
   1419.80164     565.4030     332.4638   1419.80164     565.4030     332.4638
   1419.78638     564.8865     331.6849   1419.78638     564.8865     331.6849
   1419.77112     564.7851     330.5771   1419.77112     564.7851     330.5771
   1419.75586     564.3950     330.6596   1419.75586     564.3950     330.6596
   1419.74060     565.2624     330.3883   1419.74060     565.2624     330.3883
   1419.72534     564.3581     329.7279   1419.72534     564.3581     329.7279
   1419.71008     565.0847     328.9614   1419.71008     565.0847     328.9614
   1419.69482     565.3375     329.6017   1419.69482     565.3375     329.6017
   1419.67957     565.2762     329.1094   1419.67957     565.2762     329.1094
   1419.66431     564.0890     328.3351   1419.66431     564.0890     328.3351
   1419.64905     565.3986     328.4722   1419.64905     565.3986     328.4722
   1419.63379     565.8357     328.3161   1419.63379     565.8357     328.3161
   1419.61853     565.6208     327.6799   1419.61853     565.6208     327.6799
   1419.60327     565.4819     327.2575   1419.60327     565.4819     327.2575
   1419.58801     564.8898     327.2028   1419.58801     564.8898     327.2028
   1419.57275     565.4741     326.9964   1419.57275     565.4741     326.9964
   1419.55750     566.2155     326.2218   1419.55750     566.2155     326.2218
   1419.54224     565.8246     325.8708   1419.54224     565.8246     325.8708
   1419.52698     565.7139     325.6931   1419.52698     565.7139     325.6931
   1419.51172     567.0773     325.4280   1419.51172     567.0773     325.4280
   1419.49646     565.9800     325.5255   1419.49646     565.9800     325.5255
   1419.48120     566.2614     325.6022   1419.48120     566.2614     325.6022
   1419.46594     567.4528     325.1569   1419.46594     567.4528     325.1569
   1419.45068     566.6998     324.4176   1419.45068     566.6998     324.4176
   1419.43542     566.3291     324.3573   1419.43542     566.3291     324.3573
   1419.42017     567.0394     324.0425   1419.42017     567.0394     324.0425
   1419.40491     567.1777     324.1310   1419.40491     567.1777     324.1310
   1419.38965     567.4067     323.9937   1419.38965     567.4067     323.9937
   1419.37439     566.3007     324.5392   1419.37439     566.3007     324.5392
   1419.35913     567.7538     323.4636   1419.35913     567.7538     323.4636
   1419.34387     568.4186     323.2912   1419.34387     568.4186     323.2912
   1419.32861     568.0875     323.4063   1419.32861     568.0875     323.4063
   1419.31335     568.6887     322.7159   1419.31335     568.6887     322.7159
   1419.29810     567.8140     322.8771   1419.29810     567.8140     322.8771
   1419.28284     568.6491     322.9765   1419.28284     568.6491     322.9765
   1419.26758     570.0068     322.8818   1419.26758     570.0068     322.8818
   1419.25232     569.6078     321.8224   1419.25232     569.6078     321.8224
   1419.23706     569.5367     322.8507   1419.23706     569.5367     322.8507
   1419.22180     569.7651     322.3625   1419.22180     569.7651     322.3625
   1419.20654     570.0549     322.2325   1419.20654     570.0549     322.2325
   1419.19128     570.5691     322.3542   1419.19128     570.5691     322.3542
   1419.17603     571.0444     321.5479   1419.17603     571.0444     321.5479
   1419.16077     571.3865     321.7565   1419.16077     571.3865     321.7565
   1419.14551     570.6589     321.5507   1419.14551     570.6589     321.5507
   1419.13025     571.4748     321.7126   1419.13025     571.4748     321.7126
   1419.11499     571.8152     321.8213   1419.11499     571.8152     321.8213
   1419.09973     572.1857     321.5330   1419.09973     572.1857     321.5330
   1419.08447     572.7346     322.1844   1419.08447     572.7346     322.1844
   1419.06921     572.9338     321.4659   1419.06921     572.9338     321.4659
   1419.05396     573.1490     321.2523   1419.05396     573.1490     321.2523
   1419.03870     573.4361     321.4756   1419.03870     573.4361     321.4756
   1419.02344     573.4606     322.1479   1419.02344     573.4606     322.1479
   1419.00818     573.7864     321.9527   1419.00818     573.7864     321.9527
   1418.99292     574.0776     321.5186   1418.99292     574.0776     321.5186
   1418.97766     574.2147     321.5046   1418.97766     574.2147     321.5046
   1418.96240     574.3408     321.2819   1418.96240     574.3408     321.2819
   1418.94714     575.6680     321.3029   1418.94714     575.6680     321.3029
   1418.93188     575.9830     321.6861   1418.93188     575.9830     321.6861
   1418.91663     575.7511     321.7214   1418.91663     575.7511     321.7214
   1418.90137     576.1701     321.6456   1418.90137     576.1701     321.6456
   1418.88611     576.5364     321.8723   1418.88611     576.5364     321.8723
   1418.87085     577.5231     321.9933   1418.87085     577.5231     321.9933
   1418.85559     578.0023     322.4156   1418.85559     578.0023     322.4156
   1418.84033     578.1620     322.2861   1418.84033     578.1620     322.2861
   1418.82507     578.6578     322.4356   1418.82507     578.6578     322.4356
   1418.80981     578.6580     322.7892   1418.80981     578.6580     322.7892
   1418.79456     578.1246     322.0275   1418.79456     578.1246     322.0275
   1418.77930     579.6763     322.7522   1418.77930     579.6763     322.7522
   1418.76404     580.1030     322.1919   1418.76404     580.1030     322.1919
   1418.74878     580.2676     323.0170   1418.74878     580.2676     323.0170
   1418.73352     580.8223     322.9085   1418.73352     580.8223     322.9085
   1418.71826     580.5009     323.1956   1418.71826     580.5009     323.1956
   1418.70300     581.4702     323.3599   1418.70300     581.4702     323.3599
   1418.68774     582.2409     323.7171   1418.68774     582.2409     323.7171
   1418.67249     582.5110     323.7766   1418.67249     582.5110     323.7766
   1418.65723     582.7091     323.7869   1418.65723     582.7091     323.7869
   1418.64197     583.0963     324.2335   1418.64197     583.0963     324.2335
   1418.62671     583.8714     324.0839   1418.62671     583.8714     324.0839
   1418.61145     584.0556     324.9224   1418.61145     584.0556     324.9224
   1418.59619     585.1451     324.2833   1418.59619     585.1451     324.2833
   1418.58093     585.3887     325.0371   1418.58093     585.3887     325.0371
   1418.56567     586.6748     325.1459   1418.56567     586.6748     325.1459
   1418.55042     586.4023     325.8927   1418.55042     586.4023     325.8927
   1418.53516     586.8708     325.6453   1418.53516     586.8708     325.6453
   1418.51990     587.7067     326.2576   1418.51990     587.7067     326.2576
   1418.50464     587.3497     326.6774   1418.50464     587.3497     326.6774
   1418.48938     589.5513     326.5220   1418.48938     589.5513     326.5220
   1418.47412     589.1104     326.5607   1418.47412     589.1104     326.5607
   1418.45886     588.8138     327.5165   1418.45886     588.8138     327.5165
   1418.44360     589.3821     327.5694   1418.44360     589.3821     327.5694
   1418.42834     590.7582     327.7411   1418.42834     590.7582     327.7411
   1418.41309     590.9315     328.3720   1418.41309     590.9315     328.3720
   1418.39783     591.0492     328.3324   1418.39783     591.0492     328.3324
   1418.38257     592.0555     328.1596   1418.38257     592.0555     328.1596
   1418.36731     593.0425     328.5658   1418.36731     593.0425     328.5658
   1418.35205     593.0279     329.6019   1418.35205     593.0279     329.6019
   1418.33679     593.8676     329.8190   1418.33679     593.8676     329.8190
   1418.32153     594.3320     330.3336   1418.32153     594.3320     330.3336
   1418.30627     594.3945     330.6854   1418.30627     594.3945     330.6854
   1418.29102     595.2225     330.7715   1418.29102     595.2225     330.7715
   1418.27576     596.3597     331.1239   1418.27576     596.3597     331.1239
   1418.26050     595.9834     332.3036   1418.26050     595.9834     332.3036
   1418.24524     597.0359     332.3084   1418.24524     597.0359     332.3084
   1418.22998     597.8121     332.2045   1418.22998     597.8121     332.2045
   1418.21472     598.0403     333.1348   1418.21472     598.0403     333.1348
   1418.19946     598.8521     332.9847   1418.19946     598.8521     332.9847
   1418.18420     600.4742     333.9021   1418.18420     600.4742     333.9021
   1418.16895     600.4392     334.3824   1418.16895     600.4392     334.3824
   1418.15369     600.8875     335.0649   1418.15369     600.8875     335.0649
   1418.13843     601.3848     335.1137   1418.13843     601.3848     335.1137
   1418.12317     602.5530     335.9571   1418.12317     602.5530     335.9571
   1418.10791     603.5385     336.8495   1418.10791     603.5385     336.8495
   1418.09265     602.5790     337.2612   1418.09265     602.5790     337.2612
   1418.07739     602.6137     337.1785   1418.07739     602.6137     337.1785
   1418.06213     604.2213     338.1741   1418.06213     604.2213     338.1741
   1418.04688     604.9056     338.3075   1418.04688     604.9056     338.3075
   1418.03162     606.8049     339.7055   1418.03162     606.8049     339.7055
   1418.01636     605.2286     339.3432   1418.01636     605.2286     339.3432
   1418.00110     606.7343     340.1300   1418.00110     606.7343     340.1300
   1417.98584     607.7913     340.5447   1417.98584     607.7913     340.5447
   1417.97058     608.0355     341.6548   1417.97058     608.0355     341.6548
   1417.95532     608.8486     342.2536   1417.95532     608.8486     342.2536
   1417.94006     610.1093     341.8487   1417.94006     610.1093     341.8487
   1417.92480     611.5100     342.9220   1417.92480     611.5100     342.9220
   1417.90955     611.1642     343.9308   1417.90955     611.1642     343.9308
   1417.89429     611.3174     344.1245   1417.89429     611.3174     344.1245
   1417.87903     612.2472     344.4004   1417.87903     612.2472     344.4004
   1417.86377     612.8645     345.2589   1417.86377     612.8645     345.2589
   1417.84851     614.3077     345.5187   1417.84851     614.3077     345.5187
   1417.83325     613.2484     346.4248   1417.83325     613.2484     346.4248
   1417.81799     614.7051     347.2113   1417.81799     614.7051     347.2113
   1417.80273     615.6112     348.4247   1417.80273     615.6112     348.4247
   1417.78748     616.3522     348.6109   1417.78748     616.3522     348.6109
   1417.77222     615.8760     349.7357   1417.77222     615.8760     349.7357
   1417.75696     617.2423     350.0541   1417.75696     617.2423     350.0541
   1417.74170     617.9806     350.7388   1417.74170     617.9806     350.7388
   1417.72644     619.5201     351.7721   1417.72644     619.5201     351.7721
   1417.71118     620.3273     352.0079   1417.71118     620.3273     352.0079
   1417.69592     619.9054     352.8735   1417.69592     619.9054     352.8735
   1417.68066     621.0846     352.9350   1417.68066     621.0846     352.9350
   1417.66541     621.1597     354.1012   1417.66541     621.1597     354.1012
   1417.65015     621.8549     354.7715   1417.65015     621.8549     354.7715
   1417.63489     622.3575     355.2311   1417.63489     622.3575     355.2311
   1417.61963     622.3913     356.4612   1417.61963     622.3913     356.4612
   1417.60437     624.0543     357.6205   1417.60437     624.0543     357.6205
   1417.58911     625.5358     357.9344   1417.58911     625.5358     357.9344
   1417.57385     625.1253     358.5984   1417.57385     625.1253     358.5984
   1417.55859     626.4144     359.5970   1417.55859     626.4144     359.5970
   1417.54333     626.8312     360.4538   1417.54333     626.8312     360.4538
   1417.52808     627.5571     361.1989   1417.52808     627.5571     361.1989
   1417.51282     628.1014     362.2381   1417.51282     628.1014     362.2381
   1417.49756     627.7633     362.7606   1417.49756     627.7633     362.7606
   1417.48230     629.1097     363.1245   1417.48230     629.1097     363.1245
   1417.46704     629.7755     365.0364   1417.46704     629.7755     365.0364
   1417.45178     630.7612     364.5430   1417.45178     630.7612     364.5430
   1417.43652     630.4609     365.4476   1417.43652     630.4609     365.4476
   1417.42126     631.0654     366.7977   1417.42126     631.0654     366.7977
   1417.40601     631.5627     367.4851   1417.40601     631.5627     367.4851
   1417.39075     632.2687     367.4739   1417.39075     632.2687     367.4739
   1417.37549     633.9183     368.8681   1417.37549     633.9183     368.8681
   1417.36023     632.8525     369.5168   1417.36023     632.8525     369.5168
   1417.34497     634.4633     370.6416   1417.34497     634.4633     370.6416
   1417.32971     635.3587     371.2781   1417.32971     635.3587     371.2781
   1417.31445     635.9741     372.0265   1417.31445     635.9741     372.0265
   1417.29919     635.8577     373.1816   1417.29919     635.8577     373.1816
   1417.28394     637.7419     374.7411   1417.28394     637.7419     374.7411
   1417.26868     636.9937     374.2993   1417.26868     636.9937     374.2993
   1417.25342     638.0663     376.1857   1417.25342     638.0663     376.1857
   1417.23816     639.1410     376.0500   1417.23816     639.1410     376.0500
   1417.22290     639.2514     377.8471   1417.22290     639.2514     377.8471
   1417.20764     639.5084     378.0297   1417.20764     639.5084     378.0297
   1417.19238     640.5303     378.4959   1417.19238     640.5303     378.4959
   1417.17712     640.5184     379.0657   1417.17712     640.5184     379.0657
   1417.16187     640.6910     380.6467   1417.16187     640.6910     380.6467
   1417.14661     641.1550     381.5592   1417.14661     641.1550     381.5592
   1417.13135     642.0417     381.2815   1417.13135     642.0417     381.2815
   1417.11609     643.0758     383.1885   1417.11609     643.0758     383.1885
   1417.10083     643.2056     384.1792   1417.10083     643.2056     384.1792
   1417.08557     642.9719     385.0091   1417.08557     642.9719     385.0091
   1417.07031     644.8342     385.3148   1417.07031     644.8342     385.3148
   1417.05505     645.5253     386.4452   1417.05505     645.5253     386.4452
   1417.03979     644.7332     387.1411   1417.03979     644.7332     387.1411
   1417.02454     645.5443     388.6355   1417.02454     645.5443     388.6355
   1417.00928     646.4855     388.6221   1417.00928     646.4855     388.6221
   1416.99402     646.0842     389.4728   1416.99402     646.0842     389.4728
   1416.97876     646.5193     390.6168   1416.97876     646.5193     390.6168
   1416.96350     647.5651     391.6254   1416.96350     647.5651     391.6254
   1416.94824     647.5168     392.8179   1416.94824     647.5168     392.8179
   1416.93298     647.6769     393.3766   1416.93298     647.6769     393.3766
   1416.91772     647.9176     394.0785   1416.91772     647.9176     394.0785
   1416.90247     648.4932     394.6846   1416.90247     648.4932     394.6846
   1416.88721     648.3954     395.9140   1416.88721     648.3954     395.9140
   1416.87195     649.2558     395.8647   1416.87195     649.2558     395.8647
   1416.85669     650.3482     397.0041   1416.85669     650.3482     397.0041
   1416.84143     649.8527     396.7090   1416.84143     649.8527     396.7090
   1416.82617     649.2589     398.6430   1416.82617     649.2589     398.6430
   1416.81091     649.5428     399.3543   1416.81091     649.5428     399.3543
   1416.79565     651.1608     399.7952   1416.79565     651.1608     399.7952
   1416.78040     652.0791     400.5845   1416.78040     652.0791     400.5845
   1416.76514     651.7514     401.8286   1416.76514     651.7514     401.8286
   1416.74988     652.1226     402.1354   1416.74988     652.1226     402.1354
   1416.73462     650.9747     403.0520   1416.73462     650.9747     403.0520
   1416.71936     651.9619     403.3683   1416.71936     651.9619     403.3683
   1416.70410     651.8267     404.0755   1416.70410     651.8267     404.0755
   1416.68884     651.9677     405.0171   1416.68884     651.9677     405.0171
   1416.67358     653.3754     405.4016   1416.67358     653.3754     405.4016
   1416.65833     651.9489     406.2763   1416.65833     651.9489     406.2763
   1416.64307     651.9683     407.0061   1416.64307     651.9683     407.0061
   1416.62781     653.1908     407.8110   1416.62781     653.1908     407.8110
   1416.61255     653.3068     408.4814   1416.61255     653.3068     408.4814
   1416.59729     652.7885     408.4341   1416.59729     652.7885     408.4341
   1416.58203     653.4485     408.9978   1416.58203     653.4485     408.9978
   1416.56677     654.2853     409.2534   1416.56677     654.2853     409.2534
   1416.55151     653.0567     410.4810   1416.55151     653.0567     410.4810
   1416.53625     653.1940     410.6852   1416.53625     653.1940     410.6852
   1416.52100     653.6359     411.7744   1416.52100     653.6359     411.7744
   1416.50574     653.9129     411.6013   1416.50574     653.9129     411.6013
   1416.49048     653.4048     412.5661   1416.49048     653.4048     412.5661
   1416.47522     652.8778     413.2756   1416.47522     652.8778     413.2756
   1416.45996     653.8715     413.4200   1416.45996     653.8715     413.4200
   1416.44470     653.6690     414.5154   1416.44470     653.6690     414.5154
   1416.42944     653.8073     414.1470   1416.42944     653.8073     414.1470
   1416.41418     652.4724     415.1003   1416.41418     652.4724     415.1003
   1416.39893     653.8251     414.8770   1416.39893     653.8251     414.8770
   1416.38367     652.1125     415.8771   1416.38367     652.1125     415.8771
   1416.36841     652.9687     416.0261   1416.36841     652.9687     416.0261
   1416.35315     653.7670     416.9648   1416.35315     653.7670     416.9648
   1416.33789     653.5082     417.2032   1416.33789     653.5082     417.2032
   1416.32263     652.9436     418.0956   1416.32263     652.9436     418.0956
   1416.30737     652.3596     417.2806   1416.30737     652.3596     417.2806
   1416.29211     652.6694     417.9980   1416.29211     652.6694     417.9980
   1416.27686     651.7665     418.8279   1416.27686     651.7665     418.8279
   1416.26160     651.9075     418.9115   1416.26160     651.9075     418.9115
   1416.24634     651.5098     419.2029   1416.24634     651.5098     419.2029
   1416.23108     651.3510     419.5258   1416.23108     651.3510     419.5258
   1416.21582     650.9792     419.8528   1416.21582     650.9792     419.8528
   1416.20056     650.9174     419.9335   1416.20056     650.9174     419.9335
   1416.18530     651.3730     420.4234   1416.18530     651.3730     420.4234
   1416.17004     650.2023     420.6945   1416.17004     650.2023     420.6945
   1416.15479     650.2477     420.1967   1416.15479     650.2477     420.1967
   1416.13953     650.6022     420.6640   1416.13953     650.6022     420.6640
   1416.12427     649.5082     421.4702   1416.12427     649.5082     421.4702
   1416.10901     648.1956     421.3862   1416.10901     648.1956     421.3862
   1416.09375     648.6866     421.3817   1416.09375     648.6866     421.3817
   1416.07849     649.3593     421.4492   1416.07849     649.3593     421.4492
   1416.06323     647.6013     422.2227   1416.06323     647.6013     422.2227
   1416.04797     649.0417     421.8633   1416.04797     649.0417     421.8633
   1416.03271     647.6487     421.9275   1416.03271     647.6487     421.9275
   1416.01746     646.9979     422.1743   1416.01746     646.9979     422.1743
   1416.00220     646.8573     422.1691   1416.00220     646.8573     422.1691
   1415.98694     646.7289     421.8665   1415.98694     646.7289     421.8665
   1415.97168     645.7120     422.2204   1415.97168     645.7120     422.2204
   1415.95642     645.5058     422.4888   1415.95642     645.5058     422.4888
   1415.94116     645.7916     423.2332   1415.94116     645.7916     423.2332
   1415.92590     645.0131     422.2509   1415.92590     645.0131     422.2509
   1415.91064     645.1548     422.7360   1415.91064     645.1548     422.7360
   1415.89539     643.9407     422.6698   1415.89539     643.9407     422.6698
   1415.88013     643.7099     423.0824   1415.88013     643.7099     423.0824
   1415.86487     643.8597     423.2000   1415.86487     643.8597     423.2000
   1415.84961     642.2992     423.0390   1415.84961     642.2992     423.0390
   1415.83435     642.0483     422.9641   1415.83435     642.0483     422.9641
   1415.81909     641.1227     422.8946   1415.81909     641.1227     422.8946
   1415.80383     640.8184     423.0257   1415.80383     640.8184     423.0257
   1415.78857     640.2529     422.9858   1415.78857     640.2529     422.9858
   1415.77332     640.2875     423.1290   1415.77332     640.2875     423.1290
   1415.75806     639.4733     422.9648   1415.75806     639.4733     422.9648
   1415.74280     638.1468     422.8880   1415.74280     638.1468     422.8880
   1415.72754     637.7914     422.7570   1415.72754     637.7914     422.7570
   1415.71228     637.2400     423.0773   1415.71228     637.2400     423.0773
   1415.69702     636.5853     422.5735   1415.69702     636.5853     422.5735
   1415.68176     636.0687     422.6911   1415.68176     636.0687     422.6911
   1415.66650     636.1517     423.3015   1415.66650     636.1517     423.3015
   1415.65125     634.5466     421.7948   1415.65125     634.5466     421.7948
   1415.63599     634.6674     422.2905   1415.63599     634.6674     422.2905
   1415.62073     633.6396     422.1408   1415.62073     633.6396     422.1408
   1415.60547     632.7934     421.5436   1415.60547     632.7934     421.5436
   1415.59021     632.1580     422.4642   1415.59021     632.1580     422.4642
   1415.57495     631.2041     422.5548   1415.57495     631.2041     422.5548
   1415.55969     630.7314     422.2060   1415.55969     630.7314     422.2060
   1415.54443     629.9670     421.5529   1415.54443     629.9670     421.5529
   1415.52917     628.9178     421.7329   1415.52917     628.9178     421.7329
   1415.51392     627.2725     421.5669   1415.51392     627.2725     421.5669
   1415.49866     627.9340     421.4803   1415.49866     627.9340     421.4803
   1415.48340     627.4554     421.1513   1415.48340     627.4554     421.1513
   1415.46814     626.6651     421.7689   1415.46814     626.6651     421.7689
   1415.45288     626.1414     420.7435   1415.45288     626.1414     420.7435
   1415.43762     625.7312     420.9816   1415.43762     625.7312     420.9816
   1415.42236     624.0629     420.9332   1415.42236     624.0629     420.9332
   1415.40710     623.1688     421.2017   1415.40710     623.1688     421.2017
   1415.39185     622.5283     420.8406   1415.39185     622.5283     420.8406
   1415.37659     623.3392     420.0979   1415.37659     623.3392     420.0979
   1415.36133     620.8638     420.7473   1415.36133     620.8638     420.7473
   1415.34607     620.2142     419.6992   1415.34607     620.2142     419.6992
   1415.33081     618.8134     420.5474   1415.33081     618.8134     420.5474
   1415.31555     617.5450     419.3285   1415.31555     617.5450     419.3285
   1415.30029     617.1866     419.1436   1415.30029     617.1866     419.1436
   1415.28503     615.5012     418.6549   1415.28503     615.5012     418.6549
   1415.26978     615.2872     418.2977   1415.26978     615.2872     418.2977
   1415.25452     615.1827     418.1958   1415.25452     615.1827     418.1958
   1415.23926     613.5981     417.8983   1415.23926     613.5981     417.8983
   1415.22400     612.9354     417.6320   1415.22400     612.9354     417.6320
   1415.20874     610.0892     416.9510   1415.20874     610.0892     416.9510
   1415.19348     610.1876     417.6610   1415.19348     610.1876     417.6610
   1415.17822     609.0717     417.6170   1415.17822     609.0717     417.6170
   1415.16296     608.1934     417.5417   1415.16296     608.1934     417.5417
   1415.14771     607.4174     416.0030   1415.14771     607.4174     416.0030
   1415.13245     606.9653     415.5772   1415.13245     606.9653     415.5772
   1415.11719     604.9974     415.6159   1415.11719     604.9974     415.6159
   1415.10193     604.0652     415.7146   1415.10193     604.0652     415.7146
   1415.08667     603.2070     415.2823   1415.08667     603.2070     415.2823
   1415.07141     602.0746     414.6006   1415.07141     602.0746     414.6006
   1415.05615     600.0718     414.1323   1415.05615     600.0718     414.1323
   1415.04089     599.8381     414.0724   1415.04089     599.8381     414.0724
   1415.02563     598.9631     413.6597   1415.02563     598.9631     413.6597
   1415.01038     597.2350     413.0847   1415.01038     597.2350     413.0847
   1414.99512     596.3417     412.3621   1414.99512     596.3417     412.3621
   1414.97986     595.7169     412.6603   1414.97986     595.7169     412.6603
   1414.96460     593.5891     411.6859   1414.96460     593.5891     411.6859
   1414.94934     592.3760     411.3372   1414.94934     592.3760     411.3372
   1414.93408     591.2573     410.7476   1414.93408     591.2573     410.7476
   1414.91882     590.3845     410.0804   1414.91882     590.3845     410.0804
   1414.90356     588.4623     409.7432   1414.90356     588.4623     409.7432
   1414.88831     588.0942     409.0130   1414.88831     588.0942     409.0130
   1414.87305     586.0064     407.8969   1414.87305     586.0064     407.8969
   1414.85779     584.3132     407.9440   1414.85779     584.3132     407.9440
   1414.84253     582.9165     407.2705   1414.84253     582.9165     407.2705
   1414.82727     582.7250     406.9287   1414.82727     582.7250     406.9287
   1414.81201     580.6201     406.0638   1414.81201     580.6201     406.0638
   1414.79675     579.2123     405.5368   1414.79675     579.2123     405.5368
   1414.78149     576.5786     405.1372   1414.78149     576.5786     405.1372
   1414.76624     576.9542     404.8578   1414.76624     576.9542     404.8578
   1414.75098     574.7317     403.9220   1414.75098     574.7317     403.9220
   1414.73572     573.2979     403.1320   1414.73572     573.2979     403.1320
   1414.72046     571.9370     402.9947   1414.72046     571.9370     402.9947
   1414.70520     569.9611     401.8305   1414.70520     569.9611     401.8305
   1414.68994     568.8232     401.0303   1414.68994     568.8232     401.0303
   1414.67468     567.6453     400.7668   1414.67468     567.6453     400.7668
   1414.65942     566.6558     399.7857   1414.65942     566.6558     399.7857
   1414.64417     565.9503     398.8526   1414.64417     565.9503     398.8526
   1414.62891     562.7610     397.6509   1414.62891     562.7610     397.6509
   1414.61365     561.1768     397.3532   1414.61365     561.1768     397.3532
   1414.59839     560.1738     397.0378   1414.59839     560.1738     397.0378
   1414.58313     558.3214     396.6577   1414.58313     558.3214     396.6577
   1414.56787     556.9152     395.6338   1414.56787     556.9152     395.6338
   1414.55261     554.5943     394.7004   1414.55261     554.5943     394.7004
   1414.53735     553.9613     393.5501   1414.53735     553.9613     393.5501
   1414.52209     551.6469     392.9529   1414.52209     551.6469     392.9529
   1414.50684     549.7514     391.8018   1414.50684     549.7514     391.8018
   1414.49158     547.8767     390.8198   1414.49158     547.8767     390.8198
   1414.47632     546.7240     390.0428   1414.47632     546.7240     390.0428
   1414.46106     544.1309     389.8048   1414.46106     544.1309     389.8048
   1414.44580     543.1027     388.4530   1414.44580     543.1027     388.4530
   1414.43054     540.4661     387.5307   1414.43054     540.4661     387.5307
   1414.41528     540.4172     386.5150   1414.41528     540.4172     386.5150
   1414.40002     537.7746     385.7723   1414.40002     537.7746     385.7723
   1414.38477     536.1325     384.5313   1414.38477     536.1325     384.5313
   1414.36951     534.3621     383.7573   1414.36951     534.3621     383.7573
   1414.35425     531.6572     381.8821   1414.35425     531.6572     381.8821
   1414.33899     529.9290     381.9249   1414.33899     529.9290     381.9249
   1414.32373     527.9481     381.1926   1414.32373     527.9481     381.1926
   1414.30847     525.4968     379.6703   1414.30847     525.4968     379.6703
   1414.29321     524.3677     378.9200   1414.29321     524.3677     378.9200
   1414.27795     522.3873     378.0148   1414.27795     522.3873     378.0148
   1414.26270     520.2296     376.0395   1414.26270     520.2296     376.0395
   1414.24744     518.7367     375.4540   1414.24744     518.7367     375.4540
   1414.23218     516.5394     374.0712   1414.23218     516.5394     374.0712
   1414.21692     514.5484     373.3991   1414.21692     514.5484     373.3991
   1414.20166     512.7192     371.7537   1414.20166     512.7192     371.7537
   1414.18640     510.3183     370.8038   1414.18640     510.3183     370.8038
   1414.17114     508.3066     370.1662   1414.17114     508.3066     370.1662
   1414.15588     505.3529     369.2718   1414.15588     505.3529     369.2718
   1414.14062     503.9901     367.3307   1414.14062     503.9901     367.3307
   1414.12537     502.7044     366.7735   1414.12537     502.7044     366.7735
   1414.11011     499.6333     365.3962   1414.11011     499.6333     365.3962
   1414.09485     498.0158     364.4990   1414.09485     498.0158     364.4990
   1414.07959     495.0175     363.0865   1414.07959     495.0175     363.0865
   1414.06433     493.4884     362.2562   1414.06433     493.4884     362.2562
   1414.04907     492.2112     360.6148   1414.04907     492.2112     360.6148
   1414.03381     489.8155     359.4586   1414.03381     489.8155     359.4586
   1414.01855     487.7754     358.5074   1414.01855     487.7754     358.5074
   1414.00330     506.4747     363.8286   1414.00330     506.4747     363.8286
   1413.98804     485.0605     355.8893   1413.98804     485.0605     355.8893
   1413.97278     480.8862     354.6513   1413.97278     480.8862     354.6513
   1413.95752     478.5175     352.6843   1413.95752     478.5175     352.6843
   1413.94226     476.3839     351.7718   1413.94226     476.3839     351.7718
   1413.92700     473.7697     350.7813   1413.92700     473.7697     350.7813
   1413.91174     471.5397     349.5066   1413.91174     471.5397     349.5066
   1413.89648     469.5186     348.2673   1413.89648     469.5186     348.2673
   1413.88123     467.3476     346.8580   1413.88123     467.3476     346.8580
   1413.86597     464.7418     345.2246   1413.86597     464.7418     345.2246
   1413.85071     462.8859     344.1123   1413.85071     462.8859     344.1123
   1413.83545     460.4287     342.0912   1413.83545     460.4287     342.0912
   1413.82019     457.8855     341.7485   1413.82019     457.8855     341.7485
   1413.80493     456.5327     340.5882   1413.80493     456.5327     340.5882
   1413.78967     453.5795     339.1496   1413.78967     453.5795     339.1496
   1413.77441     451.0759     337.4985   1413.77441     451.0759     337.4985
   1413.75916     448.7003     336.0740   1413.75916     448.7003     336.0740
   1413.74390     446.9056     334.8300   1413.74390     446.9056     334.8300
   1413.72864     444.5054     333.8183   1413.72864     444.5054     333.8183
   1413.71338     441.4721     331.4738   1413.71338     441.4721     331.4738
   1413.69812     439.6603     330.6871   1413.69812     439.6603     330.6871
   1413.68286     437.3649     329.3850   1413.68286     437.3649     329.3850
   1413.66760     435.2550     328.5441   1413.66760     435.2550     328.5441
   1413.65234     432.3980     327.5672   1413.65234     432.3980     327.5672
   1413.63708     430.7488     325.5677   1413.63708     430.7488     325.5677
   1413.62183     428.1874     324.3758   1413.62183     428.1874     324.3758
   1413.60657     426.0701     322.9182   1413.60657     426.0701     322.9182
   1413.59131     424.2021     321.9822   1413.59131     424.2021     321.9822
   1413.57605     421.3159     320.7365   1413.57605     421.3159     320.7365
   1413.56079     418.9823     318.6148   1413.56079     418.9823     318.6148
   1413.54553     417.3257     316.8906   1413.54553     417.3257     316.8906
   1413.53027     414.1738     316.1619   1413.53027     414.1738     316.1619
   1413.51501     413.0044     314.9285   1413.51501     413.0044     314.9285
   1413.49976     410.0108     313.8145   1413.49976     410.0108     313.8145
   1413.48450     407.6919     312.3803   1413.48450     407.6919     312.3803
   1413.46924     405.4667     310.7216   1413.46924     405.4667     310.7216
   1413.45398     403.7299     310.1502   1413.45398     403.7299     310.1502
   1413.43872     401.4903     308.5485   1413.43872     401.4903     308.5485
   1413.42346     398.3741     307.2366   1413.42346     398.3741     307.2366
   1413.40820     396.9695     305.6338   1413.40820     396.9695     305.6338
   1413.39294     394.6528     304.4734   1413.39294     394.6528     304.4734
   1413.37769     392.5896     303.2298   1413.37769     392.5896     303.2298
   1413.36243     389.9996     301.9811   1413.36243     389.9996     301.9811
   1413.34717     387.3618     300.9263   1413.34717     387.3618     300.9263
   1413.33191     385.9680     299.7541   1413.33191     385.9680     299.7541
   1413.31665     383.3225     298.2500   1413.31665     383.3225     298.2500
   1413.30139     380.9726     297.2058   1413.30139     380.9726     297.2058
   1413.28613     379.5907     295.2766   1413.28613     379.5907     295.2766
   1413.27087     377.1345     294.6727   1413.27087     377.1345     294.6727
   1413.25562     375.4731     293.0005   1413.25562     375.4731     293.0005
   1413.24036     372.7372     292.3737   1413.24036     372.7372     292.3737
   1413.22510     371.1953     291.1650   1413.22510     371.1953     291.1650
   1413.20984     369.7650     290.1748   1413.20984     369.7650     290.1748
   1413.19458     367.1465     289.0386   1413.19458     367.1465     289.0386
   1413.17932     364.8969     287.4827   1413.17932     364.8969     287.4827
   1413.16406     363.6407     286.7724   1413.16406     363.6407     286.7724
   1413.14880     361.7858     285.6677   1413.14880     361.7858     285.6677
   1413.13354     359.0513     284.5392   1413.13354     359.0513     284.5392
   1413.11829     357.2869     283.6898   1413.11829     357.2869     283.6898
   1413.10303     355.5774     282.1818   1413.10303     355.5774     282.1818
   1413.08777     354.2726     281.7519   1413.08777     354.2726     281.7519
   1413.07251     351.8948     280.7090   1413.07251     351.8948     280.7090
   1413.05725     350.1927     280.1569   1413.05725     350.1927     280.1569
   1413.04199     348.4483     278.9523   1413.04199     348.4483     278.9523
   1413.02673     346.3299     277.8369   1413.02673     346.3299     277.8369
   1413.01147     344.7145     277.1103   1413.01147     344.7145     277.1103
   1412.99622     343.5146     276.2552   1412.99622     343.5146     276.2552
   1412.98096     341.0284     275.4388   1412.98096     341.0284     275.4388
   1412.96570     340.0071     274.8659   1412.96570     340.0071     274.8659
   1412.95044     338.7145     274.2130   1412.95044     338.7145     274.2130
   1412.93518     336.5391     273.6053   1412.93518     336.5391     273.6053
   1412.91992     335.2807     272.6673   1412.91992     335.2807     272.6673
   1412.90466     333.4863     271.7341   1412.90466     333.4863     271.7341
   1412.88940     332.3833     271.5132   1412.88940     332.3833     271.5132
   1412.87415     330.7114     270.4231   1412.87415     330.7114     270.4231
   1412.85889     328.9492     269.9487   1412.85889     328.9492     269.9487
   1412.84363     327.7046     269.7356   1412.84363     327.7046     269.7356
   1412.82837     326.3371     268.3884   1412.82837     326.3371     268.3884
   1412.81311     325.0502     268.5015   1412.81311     325.0502     268.5015
   1412.79785     323.8116     268.3875   1412.79785     323.8116     268.3875
   1412.78259     323.1489     267.7727   1412.78259     323.1489     267.7727
   1412.76733     321.7542     267.2671   1412.76733     321.7542     267.2671
   1412.75208     320.2637     267.0801   1412.75208     320.2637     267.0801
   1412.73682     319.7215     266.4523   1412.73682     319.7215     266.4523
   1412.72156     318.2855     266.6158   1412.72156     318.2855     266.6158
   1412.70630     317.4062     266.2126   1412.70630     317.4062     266.2126
   1412.69104     316.5204     265.9628   1412.69104     316.5204     265.9628
   1412.67578     315.2127     265.7681   1412.67578     315.2127     265.7681
   1412.66052     314.3758     266.2372   1412.66052     314.3758     266.2372
   1412.64526     313.4431     266.2833   1412.64526     313.4431     266.2833
   1412.63000     312.6574     265.9282   1412.63000     312.6574     265.9282
   1412.61475     311.7662     266.1610   1412.61475     311.7662     266.1610
   1412.59949     311.5615     266.1327   1412.59949     311.5615     266.1327
   1412.58423     310.1228     265.9168   1412.58423     310.1228     265.9168
   1412.56897     309.5908     266.4707   1412.56897     309.5908     266.4707
   1412.55371     309.1641     266.4492   1412.55371     309.1641     266.4492
   1412.53845     308.8885     266.9608   1412.53845     308.8885     266.9608
   1412.52319     307.8014     266.7845   1412.52319     307.8014     266.7845
   1412.50793     307.6732     267.2685   1412.50793     307.6732     267.2685
   1412.49268     307.4030     267.7297   1412.49268     307.4030     267.7297
   1412.47742     307.4229     268.1517   1412.47742     307.4229     268.1517
   1412.46216     306.5903     268.1533   1412.46216     306.5903     268.1533
   1412.44690     305.8876     268.8159   1412.44690     305.8876     268.8159
   1412.43164     305.6917     269.2650   1412.43164     305.6917     269.2650
   1412.41638     305.9909     270.2600   1412.41638     305.9909     270.2600
   1412.40112     305.3556     271.0685   1412.40112     305.3556     271.0685
   1412.38586     304.4834     271.8531   1412.38586     304.4834     271.8531
   1412.37061     305.1141     272.7437   1412.37061     305.1141     272.7437
   1412.35535     305.1804     272.6297   1412.35535     305.1804     272.6297
   1412.34009     305.1527     273.8193   1412.34009     305.1527     273.8193
   1412.32483     305.3033     275.2686   1412.32483     305.3033     275.2686
   1412.30957     305.1658     275.7313   1412.30957     305.1658     275.7313
   1412.29431     305.3785     276.5592   1412.29431     305.3785     276.5592
   1412.27905     305.6992     277.7187   1412.27905     305.6992     277.7187
   1412.26379     305.5095     278.5811   1412.26379     305.5095     278.5811
   1412.24854     305.8394     280.2606   1412.24854     305.8394     280.2606
   1412.23328     306.2913     281.1016   1412.23328     306.2913     281.1016
   1412.21802     307.0179     282.0375   1412.21802     307.0179     282.0375
   1412.20276     307.7217     283.3400   1412.20276     307.7217     283.3400