#     FILENAME=!Skynet_57528_lachhhg91_20320_20898.cyb.fits
#     BASENAME=Skynet_57528_lachhhg91_20320_20898
#     SRC_NAME=lachhhg91
#     OBSERVER=hhgmadison16_9500
#     DATE_OBS=2016-05-20T15:05:50.680
#        OBSID=20320
#      SCANNUM=20898
#          MJD=57528.6301
#          UTC=54439
#     SCANTYPE=track
#     DATAMODE=HIRES
#     TUNEFREQ=1420.0000
# Actual_FREQ1=1420.0000
# Actual_FREQ2=1420.0000
#    LO1Tuning=6870.000
#     RFFILTER=1355_1435
#        OBSBW=-15.6250
#        NCHAN=1024 
#        FOCUS=37.0709
#           RA=21:16:13.43
#          DEC=49:03:11.26
#      RA(hrs)=21.270400
#     DEC(deg)=49.053100
#    AZIM(deg)=305.010
#    ELEV(deg)=42.520
#     IFattens=10.00, 9.00
#      WARNING=None
#    TCAL_XL1=7.9635
#    TCAL_YR1=9.1340
#    TCAL_XL2=7.9635
#    TCAL_YR2=9.1340
#     TRX_XL1=11.7060
#     TRX_YR1=11.7060
#     TRX_XL2=11.7060
#     TRX_YR2=11.7060
#        TAVE=1.0000
#Freq1(MHz)          XL1          YR1  Freq2(MHz)          XL2          YR2 

   1427.81250     360.7376     284.2249   1427.81250     360.7376     284.2249
   1427.79724     361.1356     284.7356   1427.79724     361.1356     284.7356
   1427.78198     362.4636     285.5719   1427.78198     362.4636     285.5719
   1427.76672     363.0964     286.1543   1427.76672     363.0964     286.1543
   1427.75146     363.7998     287.2349   1427.75146     363.7998     287.2349
   1427.73621     364.2040     288.3207   1427.73621     364.2040     288.3207
   1427.72095     365.8916     289.3156   1427.72095     365.8916     289.3156
   1427.70569     366.9546     289.7755   1427.70569     366.9546     289.7755
   1427.69043     367.8774     290.5776   1427.69043     367.8774     290.5776
   1427.67517     368.3934     291.6470   1427.67517     368.3934     291.6470
   1427.65991     369.5712     292.7982   1427.65991     369.5712     292.7982
   1427.64465     371.6539     294.3021   1427.64465     371.6539     294.3021
   1427.62939     372.2994     295.0605   1427.62939     372.2994     295.0605
   1427.61414     373.7598     296.1129   1427.61414     373.7598     296.1129
   1427.59888     374.4469     297.4851   1427.59888     374.4469     297.4851
   1427.58362     375.9106     298.5329   1427.58362     375.9106     298.5329
   1427.56836     377.4476     300.0942   1427.56836     377.4476     300.0942
   1427.55310     378.9689     301.2389   1427.55310     378.9689     301.2389
   1427.53784     380.8846     302.2881   1427.53784     380.8846     302.2881
   1427.52258     382.8286     303.5913   1427.52258     382.8286     303.5913
   1427.50732     383.9618     304.7147   1427.50732     383.9618     304.7147
   1427.49207     385.1514     306.7206   1427.49207     385.1514     306.7206
   1427.47681     387.4400     308.0941   1427.47681     387.4400     308.0941
   1427.46155     388.7470     309.5900   1427.46155     388.7470     309.5900
   1427.44629     390.8790     310.7834   1427.44629     390.8790     310.7834
   1427.43103     392.5189     312.5181   1427.43103     392.5189     312.5181
   1427.41577     394.3334     313.9795   1427.41577     394.3334     313.9795
   1427.40051     396.8909     315.0831   1427.40051     396.8909     315.0831
   1427.38525     399.1028     317.4408   1427.38525     399.1028     317.4408
   1427.37000     400.4968     319.0247   1427.37000     400.4968     319.0247
   1427.35474     402.4940     321.0925   1427.35474     402.4940     321.0925
   1427.33948     404.7757     322.1231   1427.33948     404.7757     322.1231
   1427.32422     407.5385     324.1320   1427.32422     407.5385     324.1320
   1427.30896     409.8865     326.0107   1427.30896     409.8865     326.0107
   1427.29370     411.3977     327.6367   1427.29370     411.3977     327.6367
   1427.27844     413.8118     329.4218   1427.27844     413.8118     329.4218
   1427.26318     416.0985     331.7727   1427.26318     416.0985     331.7727
   1427.24792     419.4216     332.7805   1427.24792     419.4216     332.7805
   1427.23267     420.7026     334.9208   1427.23267     420.7026     334.9208
   1427.21741     422.9047     336.2797   1427.21741     422.9047     336.2797
   1427.20215     425.6637     338.7773   1427.20215     425.6637     338.7773
   1427.18689     428.5464     341.2764   1427.18689     428.5464     341.2764
   1427.17163     430.9094     343.1698   1427.17163     430.9094     343.1698
   1427.15637     433.2811     344.7627   1427.15637     433.2811     344.7627
   1427.14111     436.0404     346.8455   1427.14111     436.0404     346.8455
   1427.12585     438.2866     349.0852   1427.12585     438.2866     349.0852
   1427.11060     441.3172     350.4053   1427.11060     441.3172     350.4053
   1427.09534     443.9840     353.0575   1427.09534     443.9840     353.0575
   1427.08008     446.6179     354.5765   1427.08008     446.6179     354.5765
   1427.06482     449.2384     356.3291   1427.06482     449.2384     356.3291
   1427.04956     451.5936     359.6191   1427.04956     451.5936     359.6191
   1427.03430     454.3588     361.2110   1427.03430     454.3588     361.2110
   1427.01904     456.6441     363.2677   1427.01904     456.6441     363.2677
   1427.00378     460.2062     365.3325   1427.00378     460.2062     365.3325
   1426.98853     463.7113     367.9629   1426.98853     463.7113     367.9629
   1426.97327     465.2150     369.8112   1426.97327     465.2150     369.8112
   1426.95801     468.7440     371.6494   1426.95801     468.7440     371.6494
   1426.94275     472.5201     373.9582   1426.94275     472.5201     373.9582
   1426.92749     474.8203     376.5630   1426.92749     474.8203     376.5630
   1426.91223     478.5770     378.8019   1426.91223     478.5770     378.8019
   1426.89697     480.0675     380.7007   1426.89697     480.0675     380.7007
   1426.88171     483.1537     382.4537   1426.88171     483.1537     382.4537
   1426.86646     486.8624     384.9962   1426.86646     486.8624     384.9962
   1426.85120     489.5842     387.2530   1426.85120     489.5842     387.2530
   1426.83594     491.8298     389.6475   1426.83594     491.8298     389.6475
   1426.82068     494.9251     391.8332   1426.82068     494.9251     391.8332
   1426.80542     497.7780     393.8225   1426.80542     497.7780     393.8225
   1426.79016     501.2890     396.2207   1426.79016     501.2890     396.2207
   1426.77490     504.5631     398.6805   1426.77490     504.5631     398.6805
   1426.75964     507.9662     400.3568   1426.75964     507.9662     400.3568
   1426.74438     510.5374     403.4810   1426.74438     510.5374     403.4810
   1426.72913     512.6595     404.5820   1426.72913     512.6595     404.5820
   1426.71387     516.2247     407.2868   1426.71387     516.2247     407.2868
   1426.69861     519.2477     409.8138   1426.69861     519.2477     409.8138
   1426.68335     522.8932     412.0669   1426.68335     522.8932     412.0669
   1426.66809     525.6805     414.4360   1426.66809     525.6805     414.4360
   1426.65283     528.1465     416.5438   1426.65283     528.1465     416.5438
   1426.63757     531.4724     418.6331   1426.63757     531.4724     418.6331
   1426.62231     536.6863     422.5865   1426.62231     536.6863     422.5865
   1426.60706     537.6089     423.4868   1426.60706     537.6089     423.4868
   1426.59180     539.9938     424.9492   1426.59180     539.9938     424.9492
   1426.57654     542.6440     427.4673   1426.57654     542.6440     427.4673
   1426.56128     546.6593     430.3410   1426.56128     546.6593     430.3410
   1426.54602     548.5113     431.8316   1426.54602     548.5113     431.8316
   1426.53076     552.6782     433.8303   1426.53076     552.6782     433.8303
   1426.51550     554.9662     436.0012   1426.51550     554.9662     436.0012
   1426.50024     558.7734     438.9048   1426.50024     558.7734     438.9048
   1426.48499     560.6202     441.4399   1426.48499     560.6202     441.4399
   1426.46973     564.1852     443.9370   1426.46973     564.1852     443.9370
   1426.45447     567.3988     445.0095   1426.45447     567.3988     445.0095
   1426.43921     570.0985     447.0266   1426.43921     570.0985     447.0266
   1426.42395     573.8430     449.6551   1426.42395     573.8430     449.6551
   1426.40869     576.2926     451.8014   1426.40869     576.2926     451.8014
   1426.39343     578.5272     452.8450   1426.39343     578.5272     452.8450
   1426.37817     581.5060     456.3623   1426.37817     581.5060     456.3623
   1426.36292     584.3862     458.7998   1426.36292     584.3862     458.7998
   1426.34766     587.6121     460.4812   1426.34766     587.6121     460.4812
   1426.33240     590.0388     462.4289   1426.33240     590.0388     462.4289
   1426.31714     593.0092     464.4720   1426.31714     593.0092     464.4720
   1426.30188     596.0599     466.5223   1426.30188     596.0599     466.5223
   1426.28662     598.7327     467.9043   1426.28662     598.7327     467.9043
   1426.27136     601.7858     470.7533   1426.27136     601.7858     470.7533
   1426.25610     605.0901     472.3473   1426.25610     605.0901     472.3473
   1426.24084     607.3361     474.9812   1426.24084     607.3361     474.9812
   1426.22559     609.9016     476.4911   1426.22559     609.9016     476.4911
   1426.21033     612.2734     478.4812   1426.21033     612.2734     478.4812
   1426.19507     614.5071     480.7528   1426.19507     614.5071     480.7528
   1426.17981     617.0536     482.6139   1426.17981     617.0536     482.6139
   1426.16455     619.9678     484.8187   1426.16455     619.9678     484.8187
   1426.14929     623.2230     486.5820   1426.14929     623.2230     486.5820
   1426.13403     625.7648     488.3214   1426.13403     625.7648     488.3214
   1426.11877     627.7742     491.1338   1426.11877     627.7742     491.1338
   1426.10352     630.6498     492.8123   1426.10352     630.6498     492.8123
   1426.08826     632.4256     493.9753   1426.08826     632.4256     493.9753
   1426.07300     636.0804     495.3730   1426.07300     636.0804     495.3730
   1426.05774     638.4622     498.0181   1426.05774     638.4622     498.0181
   1426.04248     640.5836     499.8645   1426.04248     640.5836     499.8645
   1426.02722     642.2791     501.3859   1426.02722     642.2791     501.3859
   1426.01196     645.2741     503.1984   1426.01196     645.2741     503.1984
   1425.99670     648.0650     505.3047   1425.99670     648.0650     505.3047
   1425.98145     650.3668     506.2113   1425.98145     650.3668     506.2113
   1425.96619     653.0870     508.6776   1425.96619     653.0870     508.6776
   1425.95093     654.6752     510.7303   1425.95093     654.6752     510.7303
   1425.93567     655.9655     511.2671   1425.93567     655.9655     511.2671
   1425.92041     658.3473     513.9310   1425.92041     658.3473     513.9310
   1425.90515     661.1984     515.6613   1425.90515     661.1984     515.6613
   1425.88989     663.3135     517.2131   1425.88989     663.3135     517.2131
   1425.87463     664.6011     518.4571   1425.87463     664.6011     518.4571
   1425.85938     666.9742     520.2122   1425.85938     666.9742     520.2122
   1425.84412     668.7358     521.7710   1425.84412     668.7358     521.7710
   1425.82886     671.3281     523.8414   1425.82886     671.3281     523.8414
   1425.81360     673.3759     525.3473   1425.81360     673.3759     525.3473
   1425.79834     675.6007     526.2854   1425.79834     675.6007     526.2854
   1425.78308     676.2610     528.0814   1425.78308     676.2610     528.0814
   1425.76782     679.3331     529.7120   1425.76782     679.3331     529.7120
   1425.75256     680.1525     531.1740   1425.75256     680.1525     531.1740
   1425.73730     682.2192     532.5319   1425.73730     682.2192     532.5319
   1425.72205     684.1541     534.8813   1425.72205     684.1541     534.8813
   1425.70679     686.4307     535.8754   1425.70679     686.4307     535.8754
   1425.69153     687.8953     536.7879   1425.69153     687.8953     536.7879
   1425.67627     688.9011     538.4794   1425.67627     688.9011     538.4794
   1425.66101     691.7260     540.1064   1425.66101     691.7260     540.1064
   1425.64575     692.4156     541.5988   1425.64575     692.4156     541.5988
   1425.63049     693.3730     542.8121   1425.63049     693.3730     542.8121
   1425.61523     695.6225     544.7773   1425.61523     695.6225     544.7773
   1425.59998     697.6437     546.4275   1425.59998     697.6437     546.4275
   1425.58472     698.0720     547.1416   1425.58472     698.0720     547.1416
   1425.56946     700.5615     548.3018   1425.56946     700.5615     548.3018
   1425.55420     700.7579     549.8314   1425.55420     700.7579     549.8314
   1425.53894     702.4587     551.7426   1425.53894     702.4587     551.7426
   1425.52368     704.4186     552.5306   1425.52368     704.4186     552.5306
   1425.50842     705.7433     554.2417   1425.50842     705.7433     554.2417
   1425.49316     707.4671     554.8469   1425.49316     707.4671     554.8469
   1425.47791     708.4542     556.3072   1425.47791     708.4542     556.3072
   1425.46265     710.6151     558.0359   1425.46265     710.6151     558.0359
   1425.44739     710.5765     558.2643   1425.44739     710.5765     558.2643
   1425.43213     712.5068     559.8022   1425.43213     712.5068     559.8022
   1425.41687     714.5068     561.8342   1425.41687     714.5068     561.8342
   1425.40161     714.7811     562.0845   1425.40161     714.7811     562.0845
   1425.38635     715.5757     563.1633   1425.38635     715.5757     563.1633
   1425.37109     715.9622     566.0692   1425.37109     715.9622     566.0692
   1425.35583     718.9838     565.4005   1425.35583     718.9838     565.4005
   1425.34058     717.9942     567.6281   1425.34058     717.9942     567.6281
   1425.32532     720.1458     568.5953   1425.32532     720.1458     568.5953
   1425.31006     720.7089     569.9153   1425.31006     720.7089     569.9153
   1425.29480     722.0057     570.2739   1425.29480     722.0057     570.2739
   1425.27954     724.6218     572.1251   1425.27954     724.6218     572.1251
   1425.26428     723.0764     573.0219   1425.26428     723.0764     573.0219
   1425.24902     725.1942     574.3970   1425.24902     725.1942     574.3970
   1425.23376     725.2289     575.4977   1425.23376     725.2289     575.4977
   1425.21851     725.6885     576.2551   1425.21851     725.6885     576.2551
   1425.20325     727.6044     577.3862   1425.20325     727.6044     577.3862
   1425.18799     726.6505     577.8673   1425.18799     726.6505     577.8673
   1425.17273     728.6826     580.4486   1425.17273     728.6826     580.4486
   1425.15747     729.5518     580.4943   1425.15747     729.5518     580.4943
   1425.14221     730.2595     581.6479   1425.14221     730.2595     581.6479
   1425.12695     729.2660     583.5565   1425.12695     729.2660     583.5565
   1425.11169     731.5322     583.9569   1425.11169     731.5322     583.9569
   1425.09644     732.1389     583.8178   1425.09644     732.1389     583.8178
   1425.08118     732.0259     585.4238   1425.08118     732.0259     585.4238
   1425.06592     732.4834     585.7367   1425.06592     732.4834     585.7367
   1425.05066     733.1160     587.9641   1425.05066     733.1160     587.9641
   1425.03540     734.4291     589.3878   1425.03540     734.4291     589.3878
   1425.02014     734.9439     588.8926   1425.02014     734.9439     588.8926
   1425.00488     735.1558     589.9205   1425.00488     735.1558     589.9205
   1424.98962     735.7507     590.8124   1424.98962     735.7507     590.8124
   1424.97437     736.0701     592.2970   1424.97437     736.0701     592.2970
   1424.95911     736.8546     593.4495   1424.95911     736.8546     593.4495
   1424.94385     736.7743     593.5208   1424.94385     736.7743     593.5208
   1424.92859     737.5181     594.9542   1424.92859     737.5181     594.9542
   1424.91333     739.0752     595.0361   1424.91333     739.0752     595.0361
   1424.89807     736.7524     596.8683   1424.89807     736.7524     596.8683
   1424.88281     737.9891     596.9700   1424.88281     737.9891     596.9700
   1424.86755     737.9972     598.0966   1424.86755     737.9972     598.0966
   1424.85229     738.7633     598.9913   1424.85229     738.7633     598.9913
   1424.83704     740.5385     600.5360   1424.83704     740.5385     600.5360
   1424.82178     738.7155     599.7864   1424.82178     738.7155     599.7864
   1424.80652     740.3234     602.2953   1424.80652     740.3234     602.2953
   1424.79126     739.8444     602.9514   1424.79126     739.8444     602.9514
   1424.77600     739.0013     604.0836   1424.77600     739.0013     604.0836
   1424.76074     741.4107     603.5756   1424.76074     741.4107     603.5756
   1424.74548     740.1229     605.1514   1424.74548     740.1229     605.1514
   1424.73022     740.0308     605.2113   1424.73022     740.0308     605.2113
   1424.71497     741.2522     606.2087   1424.71497     741.2522     606.2087
   1424.69971     740.7859     606.9700   1424.69971     740.7859     606.9700
   1424.68445     741.8671     607.0549   1424.68445     741.8671     607.0549
   1424.66919     741.4103     608.7861   1424.66919     741.4103     608.7861
   1424.65393     740.9966     609.2104   1424.65393     740.9966     609.2104
   1424.63867     741.4501     610.4197   1424.63867     741.4501     610.4197
   1424.62341     742.3240     609.9779   1424.62341     742.3240     609.9779
   1424.60815     740.6408     610.8079   1424.60815     740.6408     610.8079
   1424.59290     741.0405     611.4388   1424.59290     741.0405     611.4388
   1424.57764     741.5795     612.2556   1424.57764     741.5795     612.2556
   1424.56238     740.8508     613.2499   1424.56238     740.8508     613.2499
   1424.54712     742.0814     613.5803   1424.54712     742.0814     613.5803
   1424.53186     741.5695     613.8457   1424.53186     741.5695     613.8457
   1424.51660     742.7834     615.8450   1424.51660     742.7834     615.8450
   1424.50134     741.0302     615.3153   1424.50134     741.0302     615.3153
   1424.48608     741.4434     616.0363   1424.48608     741.4434     616.0363
   1424.47083     741.9776     617.1119   1424.47083     741.9776     617.1119
   1424.45557     739.9840     617.1284   1424.45557     739.9840     617.1284
   1424.44031     741.6735     617.4767   1424.44031     741.6735     617.4767
   1424.42505     740.8645     619.0805   1424.42505     740.8645     619.0805
   1424.40979     740.9242     619.1886   1424.40979     740.9242     619.1886
   1424.39453     740.6030     620.1562   1424.39453     740.6030     620.1562
   1424.37927     742.4874     621.2498   1424.37927     742.4874     621.2498
   1424.36401     740.2699     620.6064   1424.36401     740.2699     620.6064
   1424.34875     740.7714     621.7667   1424.34875     740.7714     621.7667
   1424.33350     740.1182     622.5540   1424.33350     740.1182     622.5540
   1424.31824     740.8784     623.4890   1424.31824     740.8784     623.4890
   1424.30298     739.8539     623.3287   1424.30298     739.8539     623.3287
   1424.28772     742.0771     624.8467   1424.28772     742.0771     624.8467
   1424.27246     740.1870     624.5829   1424.27246     740.1870     624.5829
   1424.25720     740.0533     624.9252   1424.25720     740.0533     624.9252
   1424.24194     741.3439     625.9289   1424.24194     741.3439     625.9289
   1424.22668     740.5983     627.1270   1424.22668     740.5983     627.1270
   1424.21143     739.1309     625.9219   1424.21143     739.1309     625.9219
   1424.19617     739.3760     627.4142   1424.19617     739.3760     627.4142
   1424.18091     738.3265     627.2788   1424.18091     738.3265     627.2788
   1424.16565     737.6145     628.8787   1424.16565     737.6145     628.8787
   1424.15039     739.4008     629.4913   1424.15039     739.4008     629.4913
   1424.13513     738.3153     629.8433   1424.13513     738.3153     629.8433
   1424.11987     737.3010     630.0748   1424.11987     737.3010     630.0748
   1424.10461     737.2645     629.2517   1424.10461     737.2645     629.2517
   1424.08936     735.9648     630.0170   1424.08936     735.9648     630.0170
   1424.07410     736.8653     631.8184   1424.07410     736.8653     631.8184
   1424.05884     738.2609     631.6299   1424.05884     738.2609     631.6299
   1424.04358     737.0014     632.1935   1424.04358     737.0014     632.1935
   1424.02832     736.7971     632.4571   1424.02832     736.7971     632.4571
   1424.01306     736.7668     632.1840   1424.01306     736.7668     632.1840
   1423.99780     735.5414     632.1000   1423.99780     735.5414     632.1000
   1423.98254     735.6194     632.5558   1423.98254     735.6194     632.5558
   1423.96729     736.8016     635.1306   1423.96729     736.8016     635.1306
   1423.95203     735.7397     634.7391   1423.95203     735.7397     634.7391
   1423.93677     735.7363     634.7009   1423.93677     735.7363     634.7009
   1423.92151     734.2058     634.7590   1423.92151     734.2058     634.7590
   1423.90625     735.0423     635.3278   1423.90625     735.0423     635.3278
   1423.89099     734.0372     635.3473   1423.89099     734.0372     635.3473
   1423.87573     733.6215     635.1619   1423.87573     733.6215     635.1619
   1423.86047     733.8637     635.7375   1423.86047     733.8637     635.7375
   1423.84521     734.6414     635.4047   1423.84521     734.6414     635.4047
   1423.82996     733.3773     636.4796   1423.82996     733.3773     636.4796
   1423.81470     733.9024     636.5922   1423.81470     733.9024     636.5922
   1423.79944     732.9480     636.9355   1423.79944     732.9480     636.9355
   1423.78418     732.9496     637.8163   1423.78418     732.9496     637.8163
   1423.76892     733.5549     637.8982   1423.76892     733.5549     637.8982
   1423.75366     731.6166     637.8121   1423.75366     731.6166     637.8121
   1423.73840     731.7249     636.6664   1423.73840     731.7249     636.6664
   1423.72314     731.8060     638.9778   1423.72314     731.8060     638.9778
   1423.70789     731.7181     638.1191   1423.70789     731.7181     638.1191
   1423.69263     730.6902     639.2977   1423.69263     730.6902     639.2977
   1423.67737     731.0869     638.3335   1423.67737     731.0869     638.3335
   1423.66211     730.7317     639.1048   1423.66211     730.7317     639.1048
   1423.64685     729.8149     638.7825   1423.64685     729.8149     638.7825
   1423.63159     729.8514     639.8533   1423.63159     729.8514     639.8533
   1423.61633     729.6182     640.0958   1423.61633     729.6182     640.0958
   1423.60107     729.2567     639.3774   1423.60107     729.2567     639.3774
   1423.58582     728.9017     638.7870   1423.58582     728.9017     638.7870
   1423.57056     729.0938     638.1981   1423.57056     729.0938     638.1981
   1423.55530     728.4728     639.1029   1423.55530     728.4728     639.1029
   1423.54004     727.8539     639.4757   1423.54004     727.8539     639.4757
   1423.52478     728.2330     639.5651   1423.52478     728.2330     639.5651
   1423.50952     728.7386     639.2070   1423.50952     728.7386     639.2070
   1423.49426     728.7441     639.0474   1423.49426     728.7441     639.0474
   1423.47900     726.2363     640.1540   1423.47900     726.2363     640.1540
   1423.46375     726.3534     639.1151   1423.46375     726.3534     639.1151
   1423.44849     727.3453     638.4025   1423.44849     727.3453     638.4025
   1423.43323     727.3730     639.9050   1423.43323     727.3730     639.9050
   1423.41797     727.2598     639.4097   1423.41797     727.2598     639.4097
   1423.40271     726.1658     639.4864   1423.40271     726.1658     639.4864
   1423.38745     724.9131     639.3544   1423.38745     724.9131     639.3544
   1423.37219     726.5067     639.3307   1423.37219     726.5067     639.3307
   1423.35693     724.8328     639.4307   1423.35693     724.8328     639.4307
   1423.34167     725.1015     638.9801   1423.34167     725.1015     638.9801
   1423.32642     724.8721     637.8657   1423.32642     724.8721     637.8657
   1423.31116     724.9661     637.5028   1423.31116     724.9661     637.5028
   1423.29590     723.6742     638.3347   1423.29590     723.6742     638.3347
   1423.28064     723.4958     637.4399   1423.28064     723.4958     637.4399
   1423.26538     722.8535     638.0995   1423.26538     722.8535     638.0995
   1423.25012     723.3745     636.8027   1423.25012     723.3745     636.8027
   1423.23486     723.0320     636.6116   1423.23486     723.0320     636.6116
   1423.21960     722.6926     637.8851   1423.21960     722.6926     637.8851
   1423.20435     722.9400     636.1638   1423.20435     722.9400     636.1638
   1423.18909     721.6816     635.1311   1423.18909     721.6816     635.1311
   1423.17383     722.3005     635.7946   1423.17383     722.3005     635.7946
   1423.15857     721.3793     635.2011   1423.15857     721.3793     635.2011
   1423.14331     721.3226     635.7468   1423.14331     721.3226     635.7468
   1423.12805     721.6362     635.0632   1423.12805     721.6362     635.0632
   1423.11279     720.8867     634.7869   1423.11279     720.8867     634.7869
   1423.09753     720.6268     633.2542   1423.09753     720.6268     633.2542
   1423.08228     720.7633     632.7744   1423.08228     720.7633     632.7744
   1423.06702     720.1284     632.4409   1423.06702     720.1284     632.4409
   1423.05176     720.1289     632.3915   1423.05176     720.1289     632.3915
   1423.03650     718.9893     631.5310   1423.03650     718.9893     631.5310
   1423.02124     719.0357     631.5472   1423.02124     719.0357     631.5472
   1423.00598     719.9214     632.0288   1423.00598     719.9214     632.0288
   1422.99072     719.7232     631.3524   1422.99072     719.7232     631.3524
   1422.97546     718.8028     630.2045   1422.97546     718.8028     630.2045
   1422.96021     718.8530     630.1589   1422.96021     718.8530     630.1589
   1422.94495     718.1744     629.0375   1422.94495     718.1744     629.0375
   1422.92969     718.5139     629.1929   1422.92969     718.5139     629.1929
   1422.91443     718.0548     627.0066   1422.91443     718.0548     627.0066
   1422.89917     716.3218     627.9855   1422.89917     716.3218     627.9855
   1422.88391     716.6861     626.4415   1422.88391     716.6861     626.4415
   1422.86865     718.5740     625.4469   1422.86865     718.5740     625.4469
   1422.85339     716.8087     626.4084   1422.85339     716.8087     626.4084
   1422.83813     717.6343     625.4658   1422.83813     717.6343     625.4658
   1422.82288     716.3881     624.2801   1422.82288     716.3881     624.2801
   1422.80762     716.5367     623.7077   1422.80762     716.5367     623.7077
   1422.79236     715.9516     622.8566   1422.79236     715.9516     622.8566
   1422.77710     714.8727     622.3190   1422.77710     714.8727     622.3190
   1422.76184     714.8143     620.9535   1422.76184     714.8143     620.9535
   1422.74658     714.7402     620.2412   1422.74658     714.7402     620.2412
   1422.73132     714.7402     619.0189   1422.73132     714.7402     619.0189
   1422.71606     714.3170     618.4836   1422.71606     714.3170     618.4836
   1422.70081     713.2583     617.9714   1422.70081     713.2583     617.9714
   1422.68555     713.8157     617.8193   1422.68555     713.8157     617.8193
   1422.67029     714.6850     616.6340   1422.67029     714.6850     616.6340
   1422.65503     714.0836     615.4082   1422.65503     714.0836     615.4082
   1422.63977     713.6767     615.1216   1422.63977     713.6767     615.1216
   1422.62451     712.4398     614.7702   1422.62451     712.4398     614.7702
   1422.60925     713.6846     613.2090   1422.60925     713.6846     613.2090
   1422.59399     711.7303     612.1241   1422.59399     711.7303     612.1241
   1422.57874     712.6742     611.5002   1422.57874     712.6742     611.5002
   1422.56348     712.3334     610.7208   1422.56348     712.3334     610.7208
   1422.54822     712.0582     609.2084   1422.54822     712.0582     609.2084
   1422.53296     711.2525     609.7298   1422.53296     711.2525     609.7298
   1422.51770     710.3470     607.8767   1422.51770     710.3470     607.8767
   1422.50244     711.1029     606.7878   1422.50244     711.1029     606.7878
   1422.48718     711.0999     605.6900   1422.48718     711.0999     605.6900
   1422.47192     710.3528     604.9805   1422.47192     710.3528     604.9805
   1422.45667     710.6163     604.4766   1422.45667     710.6163     604.4766
   1422.44141     710.5186     603.0156   1422.44141     710.5186     603.0156
   1422.42615     708.7377     601.8128   1422.42615     708.7377     601.8128
   1422.41089     710.2498     600.5733   1422.41089     710.2498     600.5733
   1422.39563     709.8076     599.4369   1422.39563     709.8076     599.4369
   1422.38037     709.6235     599.3847   1422.38037     709.6235     599.3847
   1422.36511     709.1814     597.5806   1422.36511     709.1814     597.5806
   1422.34985     708.3627     595.0894   1422.34985     708.3627     595.0894
   1422.33459     707.9168     594.6941   1422.33459     707.9168     594.6941
   1422.31934     708.1972     594.4780   1422.31934     708.1972     594.4780
   1422.30408     707.7945     592.8441   1422.30408     707.7945     592.8441
   1422.28882     708.2042     592.4493   1422.28882     708.2042     592.4493
   1422.27356     707.4855     591.2988   1422.27356     707.4855     591.2988
   1422.25830     708.1729     590.7457   1422.25830     708.1729     590.7457
   1422.24304     706.7634     589.0764   1422.24304     706.7634     589.0764
   1422.22778     706.3719     588.3510   1422.22778     706.3719     588.3510
   1422.21252     705.6847     586.9394   1422.21252     705.6847     586.9394
   1422.19727     706.4498     584.2032   1422.19727     706.4498     584.2032
   1422.18201     706.5049     584.3369   1422.18201     706.5049     584.3369
   1422.16675     706.5570     583.1440   1422.16675     706.5570     583.1440
   1422.15149     705.7315     581.5833   1422.15149     705.7315     581.5833
   1422.13623     705.8509     581.2975   1422.13623     705.8509     581.2975
   1422.12097     705.0112     579.5108   1422.12097     705.0112     579.5108
   1422.10571     704.7545     578.9362   1422.10571     704.7545     578.9362
   1422.09045     705.2976     576.2195   1422.09045     705.2976     576.2195
   1422.07520     704.8253     576.1342   1422.07520     704.8253     576.1342
   1422.05994     703.7499     574.6885   1422.05994     703.7499     574.6885
   1422.04468     703.2983     573.8812   1422.04468     703.2983     573.8812
   1422.02942     704.6766     571.1124   1422.02942     704.6766     571.1124
   1422.01416     703.0639     570.8108   1422.01416     703.0639     570.8108
   1421.99890     702.9971     569.4901   1421.99890     702.9971     569.4901
   1421.98364     702.4484     569.4667   1421.98364     702.4484     569.4667
   1421.96838     701.8958     567.1880   1421.96838     701.8958     567.1880
   1421.95312     702.8490     565.9180   1421.95312     702.8490     565.9180
   1421.93787     702.8130     565.3674   1421.93787     702.8130     565.3674
   1421.92261     701.0582     563.6022   1421.92261     701.0582     563.6022
   1421.90735     701.5396     562.7134   1421.90735     701.5396     562.7134
   1421.89209     701.2924     561.6115   1421.89209     701.2924     561.6115
   1421.87683     700.8976     560.6169   1421.87683     700.8976     560.6169
   1421.86157     700.7388     558.7573   1421.86157     700.7388     558.7573
   1421.84631     701.1175     557.1696   1421.84631     701.1175     557.1696
   1421.83105     700.6299     556.2800   1421.83105     700.6299     556.2800
   1421.81580     700.0202     554.8309   1421.81580     700.0202     554.8309
   1421.80054     700.6954     552.8067   1421.80054     700.6954     552.8067
   1421.78528     700.3837     551.5510   1421.78528     700.3837     551.5510
   1421.77002     700.4592     549.9779   1421.77002     700.4592     549.9779
   1421.75476     700.1209     550.0229   1421.75476     700.1209     550.0229
   1421.73950     699.7810     548.3405   1421.73950     699.7810     548.3405
   1421.72424     698.1304     546.9018   1421.72424     698.1304     546.9018
   1421.70898     698.8215     544.8207   1421.70898     698.8215     544.8207
   1421.69373     699.0673     544.6245   1421.69373     699.0673     544.6245
   1421.67847     698.2097     543.1383   1421.67847     698.2097     543.1383
   1421.66321     698.1738     541.0831   1421.66321     698.1738     541.0831
   1421.64795     697.0318     540.6533   1421.64795     697.0318     540.6533
   1421.63269     698.4966     538.7731   1421.63269     698.4966     538.7731
   1421.61743     696.5980     537.3066   1421.61743     696.5980     537.3066
   1421.60217     696.2590     536.3199   1421.60217     696.2590     536.3199
   1421.58691     697.3460     534.5621   1421.58691     697.3460     534.5621
   1421.57166     697.1979     533.9714   1421.57166     697.1979     533.9714
   1421.55640     696.2146     532.7463   1421.55640     696.2146     532.7463
   1421.54114     696.1211     531.2291   1421.54114     696.1211     531.2291
   1421.52588     695.3902     530.1660   1421.52588     695.3902     530.1660
   1421.51062     695.3518     528.1664   1421.51062     695.3518     528.1664
   1421.49536     695.3853     526.6348   1421.49536     695.3853     526.6348
   1421.48010     694.6686     525.9900   1421.48010     694.6686     525.9900
   1421.46484     695.3125     524.7896   1421.46484     695.3125     524.7896
   1421.44958     694.4554     523.8082   1421.44958     694.4554     523.8082
   1421.43433     694.3663     521.5364   1421.43433     694.3663     521.5364
   1421.41907     694.3430     521.2471   1421.41907     694.3430     521.2471
   1421.40381     692.9999     519.1424   1421.40381     692.9999     519.1424
   1421.38855     693.5503     518.8330   1421.38855     693.5503     518.8330
   1421.37329     693.6376     516.8564   1421.37329     693.6376     516.8564
   1421.35803     694.1215     515.9852   1421.35803     694.1215     515.9852
   1421.34277     694.9471     514.4140   1421.34277     694.9471     514.4140
   1421.32751     692.9866     512.6671   1421.32751     692.9866     512.6671
   1421.31226     692.8961     511.2039   1421.31226     692.8961     511.2039
   1421.29700     693.7630     511.3076   1421.29700     693.7630     511.3076
   1421.28174     692.6663     510.2346   1421.28174     692.6663     510.2346
   1421.26648     693.5823     509.4904   1421.26648     693.5823     509.4904
   1421.25122     693.8102     508.6530   1421.25122     693.8102     508.6530
   1421.23596     694.1908     507.2371   1421.23596     694.1908     507.2371
   1421.22070     695.3998     506.7094   1421.22070     695.3998     506.7094
   1421.20544     696.5460     506.4928   1421.20544     696.5460     506.4928
   1421.19019     698.5009     507.2504   1421.19019     698.5009     507.2504
   1421.17493     701.1923     508.6154   1421.17493     701.1923     508.6154
   1421.15967     706.8262     510.6892   1421.15967     706.8262     510.6892
   1421.14441     715.9969     515.7705   1421.14441     715.9969     515.7705
   1421.12915     729.8427     524.2553   1421.12915     729.8427     524.2553
   1421.11389     749.8941     537.8716   1421.11389     749.8941     537.8716
   1421.09863     778.6823     556.5703   1421.09863     778.6823     556.5703
   1421.08337     807.7632     576.4958   1421.08337     807.7632     576.4958
   1421.06812     855.4526     607.5762   1421.06812     855.4526     607.5762
   1421.05286     932.4015     662.0152   1421.05286     932.4015     662.0152
   1421.03760     958.5526     676.8879   1421.03760     958.5526     676.8879
   1421.02234    1002.8779     705.6042   1421.02234    1002.8779     705.6042
   1421.00708    1081.5887     759.1419   1421.00708    1081.5887     759.1419
   1420.99182    1111.6825     779.1719   1420.99182    1111.6825     779.1719
   1420.97656    1063.7156     742.8054   1420.97656    1063.7156     742.8054
   1420.96130    1038.4656     724.3873   1420.96130    1038.4656     724.3873
   1420.94604    1027.6412     715.6380   1420.94604    1027.6412     715.6380
   1420.93079    1023.4893     711.8568   1420.93079    1023.4893     711.8568
   1420.91553    1043.1323     723.3703   1420.91553    1043.1323     723.3703
   1420.90027    1069.5386     737.3491   1420.90027    1069.5386     737.3491
   1420.88501    1086.1421     748.2241   1420.88501    1086.1421     748.2241
   1420.86975    1094.2448     753.0977   1420.86975    1094.2448     753.0977
   1420.85449    1056.9103     727.4155   1420.85449    1056.9103     727.4155
   1420.83923    1053.4458     723.9308   1420.83923    1053.4458     723.9308
   1420.82397    1173.9020     801.1262   1420.82397    1173.9020     801.1262
   1420.80872    1402.8453     952.9016   1420.80872    1402.8453     952.9016
   1420.79346    1685.2229    1137.0308   1420.79346    1685.2229    1137.0308
   1420.77820    1916.7817    1290.2148   1420.77820    1916.7817    1290.2148
   1420.76294    1966.8138    1318.8907   1420.76294    1966.8138    1318.8907
   1420.74768    1862.0309    1245.9518   1420.74768    1862.0309    1245.9518
   1420.73242    1731.9514    1158.2430   1420.73242    1731.9514    1158.2430
   1420.71716    1557.2366    1044.4790   1420.71716    1557.2366    1044.4790
   1420.70190    1385.4785     924.6854   1420.70190    1385.4785     924.6854
   1420.68665    1436.5291     958.5082   1420.68665    1436.5291     958.5082
   1420.67139    1565.0560    1038.5803   1420.67139    1565.0560    1038.5803
   1420.65613    1578.3580    1044.1206   1420.65613    1578.3580    1044.1206
   1420.64087    1484.2756     982.8841   1420.64087    1484.2756     982.8841
   1420.62561    1433.3500     950.3058   1420.62561    1433.3500     950.3058
   1420.61035    1493.8392     988.4619   1420.61035    1493.8392     988.4619
   1420.59509    1542.4602    1017.1903   1420.59509    1542.4602    1017.1903
   1420.57983    1593.1876    1047.3126   1420.57983    1593.1876    1047.3126
   1420.56458    1707.0609    1119.1503   1420.56458    1707.0609    1119.1503
   1420.54932    1836.5856    1201.8721   1420.54932    1836.5856    1201.8721
   1420.53406    2116.2876    1380.1665   1420.53406    2116.2876    1380.1665
   1420.51880    2200.4973    1431.3730   1420.51880    2200.4973    1431.3730
   1420.50354    1830.0897    1187.6897   1420.50354    1830.0897    1187.6897
   1420.48828    1266.9818     827.1183   1420.48828    1266.9818     827.1183
   1420.47302     915.7338     599.1484   1420.47302     915.7338     599.1484
   1420.45776     800.0896     525.7914   1420.45776     800.0896     525.7914
   1420.44250     751.7357     494.4118   1420.44250     751.7357     494.4118
   1420.42725     726.0604     476.1009   1420.42725     726.0604     476.1009
   1420.41199     709.8392     465.5166   1420.41199     709.8392     465.5166
   1420.39673     700.9204     459.2769   1420.39673     700.9204     459.2769
   1420.38147     695.8907     454.4641   1420.38147     695.8907     454.4641
   1420.36621     693.3484     451.9427   1420.36621     693.3484     451.9427
   1420.35095     691.4304     450.4845   1420.35095     691.4304     450.4845
   1420.33569     690.0585     448.1596   1420.33569     690.0585     448.1596
   1420.32043     689.7364     447.3417   1420.32043     689.7364     447.3417
   1420.30518     689.2089     446.0117   1420.30518     689.2089     446.0117
   1420.28992     687.2123     444.6237   1420.28992     687.2123     444.6237
   1420.27466     688.5831     444.6382   1420.27466     688.5831     444.6382
   1420.25940     687.8317     442.2575   1420.25940     687.8317     442.2575
   1420.24414     686.9760     442.4453   1420.24414     686.9760     442.4453
   1420.22888     687.0990     441.5420   1420.22888     687.0990     441.5420
   1420.21362     686.0237     440.3684   1420.21362     686.0237     440.3684
   1420.19836     684.1635     439.1009   1420.19836     684.1635     439.1009
   1420.18311     683.9639     436.9660   1420.18311     683.9639     436.9660
   1420.16785     683.1124     435.6915   1420.16785     683.1124     435.6915
   1420.15259     681.7229     434.7365   1420.15259     681.7229     434.7365
   1420.13733     682.0280     433.4235   1420.13733     682.0280     433.4235
   1420.12207     681.6227     432.1953   1420.12207     681.6227     432.1953
   1420.10681     681.1429     431.3333   1420.10681     681.1429     431.3333
   1420.09155     680.3489     431.2563   1420.09155     680.3489     431.2563
   1420.07629     681.1281     429.8737   1420.07629     681.1281     429.8737
   1420.06104     678.9536     429.4251   1420.06104     678.9536     429.4251
   1420.04578     679.0273     428.6520   1420.04578     679.0273     428.6520
   1420.03052     678.7203     427.3992   1420.03052     678.7203     427.3992
   1420.01526     680.5968     427.5594   1420.01526     680.5968     427.5594
   1420.00000     680.9004     428.1226   1420.00000     680.9004     428.1226
   1419.98474     681.2043     428.6857   1419.98474     681.2043     428.6857
   1419.96948     681.3583     426.0217   1419.96948     681.3583     426.0217
   1419.95422     678.6765     424.1750   1419.95422     678.6765     424.1750
   1419.93896     677.6068     424.0018   1419.93896     677.6068     424.0018
   1419.92371     678.7326     423.3833   1419.92371     678.7326     423.3833
   1419.90845     678.7261     422.6667   1419.90845     678.7261     422.6667
   1419.89319     678.7001     423.0645   1419.89319     678.7001     423.0645
   1419.87793     679.6251     422.0639   1419.87793     679.6251     422.0639
   1419.86267     679.6497     421.6293   1419.86267     679.6497     421.6293
   1419.84741     680.3784     421.4535   1419.84741     680.3784     421.4535
   1419.83215     680.9228     421.6574   1419.83215     680.9228     421.6574
   1419.81689     680.1938     420.4876   1419.81689     680.1938     420.4876
   1419.80164     681.2631     420.5562   1419.80164     681.2631     420.5562
   1419.78638     680.9771     420.3299   1419.78638     680.9771     420.3299
   1419.77112     681.9645     420.0000   1419.77112     681.9645     420.0000
   1419.75586     682.5977     419.7080   1419.75586     682.5977     419.7080
   1419.74060     681.8459     419.5687   1419.74060     681.8459     419.5687
   1419.72534     682.7588     419.1698   1419.72534     682.7588     419.1698
   1419.71008     681.9119     418.8297   1419.71008     681.9119     418.8297
   1419.69482     682.9383     418.2455   1419.69482     682.9383     418.2455
   1419.67957     683.3705     417.6096   1419.67957     683.3705     417.6096
   1419.66431     683.0432     417.7832   1419.66431     683.0432     417.7832
   1419.64905     683.3867     417.4193   1419.64905     683.3867     417.4193
   1419.63379     683.4169     417.6951   1419.63379     683.4169     417.6951
   1419.61853     684.2963     417.3408   1419.61853     684.2963     417.3408
   1419.60327     684.0767     416.8667   1419.60327     684.0767     416.8667
   1419.58801     684.7679     416.8881   1419.58801     684.7679     416.8881
   1419.57275     685.2014     415.7206   1419.57275     685.2014     415.7206
   1419.55750     685.7862     416.6967   1419.55750     685.7862     416.6967
   1419.54224     686.1794     416.3741   1419.54224     686.1794     416.3741
   1419.52698     687.0552     415.6229   1419.52698     687.0552     415.6229
   1419.51172     687.1983     416.0769   1419.51172     687.1983     416.0769
   1419.49646     687.1968     415.8741   1419.49646     687.1968     415.8741
   1419.48120     687.7038     415.8240   1419.48120     687.7038     415.8240
   1419.46594     687.9549     415.9745   1419.46594     687.9549     415.9745
   1419.45068     687.8182     415.8228   1419.45068     687.8182     415.8228
   1419.43542     689.3718     415.3943   1419.43542     689.3718     415.3943
   1419.42017     688.8788     415.6722   1419.42017     688.8788     415.6722
   1419.40491     689.0982     416.2064   1419.40491     689.0982     416.2064
   1419.38965     689.9634     416.1057   1419.38965     689.9634     416.1057
   1419.37439     690.5405     415.6266   1419.37439     690.5405     415.6266
   1419.35913     691.2288     415.3990   1419.35913     691.2288     415.3990
   1419.34387     691.6807     415.2562   1419.34387     691.6807     415.2562
   1419.32861     691.5130     415.3718   1419.32861     691.5130     415.3718
   1419.31335     692.6211     416.2198   1419.31335     692.6211     416.2198
   1419.29810     693.3939     415.6802   1419.29810     693.3939     415.6802
   1419.28284     692.4943     415.4595   1419.28284     692.4943     415.4595
   1419.26758     693.4335     415.9283   1419.26758     693.4335     415.9283
   1419.25232     693.0488     415.6160   1419.25232     693.0488     415.6160
   1419.23706     695.0804     415.6733   1419.23706     695.0804     415.6733
   1419.22180     694.9978     416.0674   1419.22180     694.9978     416.0674
   1419.20654     696.9562     416.2979   1419.20654     696.9562     416.2979
   1419.19128     695.2344     416.2871   1419.19128     695.2344     416.2871
   1419.17603     696.7520     416.1696   1419.17603     696.7520     416.1696
   1419.16077     697.5989     416.9326   1419.16077     697.5989     416.9326
   1419.14551     697.6575     416.8357   1419.14551     697.6575     416.8357
   1419.13025     697.3340     416.2400   1419.13025     697.3340     416.2400
   1419.11499     698.8878     417.0988   1419.11499     698.8878     417.0988
   1419.09973     700.3130     417.3779   1419.09973     700.3130     417.3779
   1419.08447     700.3162     417.7798   1419.08447     700.3162     417.7798
   1419.06921     700.4528     417.6032   1419.06921     700.4528     417.6032
   1419.05396     701.6169     418.1952   1419.05396     701.6169     418.1952
   1419.03870     701.1635     417.3526   1419.03870     701.1635     417.3526
   1419.02344     701.1742     417.8972   1419.02344     701.1742     417.8972
   1419.00818     702.9872     418.8552   1419.00818     702.9872     418.8552
   1418.99292     702.6331     419.1070   1418.99292     702.6331     419.1070
   1418.97766     705.0709     419.1223   1418.97766     705.0709     419.1223
   1418.96240     705.8892     419.2988   1418.96240     705.8892     419.2988
   1418.94714     705.2753     419.5210   1418.94714     705.2753     419.5210
   1418.93188     706.2009     420.1547   1418.93188     706.2009     420.1547
   1418.91663     706.2974     420.4388   1418.91663     706.2974     420.4388
   1418.90137     707.7036     420.9099   1418.90137     707.7036     420.9099
   1418.88611     707.8074     420.7607   1418.88611     707.8074     420.7607
   1418.87085     708.9296     421.0628   1418.87085     708.9296     421.0628
   1418.85559     708.8303     422.3336   1418.85559     708.8303     422.3336
   1418.84033     710.2263     422.3765   1418.84033     710.2263     422.3765
   1418.82507     711.8080     422.1983   1418.82507     711.8080     422.1983
   1418.80981     711.5637     423.4182   1418.80981     711.5637     423.4182
   1418.79456     711.7911     423.6473   1418.79456     711.7911     423.6473
   1418.77930     713.1649     424.8275   1418.77930     713.1649     424.8275
   1418.76404     713.6681     424.4795   1418.76404     713.6681     424.4795
   1418.74878     714.6122     425.2881   1418.74878     714.6122     425.2881
   1418.73352     715.7169     425.5211   1418.73352     715.7169     425.5211
   1418.71826     715.3952     425.3387   1418.71826     715.3952     425.3387
   1418.70300     716.4807     426.5434   1418.70300     716.4807     426.5434
   1418.68774     716.4841     427.2685   1418.68774     716.4841     427.2685
   1418.67249     717.7214     427.1517   1418.67249     717.7214     427.1517
   1418.65723     719.0882     427.5167   1418.65723     719.0882     427.5167
   1418.64197     719.6423     428.1440   1418.64197     719.6423     428.1440
   1418.62671     719.7904     428.6538   1418.62671     719.7904     428.6538
   1418.61145     720.3965     429.0749   1418.61145     720.3965     429.0749
   1418.59619     722.7731     429.4875   1418.59619     722.7731     429.4875
   1418.58093     722.6995     430.7550   1418.58093     722.6995     430.7550
   1418.56567     723.9960     431.1595   1418.56567     723.9960     431.1595
   1418.55042     722.9358     430.8770   1418.55042     722.9358     430.8770
   1418.53516     724.6219     431.6900   1418.53516     724.6219     431.6900
   1418.51990     726.6240     432.9526   1418.51990     726.6240     432.9526
   1418.50464     726.0537     432.7458   1418.50464     726.0537     432.7458
   1418.48938     727.8952     434.3714   1418.48938     727.8952     434.3714
   1418.47412     727.0363     434.1509   1418.47412     727.0363     434.1509
   1418.45886     729.6412     434.5179   1418.45886     729.6412     434.5179
   1418.44360     728.9879     435.7244   1418.44360     728.9879     435.7244
   1418.42834     731.4597     436.6822   1418.42834     731.4597     436.6822
   1418.41309     731.2932     436.9718   1418.41309     731.2932     436.9718
   1418.39783     732.2889     437.8747   1418.39783     732.2889     437.8747
   1418.38257     733.9191     438.4563   1418.38257     733.9191     438.4563
   1418.36731     734.0372     438.1411   1418.36731     734.0372     438.1411
   1418.35205     734.8010     439.0892   1418.35205     734.8010     439.0892
   1418.33679     735.9685     439.8676   1418.33679     735.9685     439.8676
   1418.32153     736.4073     440.9250   1418.32153     736.4073     440.9250
   1418.30627     736.7695     442.4160   1418.30627     736.7695     442.4160
   1418.29102     737.7903     441.7128   1418.29102     737.7903     441.7128
   1418.27576     739.1230     443.0859   1418.27576     739.1230     443.0859
   1418.26050     739.6172     443.4328   1418.26050     739.6172     443.4328
   1418.24524     739.9937     444.4560   1418.24524     739.9937     444.4560
   1418.22998     741.2782     445.7984   1418.22998     741.2782     445.7984
   1418.21472     742.1646     445.7612   1418.21472     742.1646     445.7612
   1418.19946     743.3135     446.7026   1418.19946     743.3135     446.7026
   1418.18420     743.6670     447.6994   1418.18420     743.6670     447.6994
   1418.16895     745.5993     448.7514   1418.16895     745.5993     448.7514
   1418.15369     744.7482     449.7971   1418.15369     744.7482     449.7971
   1418.13843     747.0019     449.6437   1418.13843     747.0019     449.6437
   1418.12317     747.8372     450.5240   1418.12317     747.8372     450.5240
   1418.10791     749.1343     451.6782   1418.10791     749.1343     451.6782
   1418.09265     749.8775     451.8625   1418.09265     749.8775     451.8625
   1418.07739     750.9409     452.9434   1418.07739     750.9409     452.9434
   1418.06213     751.4293     453.7875   1418.06213     751.4293     453.7875
   1418.04688     752.6554     454.8147   1418.04688     752.6554     454.8147
   1418.03162     754.3635     456.5634   1418.03162     754.3635     456.5634
   1418.01636     754.6497     455.5484   1418.01636     754.6497     455.5484
   1418.00110     755.2971     456.6989   1418.00110     755.2971     456.6989
   1417.98584     755.3607     457.6277   1417.98584     755.3607     457.6277
   1417.97058     757.9560     459.0818   1417.97058     757.9560     459.0818
   1417.95532     757.6353     458.9894   1417.95532     757.6353     458.9894
   1417.94006     757.8037     460.7604   1417.94006     757.8037     460.7604
   1417.92480     759.4803     461.5260   1417.92480     759.4803     461.5260
   1417.90955     760.8475     462.2120   1417.90955     760.8475     462.2120
   1417.89429     760.8933     462.6681   1417.89429     760.8933     462.6681
   1417.87903     763.6418     463.7711   1417.87903     763.6418     463.7711
   1417.86377     763.7552     464.6042   1417.86377     763.7552     464.6042
   1417.84851     763.9723     465.6642   1417.84851     763.9723     465.6642
   1417.83325     764.2128     466.4804   1417.83325     764.2128     466.4804
   1417.81799     765.5614     467.4476   1417.81799     765.5614     467.4476
   1417.80273     767.2208     468.5959   1417.80273     767.2208     468.5959
   1417.78748     768.3276     468.4610   1417.78748     768.3276     468.4610
   1417.77222     768.7745     469.4062   1417.77222     768.7745     469.4062
   1417.75696     770.3535     470.3965   1417.75696     770.3535     470.3965
   1417.74170     769.8500     471.7459   1417.74170     769.8500     471.7459
   1417.72644     771.6104     472.6817   1417.72644     771.6104     472.6817
   1417.71118     772.2171     473.9644   1417.71118     772.2171     473.9644
   1417.69592     771.7510     474.2685   1417.69592     771.7510     474.2685
   1417.68066     773.2091     475.0922   1417.68066     773.2091     475.0922
   1417.66541     774.0547     475.6626   1417.66541     774.0547     475.6626
   1417.65015     774.0395     476.6674   1417.65015     774.0395     476.6674
   1417.63489     776.2732     478.2313   1417.63489     776.2732     478.2313
   1417.61963     776.3834     479.4040   1417.61963     776.3834     479.4040
   1417.60437     778.4503     479.2372   1417.60437     778.4503     479.2372
   1417.58911     778.8493     480.2917   1417.58911     778.8493     480.2917
   1417.57385     778.4065     480.3200   1417.57385     778.4065     480.3200
   1417.55859     780.6609     482.1084   1417.55859     780.6609     482.1084
   1417.54333     781.0578     483.0982   1417.54333     781.0578     483.0982
   1417.52808     781.6741     484.2941   1417.52808     781.6741     484.2941
   1417.51282     782.4854     484.8076   1417.51282     782.4854     484.8076
   1417.49756     783.4846     486.0676   1417.49756     783.4846     486.0676
   1417.48230     784.5915     485.8382   1417.48230     784.5915     485.8382
   1417.46704     785.1184     486.9031   1417.46704     785.1184     486.9031
   1417.45178     785.5881     487.9278   1417.45178     785.5881     487.9278
   1417.43652     787.9229     488.7218   1417.43652     787.9229     488.7218
   1417.42126     787.0433     489.9711   1417.42126     787.0433     489.9711
   1417.40601     787.1691     490.3909   1417.40601     787.1691     490.3909
   1417.39075     789.0861     491.3699   1417.39075     789.0861     491.3699
   1417.37549     791.3118     491.3510   1417.37549     791.3118     491.3510
   1417.36023     790.0629     492.2780   1417.36023     790.0629     492.2780
   1417.34497     793.3226     494.0815   1417.34497     793.3226     494.0815
   1417.32971     792.4104     494.7976   1417.32971     792.4104     494.7976
   1417.31445     793.0516     494.6320   1417.31445     793.0516     494.6320
   1417.29919     792.9297     496.0582   1417.29919     792.9297     496.0582
   1417.28394     795.4991     497.0578   1417.28394     795.4991     497.0578
   1417.26868     794.9983     497.0042   1417.26868     794.9983     497.0042
   1417.25342     795.4511     497.7029   1417.25342     795.4511     497.7029
   1417.23816     796.3187     499.2153   1417.23816     796.3187     499.2153
   1417.22290     796.4145     499.4823   1417.22290     796.4145     499.4823
   1417.20764     797.2502     500.5051   1417.20764     797.2502     500.5051
   1417.19238     797.4012     501.0172   1417.19238     797.4012     501.0172
   1417.17712     800.2899     501.8450   1417.17712     800.2899     501.8450
   1417.16187     798.7089     502.4029   1417.16187     798.7089     502.4029
   1417.14661     799.4431     503.8820   1417.14661     799.4431     503.8820
   1417.13135     799.3432     503.7114   1417.13135     799.3432     503.7114
   1417.11609     799.7108     503.5710   1417.11609     799.7108     503.5710
   1417.10083     801.1569     504.6773   1417.10083     801.1569     504.6773
   1417.08557     802.8268     504.6267   1417.08557     802.8268     504.6267
   1417.07031     803.7671     506.2531   1417.07031     803.7671     506.2531
   1417.05505     804.1229     507.0532   1417.05505     804.1229     507.0532
   1417.03979     803.6248     506.8518   1417.03979     803.6248     506.8518
   1417.02454     804.6035     507.6365   1417.02454     804.6035     507.6365
   1417.00928     804.6315     508.1509   1417.00928     804.6315     508.1509
   1416.99402     805.3165     509.0684   1416.99402     805.3165     509.0684
   1416.97876     805.8303     508.8000   1416.97876     805.8303     508.8000
   1416.96350     806.3876     508.5455   1416.96350     806.3876     508.5455
   1416.94824     806.0067     510.4963   1416.94824     806.0067     510.4963
   1416.93298     806.6784     509.8183   1416.93298     806.6784     509.8183
   1416.91772     807.5138     511.1245   1416.91772     807.5138     511.1245
   1416.90247     807.0789     511.0305   1416.90247     807.0789     511.0305
   1416.88721     807.5880     511.0029   1416.88721     807.5880     511.0029
   1416.87195     807.8297     512.2242   1416.87195     807.8297     512.2242
   1416.85669     809.0235     512.4288   1416.85669     809.0235     512.4288
   1416.84143     808.9507     512.3589   1416.84143     808.9507     512.3589
   1416.82617     808.8783     513.6838   1416.82617     808.8783     513.6838
   1416.81091     810.7863     513.5861   1416.81091     810.7863     513.5861
   1416.79565     810.7208     513.3967   1416.79565     810.7208     513.3967
   1416.78040     809.6592     513.3663   1416.78040     809.6592     513.3663
   1416.76514     809.7274     514.2214   1416.76514     809.7274     514.2214
   1416.74988     809.3687     513.9211   1416.74988     809.3687     513.9211
   1416.73462     811.3226     514.3029   1416.73462     811.3226     514.3029
   1416.71936     810.5110     514.5037   1416.71936     810.5110     514.5037
   1416.70410     812.7093     515.6765   1416.70410     812.7093     515.6765
   1416.68884     810.2089     515.2163   1416.68884     810.2089     515.2163
   1416.67358     810.8374     514.7331   1416.67358     810.8374     514.7331
   1416.65833     811.6419     515.2209   1416.65833     811.6419     515.2209
   1416.64307     811.4542     515.7182   1416.64307     811.4542     515.7182
   1416.62781     812.7867     515.6819   1416.62781     812.7867     515.6819
   1416.61255     812.3542     516.0087   1416.61255     812.3542     516.0087
   1416.59729     810.9077     515.5856   1416.59729     810.9077     515.5856
   1416.58203     811.1837     516.2211   1416.58203     811.1837     516.2211
   1416.56677     811.2886     515.9243   1416.56677     811.2886     515.9243
   1416.55151     811.0074     515.6077   1416.55151     811.0074     515.6077
   1416.53625     812.1392     516.0761   1416.53625     812.1392     516.0761
   1416.52100     811.6466     515.9316   1416.52100     811.6466     515.9316
   1416.50574     811.0275     515.5555   1416.50574     811.0275     515.5555
   1416.49048     810.9459     515.8760   1416.49048     810.9459     515.8760
   1416.47522     810.4364     514.3397   1416.47522     810.4364     514.3397
   1416.45996     810.2151     515.0486   1416.45996     810.2151     515.0486
   1416.44470     810.4553     514.7756   1416.44470     810.4553     514.7756
   1416.42944     811.4077     515.2466   1416.42944     811.4077     515.2466
   1416.41418     810.8992     515.4897   1416.41418     810.8992     515.4897
   1416.39893     809.7929     515.0150   1416.39893     809.7929     515.0150
   1416.38367     810.6311     513.7189   1416.38367     810.6311     513.7189
   1416.36841     809.4514     514.7430   1416.36841     809.4514     514.7430
   1416.35315     808.7556     513.4306   1416.35315     808.7556     513.4306
   1416.33789     807.8848     513.6733   1416.33789     807.8848     513.6733
   1416.32263     808.6287     513.7336   1416.32263     808.6287     513.7336
   1416.30737     809.0609     513.2921   1416.30737     809.0609     513.2921
   1416.29211     808.3707     512.7588   1416.29211     808.3707     512.7588
   1416.27686     808.7810     512.4276   1416.27686     808.7810     512.4276
   1416.26160     807.7529     512.7007   1416.26160     807.7529     512.7007
   1416.24634     807.7869     511.6384   1416.24634     807.7869     511.6384
   1416.23108     806.3470     511.8750   1416.23108     806.3470     511.8750
   1416.21582     806.5508     510.5751   1416.21582     806.5508     510.5751
   1416.20056     806.3991     511.4600   1416.20056     806.3991     511.4600
   1416.18530     805.2954     510.8974   1416.18530     805.2954     510.8974
   1416.17004     804.9830     510.0395   1416.17004     804.9830     510.0395
   1416.15479     804.2463     509.4794   1416.15479     804.2463     509.4794
   1416.13953     805.0952     509.3201   1416.13953     805.0952     509.3201
   1416.12427     804.0261     509.3522   1416.12427     804.0261     509.3522
   1416.10901     802.7186     509.0306   1416.10901     802.7186     509.0306
   1416.09375     803.1912     508.6244   1416.09375     803.1912     508.6244
   1416.07849     803.3970     507.9362   1416.07849     803.3970     507.9362
   1416.06323     802.3443     507.1757   1416.06323     802.3443     507.1757
   1416.04797     801.6768     506.2616   1416.04797     801.6768     506.2616
   1416.03271     800.6094     506.7626   1416.03271     800.6094     506.7626
   1416.01746     800.0971     505.3823   1416.01746     800.0971     505.3823
   1416.00220     799.5633     505.8546   1416.00220     799.5633     505.8546
   1415.98694     798.3811     505.0177   1415.98694     798.3811     505.0177
   1415.97168     798.0536     504.7181   1415.97168     798.0536     504.7181
   1415.95642     798.7547     503.6461   1415.95642     798.7547     503.6461
   1415.94116     797.3018     503.1891   1415.94116     797.3018     503.1891
   1415.92590     795.7286     503.2679   1415.92590     795.7286     503.2679
   1415.91064     796.5510     502.8623   1415.91064     796.5510     502.8623
   1415.89539     793.7935     501.8385   1415.89539     793.7935     501.8385
   1415.88013     795.3325     501.3399   1415.88013     795.3325     501.3399
   1415.86487     794.0179     500.3837   1415.86487     794.0179     500.3837
   1415.84961     793.7977     500.0175   1415.84961     793.7977     500.0175
   1415.83435     791.9849     500.8963   1415.83435     791.9849     500.8963
   1415.81909     792.3959     499.6069   1415.81909     792.3959     499.6069
   1415.80383     791.5670     498.9114   1415.80383     791.5670     498.9114
   1415.78857     790.1523     498.5302   1415.78857     790.1523     498.5302
   1415.77332     789.1805     497.6562   1415.77332     789.1805     497.6562
   1415.75806     789.1824     496.7412   1415.75806     789.1824     496.7412
   1415.74280     788.5189     496.6462   1415.74280     788.5189     496.6462
   1415.72754     786.5862     496.3814   1415.72754     786.5862     496.3814
   1415.71228     785.6084     496.1353   1415.71228     785.6084     496.1353
   1415.69702     784.8121     494.7429   1415.69702     784.8121     494.7429
   1415.68176     784.4005     494.6216   1415.68176     784.4005     494.6216
   1415.66650     784.6431     494.0713   1415.66650     784.6431     494.0713
   1415.65125     780.6421     493.5716   1415.65125     780.6421     493.5716
   1415.63599     782.8846     493.0184   1415.63599     782.8846     493.0184
   1415.62073     780.2349     492.6075   1415.62073     780.2349     492.6075
   1415.60547     780.5714     491.8104   1415.60547     780.5714     491.8104
   1415.59021     780.4664     491.8637   1415.59021     780.4664     491.8637
   1415.57495     776.3624     490.5965   1415.57495     776.3624     490.5965
   1415.55969     776.4498     490.1225   1415.55969     776.4498     490.1225
   1415.54443     775.5196     489.1178   1415.54443     775.5196     489.1178
   1415.52917     775.2738     489.3048   1415.52917     775.2738     489.3048
   1415.51392     774.2216     488.1550   1415.51392     774.2216     488.1550
   1415.49866     772.5847     487.8976   1415.49866     772.5847     487.8976
   1415.48340     771.8894     486.9608   1415.48340     771.8894     486.9608
   1415.46814     771.3052     486.7812   1415.46814     771.3052     486.7812
   1415.45288     769.9057     485.6345   1415.45288     769.9057     485.6345
   1415.43762     767.6077     485.5355   1415.43762     767.6077     485.5355
   1415.42236     767.3390     484.2063   1415.42236     767.3390     484.2063
   1415.40710     766.4289     483.1131   1415.40710     766.4289     483.1131
   1415.39185     765.5510     482.9912   1415.39185     765.5510     482.9912
   1415.37659     765.1203     482.0664   1415.37659     765.1203     482.0664
   1415.36133     763.2759     481.4974   1415.36133     763.2759     481.4974
   1415.34607     762.2612     481.4347   1415.34607     762.2612     481.4347
   1415.33081     760.1264     480.5690   1415.33081     760.1264     480.5690
   1415.31555     759.1658     479.8147   1415.31555     759.1658     479.8147
   1415.30029     757.5709     479.4281   1415.30029     757.5709     479.4281
   1415.28503     757.2185     478.4814   1415.28503     757.2185     478.4814
   1415.26978     755.9230     476.8360   1415.26978     755.9230     476.8360
   1415.25452     755.0123     476.2498   1415.25452     755.0123     476.2498
   1415.23926     753.6376     476.0841   1415.23926     753.6376     476.0841
   1415.22400     750.5900     474.4847   1415.22400     750.5900     474.4847
   1415.20874     750.7533     473.7420   1415.20874     750.7533     473.7420
   1415.19348     748.8351     473.4606   1415.19348     748.8351     473.4606
   1415.17822     747.9240     473.4046   1415.17822     747.9240     473.4046
   1415.16296     746.6182     472.4948   1415.16296     746.6182     472.4948
   1415.14771     745.4448     471.2682   1415.14771     745.4448     471.2682
   1415.13245     743.6853     470.9149   1415.13245     743.6853     470.9149
   1415.11719     742.1143     470.6389   1415.11719     742.1143     470.6389
   1415.10193     739.6221     469.0567   1415.10193     739.6221     469.0567
   1415.08667     737.2352     468.6591   1415.08667     737.2352     468.6591
   1415.07141     736.4353     468.1431   1415.07141     736.4353     468.1431
   1415.05615     734.9842     467.1610   1415.05615     734.9842     467.1610
   1415.04089     734.7769     466.7903   1415.04089     734.7769     466.7903
   1415.02563     732.8730     465.6297   1415.02563     732.8730     465.6297
   1415.01038     731.1768     464.5860   1415.01038     731.1768     464.5860
   1414.99512     728.3482     463.5014   1414.99512     728.3482     463.5014
   1414.97986     727.3615     463.3092   1414.97986     727.3615     463.3092
   1414.96460     724.4907     461.7882   1414.96460     724.4907     461.7882
   1414.94934     724.7278     461.4295   1414.94934     724.7278     461.4295
   1414.93408     721.4196     460.4228   1414.93408     721.4196     460.4228
   1414.91882     721.3476     459.4248   1414.91882     721.3476     459.4248
   1414.90356     718.7640     458.4869   1414.90356     718.7640     458.4869
   1414.88831     718.0173     457.7690   1414.88831     718.0173     457.7690
   1414.87305     715.3134     456.2816   1414.87305     715.3134     456.2816
   1414.85779     713.9751     455.5807   1414.85779     713.9751     455.5807
   1414.84253     712.3943     455.4375   1414.84253     712.3943     455.4375
   1414.82727     710.8408     453.3195   1414.82727     710.8408     453.3195
   1414.81201     708.1889     453.3283   1414.81201     708.1889     453.3283
   1414.79675     705.0939     452.1010   1414.79675     705.0939     452.1010
   1414.78149     704.4505     450.8494   1414.78149     704.4505     450.8494
   1414.76624     702.4551     449.9968   1414.76624     702.4551     449.9968
   1414.75098     699.9771     449.5746   1414.75098     699.9771     449.5746
   1414.73572     698.5837     448.2943   1414.73572     698.5837     448.2943
   1414.72046     696.8629     447.1779   1414.72046     696.8629     447.1779
   1414.70520     695.0931     446.0529   1414.70520     695.0931     446.0529
   1414.68994     692.2492     445.2107   1414.68994     692.2492     445.2107
   1414.67468     689.7780     443.6779   1414.67468     689.7780     443.6779
   1414.65942     688.1261     443.4689   1414.65942     688.1261     443.4689
   1414.64417     685.6143     442.1935   1414.64417     685.6143     442.1935
   1414.62891     682.9108     440.8312   1414.62891     682.9108     440.8312
   1414.61365     681.5870     440.4284   1414.61365     681.5870     440.4284
   1414.59839     679.6729     439.4127   1414.59839     679.6729     439.4127
   1414.58313     677.6972     437.3968   1414.58313     677.6972     437.3968
   1414.56787     675.4975     437.0306   1414.56787     675.4975     437.0306
   1414.55261     673.7419     435.5950   1414.55261     673.7419     435.5950
   1414.53735     671.1731     434.4312   1414.53735     671.1731     434.4312
   1414.52209     668.0958     433.1645   1414.52209     668.0958     433.1645
   1414.50684     665.5243     431.9513   1414.50684     665.5243     431.9513
   1414.49158     663.7474     430.7633   1414.49158     663.7474     430.7633
   1414.47632     660.6844     429.2984   1414.47632     660.6844     429.2984
   1414.46106     659.1232     429.1477   1414.46106     659.1232     429.1477
   1414.44580     655.8712     427.5121   1414.44580     655.8712     427.5121
   1414.43054     654.1683     426.4440   1414.43054     654.1683     426.4440
   1414.41528     651.6527     425.0354   1414.41528     651.6527     425.0354
   1414.40002     649.5657     424.1598   1414.40002     649.5657     424.1598
   1414.38477     646.8931     422.4093   1414.38477     646.8931     422.4093
   1414.36951     645.6573     421.8533   1414.36951     645.6573     421.8533
   1414.35425     641.5684     419.9575   1414.35425     641.5684     419.9575
   1414.33899     640.1193     419.2926   1414.33899     640.1193     419.2926
   1414.32373     637.4574     417.3526   1414.32373     637.4574     417.3526
   1414.30847     634.0283     416.5835   1414.30847     634.0283     416.5835
   1414.29321     631.8954     415.0070   1414.29321     631.8954     415.0070
   1414.27795     629.5999     413.7095   1414.27795     629.5999     413.7095
   1414.26270     627.4282     413.0009   1414.26270     627.4282     413.0009
   1414.24744     624.1197     411.7850   1414.24744     624.1197     411.7850
   1414.23218     620.7596     409.7351   1414.23218     620.7596     409.7351
   1414.21692     618.9704     408.1662   1414.21692     618.9704     408.1662
   1414.20166     616.4745     407.3698   1414.20166     616.4745     407.3698
   1414.18640     614.7794     406.2455   1414.18640     614.7794     406.2455
   1414.17114     611.8053     404.6813   1414.17114     611.8053     404.6813
   1414.15588     608.5646     403.1518   1414.15588     608.5646     403.1518
   1414.14062     605.4225     402.0640   1414.14062     605.4225     402.0640
   1414.12537     602.9767     400.4091   1414.12537     602.9767     400.4091
   1414.11011     600.2321     399.9100   1414.11011     600.2321     399.9100
   1414.09485     597.1732     397.7990   1414.09485     597.1732     397.7990
   1414.07959     594.2514     396.0923   1414.07959     594.2514     396.0923
   1414.06433     591.5043     395.2125   1414.06433     591.5043     395.2125
   1414.04907     589.3839     393.8212   1414.04907     589.3839     393.8212
   1414.03381     585.5222     392.1432   1414.03381     585.5222     392.1432
   1414.01855     583.6732     391.3489   1414.01855     583.6732     391.3489
   1414.00330     605.8270     396.4460   1414.00330     605.8270     396.4460
   1413.98804     579.3069     388.9786   1413.98804     579.3069     388.9786
   1413.97278     575.5708     386.9370   1413.97278     575.5708     386.9370
   1413.95752     572.3738     385.2122   1413.95752     572.3738     385.2122
   1413.94226     569.4869     383.3125   1413.94226     569.4869     383.3125
   1413.92700     565.7385     382.3651   1413.92700     565.7385     382.3651
   1413.91174     563.2659     380.5739   1413.91174     563.2659     380.5739
   1413.89648     560.5495     379.8133   1413.89648     560.5495     379.8133
   1413.88123     557.6099     378.1538   1413.88123     557.6099     378.1538
   1413.86597     554.8626     376.4727   1413.86597     554.8626     376.4727
   1413.85071     551.9974     375.0707   1413.85071     551.9974     375.0707
   1413.83545     549.4884     373.3805   1413.83545     549.4884     373.3805
   1413.82019     546.4399     372.1356   1413.82019     546.4399     372.1356
   1413.80493     543.6291     371.0429   1413.80493     543.6291     371.0429
   1413.78967     540.6647     369.3600   1413.78967     540.6647     369.3600
   1413.77441     537.1837     367.4437   1413.77441     537.1837     367.4437
   1413.75916     533.9930     365.5656   1413.75916     533.9930     365.5656
   1413.74390     531.3348     364.3775   1413.74390     531.3348     364.3775
   1413.72864     527.8776     363.2224   1413.72864     527.8776     363.2224
   1413.71338     524.3182     361.8569   1413.71338     524.3182     361.8569
   1413.69812     522.7437     359.6486   1413.69812     522.7437     359.6486
   1413.68286     519.9456     358.3319   1413.68286     519.9456     358.3319
   1413.66760     515.8231     357.6023   1413.66760     515.8231     357.6023
   1413.65234     513.8123     356.4083   1413.65234     513.8123     356.4083
   1413.63708     511.1950     354.0016   1413.63708     511.1950     354.0016
   1413.62183     508.0479     352.6446   1413.62183     508.0479     352.6446
   1413.60657     505.2424     351.1391   1413.60657     505.2424     351.1391
   1413.59131     502.0204     349.7522   1413.59131     502.0204     349.7522
   1413.57605     499.0055     348.3855   1413.57605     499.0055     348.3855
   1413.56079     496.3592     346.0366   1413.56079     496.3592     346.0366
   1413.54553     493.9879     345.2104   1413.54553     493.9879     345.2104
   1413.53027     491.0017     343.7080   1413.53027     491.0017     343.7080
   1413.51501     488.0001     342.6031   1413.51501     488.0001     342.6031
   1413.49976     484.7543     340.7997   1413.49976     484.7543     340.7997
   1413.48450     482.6624     339.8527   1413.48450     482.6624     339.8527
   1413.46924     478.9399     337.8435   1413.46924     478.9399     337.8435
   1413.45398     476.9039     336.5724   1413.45398     476.9039     336.5724
   1413.43872     474.0276     335.0586   1413.43872     474.0276     335.0586
   1413.42346     470.6371     333.3203   1413.42346     470.6371     333.3203
   1413.40820     468.5146     331.9178   1413.40820     468.5146     331.9178
   1413.39294     465.6199     330.4398   1413.39294     465.6199     330.4398
   1413.37769     462.7944     329.0297   1413.37769     462.7944     329.0297
   1413.36243     460.0434     327.5525   1413.36243     460.0434     327.5525
   1413.34717     457.3705     326.3129   1413.34717     457.3705     326.3129
   1413.33191     454.4104     324.3867   1413.33191     454.4104     324.3867
   1413.31665     451.9182     323.2943   1413.31665     451.9182     323.2943
   1413.30139     448.6322     322.0779   1413.30139     448.6322     322.0779
   1413.28613     446.0773     321.2795   1413.28613     446.0773     321.2795
   1413.27087     443.5511     319.1049   1413.27087     443.5511     319.1049
   1413.25562     441.3850     318.0795   1413.25562     441.3850     318.0795
   1413.24036     439.4070     316.4669   1413.24036     439.4070     316.4669
   1413.22510     436.8399     315.1880   1413.22510     436.8399     315.1880
   1413.20984     433.3496     313.9674   1413.20984     433.3496     313.9674
   1413.19458     431.8785     312.8444   1413.19458     431.8785     312.8444
   1413.17932     428.8049     311.5859   1413.17932     428.8049     311.5859
   1413.16406     427.2595     310.7923   1413.16406     427.2595     310.7923
   1413.14880     424.0149     308.7461   1413.14880     424.0149     308.7461
   1413.13354     422.0053     308.2945   1413.13354     422.0053     308.2945
   1413.11829     418.9858     306.8102   1413.11829     418.9858     306.8102
   1413.10303     416.9248     305.5027   1413.10303     416.9248     305.5027
   1413.08777     414.3963     304.2258   1413.08777     414.3963     304.2258
   1413.07251     412.4665     303.4276   1413.07251     412.4665     303.4276
   1413.05725     410.6255     302.3907   1413.05725     410.6255     302.3907
   1413.04199     407.5063     300.7714   1413.04199     407.5063     300.7714
   1413.02673     406.6580     299.7302   1413.02673     406.6580     299.7302
   1413.01147     404.1156     298.9807   1413.01147     404.1156     298.9807
   1412.99622     401.7921     297.5827   1412.99622     401.7921     297.5827
   1412.98096     399.6293     296.7507   1412.98096     399.6293     296.7507
   1412.96570     398.1000     295.8667   1412.96570     398.1000     295.8667
   1412.95044     395.9070     294.7616   1412.95044     395.9070     294.7616
   1412.93518     393.6503     293.8414   1412.93518     393.6503     293.8414
   1412.91992     392.5240     292.9044   1412.91992     392.5240     292.9044
   1412.90466     390.0360     291.4249   1412.90466     390.0360     291.4249
   1412.88940     388.5647     290.8365   1412.88940     388.5647     290.8365
   1412.87415     386.8996     290.4547   1412.87415     386.8996     290.4547
   1412.85889     385.4428     288.9634   1412.85889     385.4428     288.9634
   1412.84363     383.3889     288.6550   1412.84363     383.3889     288.6550
   1412.82837     382.4093     287.6031   1412.82837     382.4093     287.6031
   1412.81311     381.0184     286.9496   1412.81311     381.0184     286.9496
   1412.79785     378.8339     286.0702   1412.79785     378.8339     286.0702
   1412.78259     377.4485     285.0782   1412.78259     377.4485     285.0782
   1412.76733     376.4513     285.1240   1412.76733     376.4513     285.1240
   1412.75208     374.3109     283.9805   1412.75208     374.3109     283.9805
   1412.73682     373.0555     283.5107   1412.73682     373.0555     283.5107
   1412.72156     372.2343     283.1472   1412.72156     372.2343     283.1472
   1412.70630     371.1162     282.5785   1412.70630     371.1162     282.5785
   1412.69104     369.3026     281.6581   1412.69104     369.3026     281.6581
   1412.67578     368.6960     281.0492   1412.67578     368.6960     281.0492
   1412.66052     367.5038     280.9859   1412.66052     367.5038     280.9859
   1412.64526     366.4095     280.3365   1412.64526     366.4095     280.3365
   1412.63000     366.0138     280.4122   1412.63000     366.0138     280.4122
   1412.61475     364.6733     279.6775   1412.61475     364.6733     279.6775
   1412.59949     363.5834     279.8975   1412.59949     363.5834     279.8975
   1412.58423     362.6322     278.7929   1412.58423     362.6322     278.7929
   1412.56897     362.5557     278.8328   1412.56897     362.5557     278.8328
   1412.55371     361.8040     278.7185   1412.55371     361.8040     278.7185
   1412.53845     361.0844     278.6243   1412.53845     361.0844     278.6243
   1412.52319     360.1545     278.2149   1412.52319     360.1545     278.2149
   1412.50793     359.5097     278.4095   1412.50793     359.5097     278.4095
   1412.49268     359.0442     278.0809   1412.49268     359.0442     278.0809
   1412.47742     358.8727     278.1271   1412.47742     358.8727     278.1271
   1412.46216     358.2966     278.0172   1412.46216     358.2966     278.0172
   1412.44690     357.4100     277.7044   1412.44690     357.4100     277.7044
   1412.43164     358.1310     277.9606   1412.43164     358.1310     277.9606
   1412.41638     357.5214     278.6221   1412.41638     357.5214     278.6221
   1412.40112     357.2872     278.3783   1412.40112     357.2872     278.3783
   1412.38586     357.1813     278.1914   1412.38586     357.1813     278.1914
   1412.37061     356.7984     278.8367   1412.37061     356.7984     278.8367
   1412.35535     356.9203     278.8463   1412.35535     356.9203     278.8463
   1412.34009     357.1406     279.5790   1412.34009     357.1406     279.5790
   1412.32483     357.4317     279.3772   1412.32483     357.4317     279.3772
   1412.30957     357.6441     279.8426   1412.30957     357.6441     279.8426
   1412.29431     358.0484     280.1982   1412.29431     358.0484     280.1982
   1412.27905     357.7774     280.5678   1412.27905     357.7774     280.5678
   1412.26379     358.3902     281.2892   1412.26379     358.3902     281.2892
   1412.24854     358.4093     281.9278   1412.24854     358.4093     281.9278
   1412.23328     359.2231     282.1309   1412.23328     359.2231     282.1309
   1412.21802     359.1954     282.4575   1412.21802     359.1954     282.4575
   1412.20276     360.2415     283.6761   1412.20276     360.2415     283.6761