#     FILENAME=!Skynet_57528_lach-hhg-179_20568_21002.cyb.fits
#     BASENAME=Skynet_57528_lach-hhg-179_20568_21002
#     SRC_NAME=lach-hhg-179
#     OBSERVER=hhgmadison16_9500
#     DATE_OBS=2016-05-20T18:38:09.120
#        OBSID=20568
#      SCANNUM=21002
#          MJD=57528.7775
#          UTC=67178
#     SCANTYPE=track
#     DATAMODE=HIRES
#     TUNEFREQ=1420.0000
# Actual_FREQ1=1420.0000
# Actual_FREQ2=1420.0000
#    LO1Tuning=6870.000
#     RFFILTER=1355_1435
#        OBSBW=-15.6250
#        NCHAN=1024 
#        FOCUS=37.0709
#           RA=05:43:10.92
#          DEC=29:47:20.30
#      RA(hrs)=5.719700
#     DEC(deg)=29.789000
#    AZIM(deg)=141.699
#    ELEV(deg)=79.264
#     IFattens=10.00, 9.00
#      WARNING=None
#    TCAL_XL1=7.9635
#    TCAL_YR1=9.1340
#    TCAL_XL2=7.9635
#    TCAL_YR2=9.1340
#     TRX_XL1=11.7060
#     TRX_YR1=11.7060
#     TRX_XL2=11.7060
#     TRX_YR2=11.7060
#        TAVE=1.0000
#Freq1(MHz)          XL1          YR1  Freq2(MHz)          XL2          YR2 

   1427.81250     379.0963     344.6519   1427.81250     379.0963     344.6519
   1427.79724     380.4173     346.1223   1427.79724     380.4173     346.1223
   1427.78198     381.2408     347.6949   1427.78198     381.2408     347.6949
   1427.76672     381.2479     349.0965   1427.76672     381.2479     349.0965
   1427.75146     382.2132     351.2592   1427.75146     382.2132     351.2592
   1427.73621     383.2027     353.5099   1427.73621     383.2027     353.5099
   1427.72095     384.2727     355.3835   1427.72095     384.2727     355.3835
   1427.70569     384.8169     356.9817   1427.70569     384.8169     356.9817
   1427.69043     385.6830     359.6317   1427.69043     385.6830     359.6317
   1427.67517     387.0348     361.0936   1427.67517     387.0348     361.0936
   1427.65991     388.4395     363.0173   1427.65991     388.4395     363.0173
   1427.64465     389.5653     365.0238   1427.64465     389.5653     365.0238
   1427.62939     390.7599     367.0523   1427.62939     390.7599     367.0523
   1427.61414     392.4359     369.6555   1427.61414     392.4359     369.6555
   1427.59888     393.2051     372.0064   1427.59888     393.2051     372.0064
   1427.58362     394.1421     373.5958   1427.58362     394.1421     373.5958
   1427.56836     396.0946     376.8291   1427.56836     396.0946     376.8291
   1427.55310     397.5577     378.3842   1427.55310     397.5577     378.3842
   1427.53784     398.6181     381.2827   1427.53784     398.6181     381.2827
   1427.52258     400.4431     383.8570   1427.52258     400.4431     383.8570
   1427.50732     402.8365     386.3871   1427.50732     402.8365     386.3871
   1427.49207     404.4712     388.5307   1427.49207     404.4712     388.5307
   1427.47681     405.5404     390.8423   1427.47681     405.5404     390.8423
   1427.46155     408.0585     393.3751   1427.46155     408.0585     393.3751
   1427.44629     409.7187     396.3748   1427.44629     409.7187     396.3748
   1427.43103     410.9372     398.5487   1427.43103     410.9372     398.5487
   1427.41577     412.3293     401.7143   1427.41577     412.3293     401.7143
   1427.40051     415.1180     403.9087   1427.40051     415.1180     403.9087
   1427.38525     416.3300     406.8669   1427.38525     416.3300     406.8669
   1427.37000     419.5335     409.4392   1427.37000     419.5335     409.4392
   1427.35474     421.4876     412.3749   1427.35474     421.4876     412.3749
   1427.33948     423.0364     415.1649   1427.33948     423.0364     415.1649
   1427.32422     426.0738     417.7174   1427.32422     426.0738     417.7174
   1427.30896     428.3191     420.9319   1427.30896     428.3191     420.9319
   1427.29370     429.8792     423.8312   1427.29370     429.8792     423.8312
   1427.27844     431.9508     425.9591   1427.27844     431.9508     425.9591
   1427.26318     434.7120     429.1800   1427.26318     434.7120     429.1800
   1427.24792     436.8474     432.1539   1427.24792     436.8474     432.1539
   1427.23267     439.3425     435.7338   1427.23267     439.3425     435.7338
   1427.21741     441.4984     438.4547   1427.21741     441.4984     438.4547
   1427.20215     443.5974     440.8115   1427.20215     443.5974     440.8115
   1427.18689     446.1905     443.5455   1427.18689     446.1905     443.5455
   1427.17163     448.9875     446.4750   1427.17163     448.9875     446.4750
   1427.15637     451.8690     449.1425   1427.15637     451.8690     449.1425
   1427.14111     454.7091     452.2884   1427.14111     454.7091     452.2884
   1427.12585     457.1290     455.5609   1427.12585     457.1290     455.5609
   1427.11060     459.6072     458.5808   1427.11060     459.6072     458.5808
   1427.09534     462.0494     461.0047   1427.09534     462.0494     461.0047
   1427.08008     465.0018     463.5547   1427.08008     465.0018     463.5547
   1427.06482     467.8833     468.1406   1427.06482     467.8833     468.1406
   1427.04956     470.3084     469.9200   1427.04956     470.3084     469.9200
   1427.03430     473.7494     473.1656   1427.03430     473.7494     473.1656
   1427.01904     475.7079     475.6282   1427.01904     475.7079     475.6282
   1427.00378     478.8925     479.8678   1427.00378     478.8925     479.8678
   1426.98853     481.9584     482.0147   1426.98853     481.9584     482.0147
   1426.97327     484.2798     484.9219   1426.97327     484.2798     484.9219
   1426.95801     487.4498     487.5750   1426.95801     487.4498     487.5750
   1426.94275     489.9535     490.8971   1426.94275     489.9535     490.8971
   1426.92749     493.8791     493.7993   1426.92749     493.8791     493.7993
   1426.91223     496.1569     496.5607   1426.91223     496.1569     496.5607
   1426.89697     498.7312     499.7957   1426.89697     498.7312     499.7957
   1426.88171     501.1385     502.2967   1426.88171     501.1385     502.2967
   1426.86646     504.3958     504.7419   1426.86646     504.3958     504.7419
   1426.85120     508.4351     507.4882   1426.85120     508.4351     507.4882
   1426.83594     510.6750     511.4157   1426.83594     510.6750     511.4157
   1426.82068     513.9510     514.0110   1426.82068     513.9510     514.0110
   1426.80542     517.2964     516.0083   1426.80542     517.2964     516.0083
   1426.79016     520.0056     519.0099   1426.79016     520.0056     519.0099
   1426.77490     523.4985     521.8077   1426.77490     523.4985     521.8077
   1426.75964     526.2293     523.8958   1426.75964     526.2293     523.8958
   1426.74438     529.8587     526.6082   1426.74438     529.8587     526.6082
   1426.72913     531.5966     529.2294   1426.72913     531.5966     529.2294
   1426.71387     534.8405     532.2646   1426.71387     534.8405     532.2646
   1426.69861     537.8452     534.5215   1426.69861     537.8452     534.5215
   1426.68335     541.9940     536.7231   1426.68335     541.9940     536.7231
   1426.66809     544.7952     539.8787   1426.66809     544.7952     539.8787
   1426.65283     547.6008     541.9060   1426.65283     547.6008     541.9060
   1426.63757     550.9545     544.8807   1426.63757     550.9545     544.8807
   1426.62231     555.0547     547.5383   1426.62231     555.0547     547.5383
   1426.60706     557.5226     548.9943   1426.60706     557.5226     548.9943
   1426.59180     560.9448     551.8466   1426.59180     560.9448     551.8466
   1426.57654     563.6480     554.1876   1426.57654     563.6480     554.1876
   1426.56128     566.0322     556.8708   1426.56128     566.0322     556.8708
   1426.54602     569.6771     559.6360   1426.54602     569.6771     559.6360
   1426.53076     572.9175     562.1880   1426.53076     572.9175     562.1880
   1426.51550     576.7261     563.5262   1426.51550     576.7261     563.5262
   1426.50024     578.5854     565.9610   1426.50024     578.5854     565.9610
   1426.48499     581.3885     568.3268   1426.48499     581.3885     568.3268
   1426.46973     585.2899     569.7457   1426.46973     585.2899     569.7457
   1426.45447     588.3094     572.2045   1426.45447     588.3094     572.2045
   1426.43921     592.1816     573.3047   1426.43921     592.1816     573.3047
   1426.42395     594.1031     576.3281   1426.42395     594.1031     576.3281
   1426.40869     597.2398     578.2350   1426.40869     597.2398     578.2350
   1426.39343     600.2071     580.2780   1426.39343     600.2071     580.2780
   1426.37817     603.6166     582.2803   1426.37817     603.6166     582.2803
   1426.36292     606.4374     584.6922   1426.36292     606.4374     584.6922
   1426.34766     609.5919     586.0330   1426.34766     609.5919     586.0330
   1426.33240     611.9064     588.4898   1426.33240     611.9064     588.4898
   1426.31714     615.3862     590.5791   1426.31714     615.3862     590.5791
   1426.30188     617.7888     589.6080   1426.30188     617.7888     589.6080
   1426.28662     621.2336     593.2687   1426.28662     621.2336     593.2687
   1426.27136     623.5459     595.2268   1426.27136     623.5459     595.2268
   1426.25610     626.6803     597.1443   1426.25610     626.6803     597.1443
   1426.24084     629.7731     598.5084   1426.24084     629.7731     598.5084
   1426.22559     633.2992     600.2835   1426.22559     633.2992     600.2835
   1426.21033     635.5239     601.7811   1426.21033     635.5239     601.7811
   1426.19507     637.7667     603.4341   1426.19507     637.7667     603.4341
   1426.17981     641.3409     604.6999   1426.17981     641.3409     604.6999
   1426.16455     643.9691     606.2979   1426.16455     643.9691     606.2979
   1426.14929     647.3989     608.1450   1426.14929     647.3989     608.1450
   1426.13403     650.0995     609.9257   1426.13403     650.0995     609.9257
   1426.11877     652.4404     610.3994   1426.11877     652.4404     610.3994
   1426.10352     654.0953     611.9036   1426.10352     654.0953     611.9036
   1426.08826     657.4288     613.5257   1426.08826     657.4288     613.5257
   1426.07300     661.5436     614.0733   1426.07300     661.5436     614.0733
   1426.05774     663.1880     615.4302   1426.05774     663.1880     615.4302
   1426.04248     665.0116     617.5054   1426.04248     665.0116     617.5054
   1426.02722     668.3051     618.5583   1426.02722     668.3051     618.5583
   1426.01196     669.7769     620.1558   1426.01196     669.7769     620.1558
   1425.99670     673.4286     620.5582   1425.99670     673.4286     620.5582
   1425.98145     675.3351     621.5517   1425.98145     675.3351     621.5517
   1425.96619     676.4503     623.3945   1425.96619     676.4503     623.3945
   1425.95093     679.9000     624.7953   1425.95093     679.9000     624.7953
   1425.93567     681.9322     624.6371   1425.93567     681.9322     624.6371
   1425.92041     684.5856     626.0778   1425.92041     684.5856     626.0778
   1425.90515     687.5015     626.0770   1425.90515     687.5015     626.0770
   1425.88989     690.0754     627.8799   1425.88989     690.0754     627.8799
   1425.87463     691.1308     628.6572   1425.87463     691.1308     628.6572
   1425.85938     692.6845     629.3274   1425.85938     692.6845     629.3274
   1425.84412     695.4293     630.1643   1425.84412     695.4293     630.1643
   1425.82886     697.8589     631.6323   1425.82886     697.8589     631.6323
   1425.81360     700.6023     631.8713   1425.81360     700.6023     631.8713
   1425.79834     702.7491     632.6456   1425.79834     702.7491     632.6456
   1425.78308     704.3899     632.7758   1425.78308     704.3899     632.7758
   1425.76782     707.1844     633.4855   1425.76782     707.1844     633.4855
   1425.75256     708.4711     634.6140   1425.75256     708.4711     634.6140
   1425.73730     711.0945     635.5054   1425.73730     711.0945     635.5054
   1425.72205     713.3430     635.3973   1425.72205     713.3430     635.3973
   1425.70679     713.9219     636.5255   1425.70679     713.9219     636.5255
   1425.69153     716.1844     637.5593   1425.69153     716.1844     637.5593
   1425.67627     719.0177     638.5930   1425.67627     719.0177     638.5930
   1425.66101     720.3492     638.2231   1425.66101     720.3492     638.2231
   1425.64575     722.6995     639.1348   1425.64575     722.6995     639.1348
   1425.63049     723.5526     640.0792   1425.63049     723.5526     640.0792
   1425.61523     725.5742     639.5267   1425.61523     725.5742     639.5267
   1425.59998     726.1691     639.3405   1425.59998     726.1691     639.3405
   1425.58472     729.1421     640.2655   1425.58472     729.1421     640.2655
   1425.56946     730.3060     640.6667   1425.56946     730.3060     640.6667
   1425.55420     732.0513     641.1467   1425.55420     732.0513     641.1467
   1425.53894     733.4138     641.4954   1425.53894     733.4138     641.4954
   1425.52368     735.1317     641.0235   1425.52368     735.1317     641.0235
   1425.50842     736.3807     642.1076   1425.50842     736.3807     642.1076
   1425.49316     738.3556     642.4873   1425.49316     738.3556     642.4873
   1425.47791     739.2865     643.2972   1425.47791     739.2865     643.2972
   1425.46265     741.8016     643.4035   1425.46265     741.8016     643.4035
   1425.44739     740.4713     642.1748   1425.44739     740.4713     642.1748
   1425.43213     743.2518     643.2823   1425.43213     743.2518     643.2823
   1425.41687     744.7214     643.7573   1425.41687     744.7214     643.7573
   1425.40161     745.2922     643.5699   1425.40161     745.2922     643.5699
   1425.38635     746.6022     644.4246   1425.38635     746.6022     644.4246
   1425.37109     747.6273     643.3927   1425.37109     747.6273     643.3927
   1425.35583     749.3272     644.7731   1425.35583     749.3272     644.7731
   1425.34058     749.9766     642.6166   1425.34058     749.9766     642.6166
   1425.32532     751.7135     644.0878   1425.32532     751.7135     644.0878
   1425.31006     752.7408     644.3866   1425.31006     752.7408     644.3866
   1425.29480     752.3488     643.4098   1425.29480     752.3488     643.4098
   1425.27954     753.3284     644.0234   1425.27954     753.3284     644.0234
   1425.26428     757.0590     644.1183   1425.26428     757.0590     644.1183
   1425.24902     757.0385     644.9500   1425.24902     757.0385     644.9500
   1425.23376     757.8151     643.3266   1425.23376     757.8151     643.3266
   1425.21851     758.5526     644.4162   1425.21851     758.5526     644.4162
   1425.20325     759.2099     643.1537   1425.20325     759.2099     643.1537
   1425.18799     759.5418     643.5270   1425.18799     759.5418     643.5270
   1425.17273     759.9464     643.6694   1425.17273     759.9464     643.6694
   1425.15747     760.8475     642.9650   1425.15747     760.8475     642.9650
   1425.14221     762.5602     642.4157   1425.14221     762.5602     642.4157
   1425.12695     760.3948     643.5911   1425.12695     760.3948     643.5911
   1425.11169     764.1555     643.2744   1425.11169     764.1555     643.2744
   1425.09644     761.7839     641.8664   1425.09644     761.7839     641.8664
   1425.08118     764.6223     641.5305   1425.08118     764.6223     641.5305
   1425.06592     765.9359     642.2283   1425.06592     765.9359     642.2283
   1425.05066     765.3268     641.4813   1425.05066     765.3268     641.4813
   1425.03540     766.3472     641.9396   1425.03540     766.3472     641.9396
   1425.02014     766.6965     641.5581   1425.02014     766.6965     641.5581
   1425.00488     766.6271     640.9636   1425.00488     766.6271     640.9636
   1424.98962     767.5167     639.9597   1424.98962     767.5167     639.9597
   1424.97437     768.2437     641.2308   1424.97437     768.2437     641.2308
   1424.95911     767.9806     640.2214   1424.95911     767.9806     640.2214
   1424.94385     767.8212     639.0696   1424.94385     767.8212     639.0696
   1424.92859     769.2441     639.8080   1424.92859     769.2441     639.8080
   1424.91333     770.5969     639.2900   1424.91333     770.5969     639.2900
   1424.89807     769.6923     639.4958   1424.89807     769.6923     639.4958
   1424.88281     769.9550     637.6129   1424.88281     769.9550     637.6129
   1424.86755     769.3790     637.9174   1424.86755     769.3790     637.9174
   1424.85229     769.8163     636.6436   1424.85229     769.8163     636.6436
   1424.83704     769.7863     636.8555   1424.83704     769.7863     636.8555
   1424.82178     772.0555     636.5854   1424.82178     772.0555     636.5854
   1424.80652     770.7266     635.6575   1424.80652     770.7266     635.6575
   1424.79126     771.1848     636.2525   1424.79126     771.1848     636.2525
   1424.77600     771.3068     634.9372   1424.77600     771.3068     634.9372
   1424.76074     771.7097     635.5085   1424.76074     771.7097     635.5085
   1424.74548     770.7569     634.3165   1424.74548     770.7569     634.3165
   1424.73022     770.2654     634.6389   1424.73022     770.2654     634.6389
   1424.71497     771.7454     633.9431   1424.71497     771.7454     633.9431
   1424.69971     771.4960     633.0720   1424.69971     771.4960     633.0720
   1424.68445     771.2595     632.9913   1424.68445     771.2595     632.9913
   1424.66919     770.6653     630.9513   1424.66919     770.6653     630.9513
   1424.65393     772.8275     631.2979   1424.65393     772.8275     631.2979
   1424.63867     770.7709     630.3384   1424.63867     770.7709     630.3384
   1424.62341     772.5018     629.9545   1424.62341     772.5018     629.9545
   1424.60815     770.7472     629.4481   1424.60815     770.7472     629.4481
   1424.59290     771.9423     629.9183   1424.59290     771.9423     629.9183
   1424.57764     771.3839     628.5115   1424.57764     771.3839     628.5115
   1424.56238     771.8978     627.9734   1424.56238     771.8978     627.9734
   1424.54712     771.4247     627.6705   1424.54712     771.4247     627.6705
   1424.53186     771.8848     626.6158   1424.53186     771.8848     626.6158
   1424.51660     771.5046     626.7597   1424.51660     771.5046     626.7597
   1424.50134     770.6243     626.1172   1424.50134     770.6243     626.1172
   1424.48608     769.3942     625.3163   1424.48608     769.3942     625.3163
   1424.47083     769.8179     625.0374   1424.47083     769.8179     625.0374
   1424.45557     769.9936     623.8645   1424.45557     769.9936     623.8645
   1424.44031     769.7031     624.0302   1424.44031     769.7031     624.0302
   1424.42505     768.7068     622.9539   1424.42505     768.7068     622.9539
   1424.40979     768.9152     622.6837   1424.40979     768.9152     622.6837
   1424.39453     769.1501     621.8069   1424.39453     769.1501     621.8069
   1424.37927     767.9159     621.7864   1424.37927     767.9159     621.7864
   1424.36401     767.1368     620.2067   1424.36401     767.1368     620.2067
   1424.34875     767.5532     620.5922   1424.34875     767.5532     620.5922
   1424.33350     766.5374     619.0775   1424.33350     766.5374     619.0775
   1424.31824     766.3557     619.1767   1424.31824     766.3557     619.1767
   1424.30298     766.7068     618.3237   1424.30298     766.7068     618.3237
   1424.28772     765.7016     617.6279   1424.28772     765.7016     617.6279
   1424.27246     766.3057     617.4446   1424.27246     766.3057     617.4446
   1424.25720     766.0106     615.4900   1424.25720     766.0106     615.4900
   1424.24194     765.0296     616.0609   1424.24194     765.0296     616.0609
   1424.22668     764.5741     613.6779   1424.22668     764.5741     613.6779
   1424.21143     764.7946     613.0841   1424.21143     764.7946     613.0841
   1424.19617     763.6578     613.8481   1424.19617     763.6578     613.8481
   1424.18091     763.5576     612.7516   1424.18091     763.5576     612.7516
   1424.16565     763.3094     612.1223   1424.16565     763.3094     612.1223
   1424.15039     763.3891     610.9187   1424.15039     763.3891     610.9187
   1424.13513     762.1553     611.6246   1424.13513     762.1553     611.6246
   1424.11987     762.1188     610.6771   1424.11987     762.1188     610.6771
   1424.10461     761.6204     609.8874   1424.10461     761.6204     609.8874
   1424.08936     761.1896     608.1687   1424.08936     761.1896     608.1687
   1424.07410     759.7629     610.1733   1424.07410     759.7629     610.1733
   1424.05884     760.6276     607.6024   1424.05884     760.6276     607.6024
   1424.04358     760.1942     607.0603   1424.04358     760.1942     607.0603
   1424.02832     759.6659     607.1606   1424.02832     759.6659     607.1606
   1424.01306     760.2181     607.3994   1424.01306     760.2181     607.3994
   1423.99780     758.1596     605.7919   1423.99780     758.1596     605.7919
   1423.98254     757.7056     603.6343   1423.98254     757.7056     603.6343
   1423.96729     757.9817     604.0396   1423.96729     757.9817     604.0396
   1423.95203     758.0259     602.8596   1423.95203     758.0259     602.8596
   1423.93677     756.2458     602.0372   1423.93677     756.2458     602.0372
   1423.92151     756.6588     601.2107   1423.92151     756.6588     601.2107
   1423.90625     755.0914     601.9255   1423.90625     755.0914     601.9255
   1423.89099     755.0096     600.6222   1423.89099     755.0096     600.6222
   1423.87573     754.7598     599.0535   1423.87573     754.7598     599.0535
   1423.86047     753.5302     599.7723   1423.86047     753.5302     599.7723
   1423.84521     754.7153     598.2642   1423.84521     754.7153     598.2642
   1423.82996     753.0426     597.5674   1423.82996     753.0426     597.5674
   1423.81470     752.5059     597.6765   1423.81470     752.5059     597.6765
   1423.79944     752.8276     597.9575   1423.79944     752.8276     597.9575
   1423.78418     752.2206     595.9396   1423.78418     752.2206     595.9396
   1423.76892     751.0334     595.2029   1423.76892     751.0334     595.2029
   1423.75366     750.4614     594.4197   1423.75366     750.4614     594.4197
   1423.73840     749.9192     593.5689   1423.73840     749.9192     593.5689
   1423.72314     750.1148     591.9706   1423.72314     750.1148     591.9706
   1423.70789     749.5335     593.4537   1423.70789     749.5335     593.4537
   1423.69263     748.0937     592.0222   1423.69263     748.0937     592.0222
   1423.67737     748.7903     591.5513   1423.67737     748.7903     591.5513
   1423.66211     747.6559     591.1121   1423.66211     747.6559     591.1121
   1423.64685     746.7895     590.2075   1423.64685     746.7895     590.2075
   1423.63159     747.4366     588.4456   1423.63159     747.4366     588.4456
   1423.61633     746.1539     588.2017   1423.61633     746.1539     588.2017
   1423.60107     745.8463     589.2679   1423.60107     745.8463     589.2679
   1423.58582     746.4930     586.9800   1423.58582     746.4930     586.9800
   1423.57056     744.7642     587.1201   1423.57056     744.7642     587.1201
   1423.55530     744.0568     585.7234   1423.55530     744.0568     585.7234
   1423.54004     744.2994     585.1777   1423.54004     744.2994     585.1777
   1423.52478     742.9026     584.5271   1423.52478     742.9026     584.5271
   1423.50952     742.6696     584.6359   1423.50952     742.6696     584.6359
   1423.49426     743.8505     582.7892   1423.49426     743.8505     582.7892
   1423.47900     743.6902     583.2178   1423.47900     743.6902     583.2178
   1423.46375     742.2183     581.2916   1423.46375     742.2183     581.2916
   1423.44849     741.1031     581.4558   1423.44849     741.1031     581.4558
   1423.43323     740.8712     580.4159   1423.43323     740.8712     580.4159
   1423.41797     740.9595     580.8350   1423.41797     740.9595     580.8350
   1423.40271     740.9434     580.5149   1423.40271     740.9434     580.5149
   1423.38745     740.1642     578.6336   1423.38745     740.1642     578.6336
   1423.37219     738.8098     578.5040   1423.37219     738.8098     578.5040
   1423.35693     739.9750     577.3627   1423.35693     739.9750     577.3627
   1423.34167     738.3300     576.1191   1423.34167     738.3300     576.1191
   1423.32642     739.2333     576.0403   1423.32642     739.2333     576.0403
   1423.31116     737.8707     575.2426   1423.31116     737.8707     575.2426
   1423.29590     737.7958     573.9379   1423.29590     737.7958     573.9379
   1423.28064     737.6742     574.0363   1423.28064     737.6742     574.0363
   1423.26538     736.8148     573.4534   1423.26538     736.8148     573.4534
   1423.25012     736.0749     573.5592   1423.25012     736.0749     573.5592
   1423.23486     735.8782     571.7884   1423.23486     735.8782     571.7884
   1423.21960     736.0488     571.4523   1423.21960     736.0488     571.4523
   1423.20435     735.3259     570.5827   1423.20435     735.3259     570.5827
   1423.18909     734.4205     569.3339   1423.18909     734.4205     569.3339
   1423.17383     735.5587     569.5551   1423.17383     735.5587     569.5551
   1423.15857     734.2109     569.2443   1423.15857     734.2109     569.2443
   1423.14331     734.9368     567.6413   1423.14331     734.9368     567.6413
   1423.12805     734.0999     567.1840   1423.12805     734.0999     567.1840
   1423.11279     733.5716     566.6068   1423.11279     733.5716     566.6068
   1423.09753     732.2112     565.1372   1423.09753     732.2112     565.1372
   1423.08228     732.9986     565.0741   1423.08228     732.9986     565.0741
   1423.06702     732.5576     564.8957   1423.06702     732.5576     564.8957
   1423.05176     731.7465     564.1592   1423.05176     731.7465     564.1592
   1423.03650     731.1493     562.0094   1423.03650     731.1493     562.0094
   1423.02124     732.1535     561.7693   1423.02124     732.1535     561.7693
   1423.00598     731.2015     561.9092   1423.00598     731.2015     561.9092
   1422.99072     731.2029     561.2288   1422.99072     731.2029     561.2288
   1422.97546     731.1476     560.7627   1422.97546     731.1476     560.7627
   1422.96021     731.0005     558.9521   1422.96021     731.0005     558.9521
   1422.94495     730.5623     559.2109   1422.94495     730.5623     559.2109
   1422.92969     729.9968     558.0557   1422.92969     729.9968     558.0557
   1422.91443     730.8406     557.5021   1422.91443     730.8406     557.5021
   1422.89917     729.9707     556.3359   1422.89917     729.9707     556.3359
   1422.88391     729.2158     555.6993   1422.88391     729.2158     555.6993
   1422.86865     729.5294     555.1072   1422.86865     729.5294     555.1072
   1422.85339     729.3123     554.7320   1422.85339     729.3123     554.7320
   1422.83813     727.9988     553.7866   1422.83813     727.9988     553.7866
   1422.82288     727.9056     554.1142   1422.82288     727.9056     554.1142
   1422.80762     728.4949     552.7664   1422.80762     728.4949     552.7664
   1422.79236     727.2118     551.4357   1422.79236     727.2118     551.4357
   1422.77710     727.8287     550.9658   1422.77710     727.8287     550.9658
   1422.76184     726.9048     550.5698   1422.76184     726.9048     550.5698
   1422.74658     727.9688     550.1415   1422.74658     727.9688     550.1415
   1422.73132     726.8708     548.7845   1422.73132     726.8708     548.7845
   1422.71606     726.4473     548.1985   1422.71606     726.4473     548.1985
   1422.70081     727.4595     547.3957   1422.70081     727.4595     547.3957
   1422.68555     727.2783     546.5918   1422.68555     727.2783     546.5918
   1422.67029     726.7107     545.9037   1422.67029     726.7107     545.9037
   1422.65503     726.1843     545.5231   1422.65503     726.1843     545.5231
   1422.63977     725.2266     544.2711   1422.63977     725.2266     544.2711
   1422.62451     726.2206     543.6044   1422.62451     726.2206     543.6044
   1422.60925     725.2019     542.6567   1422.60925     725.2019     542.6567
   1422.59399     725.4601     542.5671   1422.59399     725.4601     542.5671
   1422.57874     725.0016     540.4573   1422.57874     725.0016     540.4573
   1422.56348     723.8725     540.6593   1422.56348     723.8725     540.6593
   1422.54822     723.4777     540.3424   1422.54822     723.4777     540.3424
   1422.53296     725.7148     539.6122   1422.53296     725.7148     539.6122
   1422.51770     724.7885     538.2766   1422.51770     724.7885     538.2766
   1422.50244     724.5997     537.6837   1422.50244     724.5997     537.6837
   1422.48718     724.3344     537.2945   1422.48718     724.3344     537.2945
   1422.47192     725.0344     536.8289   1422.47192     725.0344     536.8289
   1422.45667     723.9470     535.3798   1422.45667     723.9470     535.3798
   1422.44141     724.5355     535.3629   1422.44141     724.5355     535.3629
   1422.42615     723.9730     534.8465   1422.42615     723.9730     534.8465
   1422.41089     724.3269     532.7585   1422.41089     724.3269     532.7585
   1422.39563     724.0743     532.9833   1422.39563     724.0743     532.9833
   1422.38037     724.3231     531.5181   1422.38037     724.3231     531.5181
   1422.36511     724.2388     531.6758   1422.36511     724.2388     531.6758
   1422.34985     723.3979     530.2719   1422.34985     723.3979     530.2719
   1422.33459     724.3360     529.1771   1422.33459     724.3360     529.1771
   1422.31934     723.6856     528.3762   1422.31934     723.6856     528.3762
   1422.30408     723.2282     528.3376   1422.30408     723.2282     528.3376
   1422.28882     724.0821     527.6500   1422.28882     724.0821     527.6500
   1422.27356     722.7371     526.7061   1422.27356     722.7371     526.7061
   1422.25830     723.6738     525.4407   1422.25830     723.6738     525.4407
   1422.24304     722.1696     525.6004   1422.24304     722.1696     525.6004
   1422.22778     722.4937     523.0902   1422.22778     722.4937     523.0902
   1422.21252     722.6562     522.7018   1422.21252     722.6562     522.7018
   1422.19727     722.5688     522.6121   1422.19727     722.5688     522.6121
   1422.18201     722.3630     521.4628   1422.18201     722.3630     521.4628
   1422.16675     722.4211     521.3182   1422.16675     722.4211     521.3182
   1422.15149     722.4246     520.0757   1422.15149     722.4246     520.0757
   1422.13623     722.7333     518.7582   1422.13623     722.7333     518.7582
   1422.12097     722.8704     517.8929   1422.12097     722.8704     517.8929
   1422.10571     721.2335     517.6812   1422.10571     721.2335     517.6812
   1422.09045     721.6826     516.1467   1422.09045     721.6826     516.1467
   1422.07520     722.9113     516.2947   1422.07520     722.9113     516.2947
   1422.05994     722.2183     515.5522   1422.05994     722.2183     515.5522
   1422.04468     721.1022     514.3334   1422.04468     721.1022     514.3334
   1422.02942     722.4370     513.4267   1422.02942     722.4370     513.4267
   1422.01416     721.4014     512.7297   1422.01416     721.4014     512.7297
   1421.99890     721.6396     511.6642   1421.99890     721.6396     511.6642
   1421.98364     721.3063     510.8933   1421.98364     721.3063     510.8933
   1421.96838     721.6497     509.5461   1421.96838     721.6497     509.5461
   1421.95312     720.5549     509.2732   1421.95312     720.5549     509.2732
   1421.93787     721.4311     508.7223   1421.93787     721.4311     508.7223
   1421.92261     720.4064     507.2044   1421.92261     720.4064     507.2044
   1421.90735     720.8064     506.8161   1421.90735     720.8064     506.8161
   1421.89209     719.7801     506.0032   1421.89209     719.7801     506.0032
   1421.87683     720.0540     505.1608   1421.87683     720.0540     505.1608
   1421.86157     720.9362     504.1285   1421.86157     720.9362     504.1285
   1421.84631     720.0331     503.0236   1421.84631     720.0331     503.0236
   1421.83105     721.1464     501.5852   1421.83105     721.1464     501.5852
   1421.81580     720.9886     501.3225   1421.81580     720.9886     501.3225
   1421.80054     721.5375     500.7845   1421.80054     721.5375     500.7845
   1421.78528     720.5560     500.7652   1421.78528     720.5560     500.7652
   1421.77002     718.8035     499.3566   1421.77002     718.8035     499.3566
   1421.75476     718.9283     499.0065   1421.75476     718.9283     499.0065
   1421.73950     719.7041     497.1368   1421.73950     719.7041     497.1368
   1421.72424     720.9604     496.5301   1421.72424     720.9604     496.5301
   1421.70898     719.6237     495.5480   1421.70898     719.6237     495.5480
   1421.69373     719.5587     494.0427   1421.69373     719.5587     494.0427
   1421.67847     719.2802     494.0824   1421.67847     719.2802     494.0824
   1421.66321     719.7430     493.5615   1421.66321     719.7430     493.5615
   1421.64795     718.6029     491.7702   1421.64795     718.6029     491.7702
   1421.63269     718.9835     491.3290   1421.63269     718.9835     491.3290
   1421.61743     718.1138     490.6512   1421.61743     718.1138     490.6512
   1421.60217     718.7692     488.9019   1421.60217     718.7692     488.9019
   1421.58691     718.7450     488.6080   1421.58691     718.7450     488.6080
   1421.57166     718.5654     487.4328   1421.57166     718.5654     487.4328
   1421.55640     718.0403     487.3343   1421.55640     718.0403     487.3343
   1421.54114     718.3799     485.6952   1421.54114     718.3799     485.6952
   1421.52588     718.7228     485.3549   1421.52588     718.7228     485.3549
   1421.51062     717.5250     484.5934   1421.51062     717.5250     484.5934
   1421.49536     718.7197     483.5338   1421.49536     718.7197     483.5338
   1421.48010     717.2458     484.1511   1421.48010     717.2458     484.1511
   1421.46484     717.7535     481.8104   1421.46484     717.7535     481.8104
   1421.44958     718.0808     481.2463   1421.44958     718.0808     481.2463
   1421.43433     717.1302     480.9922   1421.43433     717.1302     480.9922
   1421.41907     716.7123     479.7065   1421.41907     716.7123     479.7065
   1421.40381     716.4276     477.4887   1421.40381     716.4276     477.4887
   1421.38855     716.4180     477.4857   1421.38855     716.4180     477.4857
   1421.37329     715.6150     476.2868   1421.37329     715.6150     476.2868
   1421.35803     716.9472     476.4534   1421.35803     716.9472     476.4534
   1421.34277     715.7468     475.0769   1421.34277     715.7468     475.0769
   1421.32751     716.7540     474.2423   1421.32751     716.7540     474.2423
   1421.31226     716.2828     473.6068   1421.31226     716.2828     473.6068
   1421.29700     715.6167     472.0728   1421.29700     715.6167     472.0728
   1421.28174     715.2324     471.4513   1421.28174     715.2324     471.4513
   1421.26648     714.4741     470.6273   1421.26648     714.4741     470.6273
   1421.25122     715.2440     469.7054   1421.25122     715.2440     469.7054
   1421.23596     715.5707     469.5369   1421.23596     715.5707     469.5369
   1421.22070     714.9946     467.8955   1421.22070     714.9946     467.8955
   1421.20544     715.4210     466.4548   1421.20544     715.4210     466.4548
   1421.19019     715.1793     466.0172   1421.19019     715.1793     466.0172
   1421.17493     715.7929     465.3354   1421.17493     715.7929     465.3354
   1421.15967     714.0637     464.3887   1421.15967     714.0637     464.3887
   1421.14441     713.3876     463.7268   1421.14441     713.3876     463.7268
   1421.12915     713.9316     462.3345   1421.12915     713.9316     462.3345
   1421.11389     713.7335     462.1025   1421.11389     713.7335     462.1025
   1421.09863     713.7921     461.3192   1421.09863     713.7921     461.3192
   1421.08337     713.9016     460.3123   1421.08337     713.9016     460.3123
   1421.06812     712.9152     460.3954   1421.06812     712.9152     460.3954
   1421.05286     712.4875     458.8217   1421.05286     712.4875     458.8217
   1421.03760     714.6359     457.4319   1421.03760     714.6359     457.4319
   1421.02234     711.4554     457.2131   1421.02234     711.4554     457.2131
   1421.00708     712.5015     455.9303   1421.00708     712.5015     455.9303
   1420.99182     713.3620     455.8933   1420.99182     713.3620     455.8933
   1420.97656     712.5735     454.4116   1420.97656     712.5735     454.4116
   1420.96130     712.8625     453.4113   1420.96130     712.8625     453.4113
   1420.94604     712.4841     452.9220   1420.94604     712.4841     452.9220
   1420.93079     710.8031     452.0517   1420.93079     710.8031     452.0517
   1420.91553     712.3428     451.3484   1420.91553     712.3428     451.3484
   1420.90027     711.5577     450.3206   1420.90027     711.5577     450.3206
   1420.88501     711.5081     449.4465   1420.88501     711.5081     449.4465
   1420.86975     711.7397     448.7189   1420.86975     711.7397     448.7189
   1420.85449     710.4820     448.3161   1420.85449     710.4820     448.3161
   1420.83923     711.0788     448.2670   1420.83923     711.0788     448.2670
   1420.82397     710.7622     446.1966   1420.82397     710.7622     446.1966
   1420.80872     709.7708     446.2787   1420.80872     709.7708     446.2787
   1420.79346     710.0461     445.6797   1420.79346     710.0461     445.6797
   1420.77820     711.4747     445.1272   1420.77820     711.4747     445.1272
   1420.76294     710.9253     444.0832   1420.76294     710.9253     444.0832
   1420.74768     711.2301     443.8393   1420.74768     711.2301     443.8393
   1420.73242     710.9279     442.2421   1420.73242     710.9279     442.2421
   1420.71716     711.0049     442.2840   1420.71716     711.0049     442.2840
   1420.70190     711.1548     441.4452   1420.70190     711.1548     441.4452
   1420.68665     710.8742     440.5880   1420.68665     710.8742     440.5880
   1420.67139     712.3578     439.2901   1420.67139     712.3578     439.2901
   1420.65613     711.2489     440.0948   1420.65613     711.2489     440.0948
   1420.64087     711.5828     438.9101   1420.64087     711.5828     438.9101
   1420.62561     711.1621     438.7704   1420.62561     711.1621     438.7704
   1420.61035     713.6210     438.5859   1420.61035     713.6210     438.5859
   1420.59509     714.6847     437.5083   1420.59509     714.6847     437.5083
   1420.57983     715.4131     439.0356   1420.57983     715.4131     439.0356
   1420.56458     718.4913     439.0615   1420.56458     718.4913     439.0615
   1420.54932     723.2398     440.7680   1420.54932     723.2398     440.7680
   1420.53406     726.2842     442.5278   1420.53406     726.2842     442.5278
   1420.51880     732.1749     444.4253   1420.51880     732.1749     444.4253
   1420.50354     740.6881     449.3573   1420.50354     740.6881     449.3573
   1420.48828     748.9559     454.6170   1420.48828     748.9559     454.6170
   1420.47302     764.3434     463.3210   1420.47302     764.3434     463.3210
   1420.45776     787.5040     475.6093   1420.45776     787.5040     475.6093
   1420.44250     823.9431     496.5476   1420.44250     823.9431     496.5476
   1420.42725     874.1449     524.0668   1420.42725     874.1449     524.0668
   1420.41199     965.5599     578.1359   1420.41199     965.5599     578.1359
   1420.39673    1153.4819     686.7927   1420.39673    1153.4819     686.7927
   1420.38147    1524.9232     903.7266   1420.38147    1524.9232     903.7266
   1420.36621    1845.3378    1086.5238   1420.36621    1845.3378    1086.5238
   1420.35095    2058.1682    1211.1990   1420.35095    2058.1682    1211.1990
   1420.33569    2255.6743    1323.3416   1420.33569    2255.6743    1323.3416
   1420.32043    2500.5767    1462.7896   1420.32043    2500.5767    1462.7896
   1420.30518    2606.2332    1525.1975   1420.30518    2606.2332    1525.1975
   1420.28992    2644.4985    1543.5869   1420.28992    2644.4985    1543.5869
   1420.27466    2470.8401    1439.9104   1420.27466    2470.8401    1439.9104
   1420.25940    2154.3850    1258.4321   1420.25940    2154.3850    1258.4321
   1420.24414    1425.9524     836.5160   1420.24414    1425.9524     836.5160
   1420.22888    1009.5071     594.2194   1420.22888    1009.5071     594.2194
   1420.21362     846.9987     499.7720   1420.21362     846.9987     499.7720
   1420.19836     778.7794     459.7217   1420.19836     778.7794     459.7217
   1420.18311     744.2341     439.2419   1420.18311     744.2341     439.2419
   1420.16785     728.4707     429.9662   1420.16785     728.4707     429.9662
   1420.15259     719.8483     423.8377   1420.15259     719.8483     423.8377
   1420.13733     714.8714     421.4102   1420.13733     714.8714     421.4102
   1420.12207     711.2722     418.5430   1420.12207     711.2722     418.5430
   1420.10681     708.3394     417.1757   1420.10681     708.3394     417.1757
   1420.09155     705.0848     414.9075   1420.09155     705.0848     414.9075
   1420.07629     704.2524     413.2809   1420.07629     704.2524     413.2809
   1420.06104     703.1671     411.6824   1420.06104     703.1671     411.6824
   1420.04578     701.2715     410.8467   1420.04578     701.2715     410.8467
   1420.03052     700.2823     410.5551   1420.03052     700.2823     410.5551
   1420.01526     702.7764     410.0347   1420.01526     702.7764     410.0347
   1420.00000     703.5443     410.5456   1420.00000     703.5443     410.5456
   1419.98474     704.3126     411.0564   1419.98474     704.3126     411.0564
   1419.96948     702.0927     408.9274   1419.96948     702.0927     408.9274
   1419.95422     699.6528     406.3069   1419.95422     699.6528     406.3069
   1419.93896     698.2217     405.9935   1419.93896     698.2217     405.9935
   1419.92371     697.7637     404.8442   1419.92371     697.7637     404.8442
   1419.90845     698.0428     405.2635   1419.90845     698.0428     405.2635
   1419.89319     699.6838     404.6501   1419.89319     699.6838     404.6501
   1419.87793     699.4917     403.0666   1419.87793     699.4917     403.0666
   1419.86267     698.5429     402.4475   1419.86267     698.5429     402.4475
   1419.84741     698.0678     402.2586   1419.84741     698.0678     402.2586
   1419.83215     696.8100     401.6475   1419.83215     696.8100     401.6475
   1419.81689     698.6492     400.5022   1419.81689     698.6492     400.5022
   1419.80164     698.8059     400.9975   1419.80164     698.8059     400.9975
   1419.78638     697.7847     400.1214   1419.78638     697.7847     400.1214
   1419.77112     698.2332     399.7684   1419.77112     698.2332     399.7684
   1419.75586     697.0701     399.0908   1419.75586     697.0701     399.0908
   1419.74060     697.1460     399.0264   1419.74060     697.1460     399.0264
   1419.72534     696.7070     398.5867   1419.72534     696.7070     398.5867
   1419.71008     696.8669     397.8330   1419.71008     696.8669     397.8330
   1419.69482     697.1750     397.4081   1419.69482     697.1750     397.4081
   1419.67957     697.1009     397.1280   1419.67957     697.1009     397.1280
   1419.66431     697.5912     396.6722   1419.66431     697.5912     396.6722
   1419.64905     697.4791     396.5468   1419.64905     697.4791     396.5468
   1419.63379     698.4131     396.8595   1419.63379     698.4131     396.8595
   1419.61853     697.4478     395.1306   1419.61853     697.4478     395.1306
   1419.60327     698.1209     395.5166   1419.60327     698.1209     395.5166
   1419.58801     697.8004     395.1947   1419.58801     697.8004     395.1947
   1419.57275     699.2217     394.3363   1419.57275     699.2217     394.3363
   1419.55750     697.3751     394.8677   1419.55750     697.3751     394.8677
   1419.54224     698.3701     394.3948   1419.54224     698.3701     394.3948
   1419.52698     697.4528     394.2097   1419.52698     697.4528     394.2097
   1419.51172     698.8172     393.4544   1419.51172     698.8172     393.4544
   1419.49646     698.4066     393.0263   1419.49646     698.4066     393.0263
   1419.48120     699.0170     393.7675   1419.48120     699.0170     393.7675
   1419.46594     697.9322     392.8969   1419.46594     697.9322     392.8969
   1419.45068     699.3462     393.0728   1419.45068     699.3462     393.0728
   1419.43542     699.5820     392.8467   1419.43542     699.5820     392.8467
   1419.42017     699.3730     392.3522   1419.42017     699.3730     392.3522
   1419.40491     699.8707     392.7833   1419.40491     699.8707     392.7833
   1419.38965     699.8488     391.5122   1419.38965     699.8488     391.5122
   1419.37439     701.3773     392.1559   1419.37439     701.3773     392.1559
   1419.35913     699.9532     391.5781   1419.35913     699.9532     391.5781
   1419.34387     700.8802     391.5524   1419.34387     700.8802     391.5524
   1419.32861     700.9240     391.3817   1419.32861     700.9240     391.3817
   1419.31335     701.0484     392.0899   1419.31335     701.0484     392.0899
   1419.29810     700.8911     391.4204   1419.29810     700.8911     391.4204
   1419.28284     701.9393     390.7266   1419.28284     701.9393     390.7266
   1419.26758     701.8108     391.1450   1419.26758     701.8108     391.1450
   1419.25232     702.3900     390.7117   1419.25232     702.3900     390.7117
   1419.23706     702.8831     390.9439   1419.23706     702.8831     390.9439
   1419.22180     703.0556     390.4574   1419.22180     703.0556     390.4574
   1419.20654     703.0902     390.6767   1419.20654     703.0902     390.6767
   1419.19128     704.5701     390.2213   1419.19128     704.5701     390.2213
   1419.17603     703.7682     390.1836   1419.17603     703.7682     390.1836
   1419.16077     705.0052     391.0768   1419.16077     705.0052     391.0768
   1419.14551     704.6333     390.0082   1419.14551     704.6333     390.0082
   1419.13025     705.4211     390.7943   1419.13025     705.4211     390.7943
   1419.11499     706.2550     390.7598   1419.11499     706.2550     390.7598
   1419.09973     706.7404     390.0194   1419.09973     706.7404     390.0194
   1419.08447     707.6637     390.8923   1419.08447     707.6637     390.8923
   1419.06921     707.0118     391.3640   1419.06921     707.0118     391.3640
   1419.05396     707.8763     390.4538   1419.05396     707.8763     390.4538
   1419.03870     708.7493     390.5560   1419.03870     708.7493     390.5560
   1419.02344     707.8375     391.0738   1419.02344     707.8375     391.0738
   1419.00818     708.3956     390.5652   1419.00818     708.3956     390.5652
   1418.99292     709.2248     390.4532   1418.99292     709.2248     390.4532
   1418.97766     709.3247     390.5008   1418.97766     709.3247     390.5008
   1418.96240     709.5358     390.3826   1418.96240     709.5358     390.3826
   1418.94714     710.9892     391.1415   1418.94714     710.9892     391.1415
   1418.93188     710.6080     391.3148   1418.93188     710.6080     391.3148
   1418.91663     711.1514     391.5129   1418.91663     711.1514     391.5129
   1418.90137     711.4174     391.3542   1418.90137     711.4174     391.3542
   1418.88611     711.6618     391.6045   1418.88611     711.6618     391.6045
   1418.87085     712.7492     391.7504   1418.87085     712.7492     391.7504
   1418.85559     713.1239     392.1533   1418.85559     713.1239     392.1533
   1418.84033     712.8578     391.4792   1418.84033     712.8578     391.4792
   1418.82507     713.6483     392.6219   1418.82507     713.6483     392.6219
   1418.80981     713.8467     392.5674   1418.80981     713.8467     392.5674
   1418.79456     714.7242     392.1309   1418.79456     714.7242     392.1309
   1418.77930     714.6101     392.2974   1418.77930     714.6101     392.2974
   1418.76404     715.8013     392.2897   1418.76404     715.8013     392.2897
   1418.74878     716.2853     393.3750   1418.74878     716.2853     393.3750
   1418.73352     717.3474     393.8130   1418.73352     717.3474     393.8130
   1418.71826     717.6641     394.2427   1418.71826     717.6641     394.2427
   1418.70300     717.5037     393.7488   1418.70300     717.5037     393.7488
   1418.68774     718.8493     394.1645   1418.68774     718.8493     394.1645
   1418.67249     719.2302     394.4270   1418.67249     719.2302     394.4270
   1418.65723     719.6011     394.6473   1418.65723     719.6011     394.6473
   1418.64197     720.5230     395.1884   1418.64197     720.5230     395.1884
   1418.62671     721.5061     395.7656   1418.62671     721.5061     395.7656
   1418.61145     720.3636     396.4283   1418.61145     720.3636     396.4283
   1418.59619     721.6418     396.3330   1418.59619     721.6418     396.3330
   1418.58093     721.8968     396.5345   1418.58093     721.8968     396.5345
   1418.56567     724.3053     397.1933   1418.56567     724.3053     397.1933
   1418.55042     723.7004     397.1213   1418.55042     723.7004     397.1213
   1418.53516     724.3392     398.1564   1418.53516     724.3392     398.1564
   1418.51990     726.0310     398.3078   1418.51990     726.0310     398.3078
   1418.50464     726.8480     398.7773   1418.50464     726.8480     398.7773
   1418.48938     726.4921     399.3938   1418.48938     726.4921     399.3938
   1418.47412     726.1284     399.8816   1418.47412     726.1284     399.8816
   1418.45886     727.4688     399.5489   1418.45886     727.4688     399.5489
   1418.44360     727.8624     399.9816   1418.44360     727.8624     399.9816
   1418.42834     729.6826     400.7063   1418.42834     729.6826     400.7063
   1418.41309     729.5313     401.4156   1418.41309     729.5313     401.4156
   1418.39783     730.6227     402.1820   1418.39783     730.6227     402.1820
   1418.38257     731.0005     401.7361   1418.38257     731.0005     401.7361
   1418.36731     732.6531     402.9907   1418.36731     732.6531     402.9907
   1418.35205     732.7504     402.8983   1418.35205     732.7504     402.8983
   1418.33679     733.3739     404.2495   1418.33679     733.3739     404.2495
   1418.32153     733.3222     404.9819   1418.32153     733.3222     404.9819
   1418.30627     734.1982     405.8701   1418.30627     734.1982     405.8701
   1418.29102     735.3055     405.1229   1418.29102     735.3055     405.1229
   1418.27576     735.7795     405.5609   1418.27576     735.7795     405.5609
   1418.26050     735.9573     406.5402   1418.26050     735.9573     406.5402
   1418.24524     737.2684     407.5969   1418.24524     737.2684     407.5969
   1418.22998     738.7257     407.6143   1418.22998     738.7257     407.6143
   1418.21472     738.7599     408.8641   1418.21472     738.7599     408.8641
   1418.19946     738.9485     409.0647   1418.19946     738.9485     409.0647
   1418.18420     740.1254     409.6875   1418.18420     740.1254     409.6875
   1418.16895     740.5233     409.9456   1418.16895     740.5233     409.9456
   1418.15369     742.6605     411.0898   1418.15369     742.6605     411.0898
   1418.13843     742.5055     411.9763   1418.13843     742.5055     411.9763
   1418.12317     743.1432     411.9096   1418.12317     743.1432     411.9096
   1418.10791     744.4233     413.3123   1418.10791     744.4233     413.3123
   1418.09265     745.6221     413.4755   1418.09265     745.6221     413.4755
   1418.07739     745.5219     414.4922   1418.07739     745.5219     414.4922
   1418.06213     747.7105     415.5528   1418.06213     747.7105     415.5528
   1418.04688     746.4528     415.6317   1418.04688     746.4528     415.6317
   1418.03162     748.6376     416.4671   1418.03162     748.6376     416.4671
   1418.01636     749.3762     418.0049   1418.01636     749.3762     418.0049
   1418.00110     749.9077     417.8707   1418.00110     749.9077     417.8707
   1417.98584     750.8267     418.8774   1417.98584     750.8267     418.8774
   1417.97058     752.2466     420.2479   1417.97058     752.2466     420.2479
   1417.95532     752.2671     420.0667   1417.95532     752.2671     420.0667
   1417.94006     753.7208     420.7920   1417.94006     753.7208     420.7920
   1417.92480     754.8599     421.2699   1417.92480     754.8599     421.2699
   1417.90955     754.7034     422.6729   1417.90955     754.7034     422.6729
   1417.89429     754.3549     423.7581   1417.89429     754.3549     423.7581
   1417.87903     756.8546     425.0197   1417.87903     756.8546     425.0197
   1417.86377     757.6334     425.1678   1417.86377     757.6334     425.1678
   1417.84851     758.5970     426.3679   1417.84851     758.5970     426.3679
   1417.83325     759.4399     426.6666   1417.83325     759.4399     426.6666
   1417.81799     759.1581     427.6583   1417.81799     759.1581     427.6583
   1417.80273     760.2095     428.7798   1417.80273     760.2095     428.7798
   1417.78748     760.5158     429.2311   1417.78748     760.5158     429.2311
   1417.77222     762.4426     431.0143   1417.77222     762.4426     431.0143
   1417.75696     762.7120     431.1066   1417.75696     762.7120     431.1066
   1417.74170     763.8491     432.5679   1417.74170     763.8491     432.5679
   1417.72644     764.7723     433.2105   1417.72644     764.7723     433.2105
   1417.71118     765.0910     433.9530   1417.71118     765.0910     433.9530
   1417.69592     765.3046     434.1488   1417.69592     765.3046     434.1488
   1417.68066     766.6917     436.1154   1417.68066     766.6917     436.1154
   1417.66541     766.2894     436.2016   1417.66541     766.2894     436.2016
   1417.65015     767.9241     437.3923   1417.65015     767.9241     437.3923
   1417.63489     769.4844     438.0878   1417.63489     769.4844     438.0878
   1417.61963     770.3574     439.3338   1417.61963     770.3574     439.3338
   1417.60437     771.3552     440.9640   1417.60437     771.3552     440.9640
   1417.58911     770.9382     440.7018   1417.58911     770.9382     440.7018
   1417.57385     772.1491     442.2727   1417.57385     772.1491     442.2727
   1417.55859     773.3995     443.8069   1417.55859     773.3995     443.8069
   1417.54333     774.7319     444.4364   1417.54333     774.7319     444.4364
   1417.52808     775.7608     444.6892   1417.52808     775.7608     444.6892
   1417.51282     776.0378     445.9948   1417.51282     776.0378     445.9948
   1417.49756     776.5750     447.1638   1417.49756     776.5750     447.1638
   1417.48230     776.8457     448.6151   1417.48230     776.8457     448.6151
   1417.46704     778.3351     448.9533   1417.46704     778.3351     448.9533
   1417.45178     780.6194     450.2291   1417.45178     780.6194     450.2291
   1417.43652     780.0753     451.1877   1417.43652     780.0753     451.1877
   1417.42126     779.3284     452.2280   1417.42126     779.3284     452.2280
   1417.40601     781.5296     454.1378   1417.40601     781.5296     454.1378
   1417.39075     782.3021     454.2932   1417.39075     782.3021     454.2932
   1417.37549     782.5070     455.1979   1417.37549     782.5070     455.1979
   1417.36023     784.5858     455.6092   1417.36023     784.5858     455.6092
   1417.34497     784.1797     456.8105   1417.34497     784.1797     456.8105
   1417.32971     783.5819     457.5695   1417.32971     783.5819     457.5695
   1417.31445     785.2717     459.5521   1417.31445     785.2717     459.5521
   1417.29919     785.1706     459.7278   1417.29919     785.1706     459.7278
   1417.28394     786.1089     460.9829   1417.28394     786.1089     460.9829
   1417.26868     787.1754     462.0157   1417.26868     787.1754     462.0157
   1417.25342     788.4632     463.4227   1417.25342     788.4632     463.4227
   1417.23816     788.2100     464.3644   1417.23816     788.2100     464.3644
   1417.22290     791.1852     465.7353   1417.22290     791.1852     465.7353
   1417.20764     790.6125     466.8132   1417.20764     790.6125     466.8132
   1417.19238     790.6714     467.5457   1417.19238     790.6714     467.5457
   1417.17712     792.5162     469.2051   1417.17712     792.5162     469.2051
   1417.16187     792.3491     469.0825   1417.16187     792.3491     469.0825
   1417.14661     793.1693     470.6569   1417.14661     793.1693     470.6569
   1417.13135     792.0237     471.7853   1417.13135     792.0237     471.7853
   1417.11609     793.4410     472.1145   1417.11609     793.4410     472.1145
   1417.10083     794.0691     472.8679   1417.10083     794.0691     472.8679
   1417.08557     793.7317     474.2846   1417.08557     793.7317     474.2846
   1417.07031     796.0234     475.2996   1417.07031     796.0234     475.2996
   1417.05505     796.4474     476.2407   1417.05505     796.4474     476.2407
   1417.03979     796.2918     477.4643   1417.03979     796.2918     477.4643
   1417.02454     797.2864     478.2050   1417.02454     797.2864     478.2050
   1417.00928     797.8550     478.8066   1417.00928     797.8550     478.8066
   1416.99402     798.7146     480.5652   1416.99402     798.7146     480.5652
   1416.97876     799.5211     481.4653   1416.97876     799.5211     481.4653
   1416.96350     800.0882     483.3028   1416.96350     800.0882     483.3028
   1416.94824     799.7906     482.7715   1416.94824     799.7906     482.7715
   1416.93298     799.2917     483.6548   1416.93298     799.2917     483.6548
   1416.91772     800.3934     485.3857   1416.91772     800.3934     485.3857
   1416.90247     801.4186     485.4397   1416.90247     801.4186     485.4397
   1416.88721     800.8663     486.8909   1416.88721     800.8663     486.8909
   1416.87195     801.5117     487.7120   1416.87195     801.5117     487.7120
   1416.85669     801.2726     488.2716   1416.85669     801.2726     488.2716
   1416.84143     800.7675     489.5775   1416.84143     800.7675     489.5775
   1416.82617     802.1606     491.4050   1416.82617     802.1606     491.4050
   1416.81091     802.0556     491.5238   1416.81091     802.0556     491.5238
   1416.79565     803.2919     492.1118   1416.79565     803.2919     492.1118
   1416.78040     802.9586     493.1493   1416.78040     802.9586     493.1493
   1416.76514     804.1440     493.6606   1416.76514     804.1440     493.6606
   1416.74988     803.8657     494.7311   1416.74988     803.8657     494.7311
   1416.73462     804.1989     494.7102   1416.73462     804.1989     494.7102
   1416.71936     802.8095     496.2027   1416.71936     802.8095     496.2027
   1416.70410     804.6030     497.1031   1416.70410     804.6030     497.1031
   1416.68884     804.9953     497.9386   1416.68884     804.9953     497.9386
   1416.67358     804.4996     498.8799   1416.67358     804.4996     498.8799
   1416.65833     805.6198     499.5973   1416.65833     805.6198     499.5973
   1416.64307     805.0222     499.7966   1416.64307     805.0222     499.7966
   1416.62781     805.5845     500.1193   1416.62781     805.5845     500.1193
   1416.61255     806.4578     501.4790   1416.61255     806.4578     501.4790
   1416.59729     805.2718     501.8195   1416.59729     805.2718     501.8195
   1416.58203     804.9637     502.2217   1416.58203     804.9637     502.2217
   1416.56677     804.6575     503.4276   1416.56677     804.6575     503.4276
   1416.55151     804.7985     503.6089   1416.55151     804.7985     503.6089
   1416.53625     805.7485     504.6330   1416.53625     805.7485     504.6330
   1416.52100     805.8176     505.1555   1416.52100     805.8176     505.1555
   1416.50574     805.9323     505.3719   1416.50574     805.9323     505.3719
   1416.49048     805.4227     505.4924   1416.49048     805.4227     505.4924
   1416.47522     807.0137     507.4901   1416.47522     807.0137     507.4901
   1416.45996     806.2355     508.0751   1416.45996     806.2355     508.0751
   1416.44470     804.7695     507.3987   1416.44470     804.7695     507.3987
   1416.42944     804.5226     507.7699   1416.42944     804.5226     507.7699
   1416.41418     804.1577     509.2403   1416.41418     804.1577     509.2403
   1416.39893     805.0508     509.8056   1416.39893     805.0508     509.8056
   1416.38367     804.7441     509.1292   1416.38367     804.7441     509.1292
   1416.36841     803.9167     510.1642   1416.36841     803.9167     510.1642
   1416.35315     805.5989     510.0621   1416.35315     805.5989     510.0621
   1416.33789     804.4948     511.2086   1416.33789     804.4948     511.2086
   1416.32263     803.6227     511.4046   1416.32263     803.6227     511.4046
   1416.30737     803.0732     510.9482   1416.30737     803.0732     510.9482
   1416.29211     802.6178     512.0895   1416.29211     802.6178     512.0895
   1416.27686     803.1140     512.0996   1416.27686     803.1140     512.0996
   1416.26160     804.6495     512.5352   1416.26160     804.6495     512.5352
   1416.24634     801.9213     512.9153   1416.24634     801.9213     512.9153
   1416.23108     803.5573     512.7878   1416.23108     803.5573     512.7878
   1416.21582     801.2738     512.6481   1416.21582     801.2738     512.6481
   1416.20056     801.8091     513.4155   1416.20056     801.8091     513.4155
   1416.18530     801.6481     513.8679   1416.18530     801.6481     513.8679
   1416.17004     800.3427     514.2993   1416.17004     800.3427     514.2993
   1416.15479     799.8231     514.0856   1416.15479     799.8231     514.0856
   1416.13953     800.9348     514.9861   1416.13953     800.9348     514.9861
   1416.12427     799.4731     514.8136   1416.12427     799.4731     514.8136
   1416.10901     799.3347     515.0452   1416.10901     799.3347     515.0452
   1416.09375     799.0519     515.1328   1416.09375     799.0519     515.1328
   1416.07849     797.7045     515.3267   1416.07849     797.7045     515.3267
   1416.06323     796.8911     514.8696   1416.06323     796.8911     514.8696
   1416.04797     797.2576     514.4892   1416.04797     797.2576     514.4892
   1416.03271     797.4314     515.2457   1416.03271     797.4314     515.2457
   1416.01746     797.4944     515.2913   1416.01746     797.4944     515.2913
   1416.00220     796.0454     514.8293   1416.00220     796.0454     514.8293
   1415.98694     795.4407     516.7410   1415.98694     795.4407     516.7410
   1415.97168     795.3383     515.5178   1415.97168     795.3383     515.5178
   1415.95642     794.1915     516.2692   1415.95642     794.1915     516.2692
   1415.94116     793.2585     515.4296   1415.94116     793.2585     515.4296
   1415.92590     793.1279     515.5985   1415.92590     793.1279     515.5985
   1415.91064     792.6432     516.0873   1415.91064     792.6432     516.0873
   1415.89539     791.9973     516.3049   1415.89539     791.9973     516.3049
   1415.88013     791.3622     515.4280   1415.88013     791.3622     515.4280
   1415.86487     789.3151     516.9222   1415.86487     789.3151     516.9222
   1415.84961     789.4664     515.7507   1415.84961     789.4664     515.7507
   1415.83435     789.2390     516.5106   1415.83435     789.2390     516.5106
   1415.81909     787.6056     516.4389   1415.81909     787.6056     516.4389
   1415.80383     787.7953     515.7454   1415.80383     787.7953     515.7454
   1415.78857     786.7113     515.8517   1415.78857     786.7113     515.8517
   1415.77332     787.1814     516.2579   1415.77332     787.1814     516.2579
   1415.75806     786.1385     515.8055   1415.75806     786.1385     515.8055
   1415.74280     784.6252     514.9926   1415.74280     784.6252     514.9926
   1415.72754     783.6630     514.9799   1415.72754     783.6630     514.9799
   1415.71228     784.0042     515.3784   1415.71228     784.0042     515.3784
   1415.69702     784.3732     514.8736   1415.69702     784.3732     514.8736
   1415.68176     782.0475     514.8162   1415.68176     782.0475     514.8162
   1415.66650     780.5510     515.1382   1415.66650     780.5510     515.1382
   1415.65125     780.3942     514.7769   1415.65125     780.3942     514.7769
   1415.63599     780.0378     514.6875   1415.63599     780.0378     514.6875
   1415.62073     779.0814     514.6989   1415.62073     779.0814     514.6989
   1415.60547     778.3735     514.5915   1415.60547     778.3735     514.5915
   1415.59021     777.0212     514.8489   1415.59021     777.0212     514.8489
   1415.57495     775.1898     513.6307   1415.57495     775.1898     513.6307
   1415.55969     773.9947     514.6255   1415.55969     773.9947     514.6255
   1415.54443     774.0988     513.5059   1415.54443     774.0988     513.5059
   1415.52917     772.7025     513.5121   1415.52917     772.7025     513.5121
   1415.51392     771.8235     512.8480   1415.51392     771.8235     512.8480
   1415.49866     772.3013     512.6116   1415.49866     772.3013     512.6116
   1415.48340     770.4835     511.9091   1415.48340     770.4835     511.9091
   1415.46814     769.7553     512.3098   1415.46814     769.7553     512.3098
   1415.45288     769.1310     512.2709   1415.45288     769.1310     512.2709
   1415.43762     766.8507     512.2603   1415.43762     766.8507     512.2603
   1415.42236     766.5539     511.9443   1415.42236     766.5539     511.9443
   1415.40710     764.5957     511.5227   1415.40710     764.5957     511.5227
   1415.39185     764.5884     511.5534   1415.39185     764.5884     511.5534
   1415.37659     762.5486     510.9132   1415.37659     762.5486     510.9132
   1415.36133     762.4367     511.2566   1415.36133     762.4367     511.2566
   1415.34607     760.3508     510.1720   1415.34607     760.3508     510.1720
   1415.33081     760.0996     510.4750   1415.33081     760.0996     510.4750
   1415.31555     759.3433     509.6744   1415.31555     759.3433     509.6744
   1415.30029     756.2778     509.2101   1415.30029     756.2778     509.2101
   1415.28503     756.7823     508.9438   1415.28503     756.7823     508.9438
   1415.26978     755.4711     508.9659   1415.26978     755.4711     508.9659
   1415.25452     754.3149     507.4730   1415.25452     754.3149     507.4730
   1415.23926     751.3499     507.0810   1415.23926     751.3499     507.0810
   1415.22400     751.7697     507.5121   1415.22400     751.7697     507.5121
   1415.20874     749.8051     506.4713   1415.20874     749.8051     506.4713
   1415.19348     748.7643     506.8778   1415.19348     748.7643     506.8778
   1415.17822     748.5445     506.9755   1415.17822     748.5445     506.9755
   1415.16296     747.1552     506.2523   1415.16296     747.1552     506.2523
   1415.14771     745.1795     505.2762   1415.14771     745.1795     505.2762
   1415.13245     745.5812     504.3314   1415.13245     745.5812     504.3314
   1415.11719     743.3658     504.0008   1415.11719     743.3658     504.0008
   1415.10193     741.8503     503.8439   1415.10193     741.8503     503.8439
   1415.08667     739.4544     503.9619   1415.08667     739.4544     503.9619
   1415.07141     738.5560     502.1487   1415.07141     738.5560     502.1487
   1415.05615     736.9510     501.6057   1415.05615     736.9510     501.6057
   1415.04089     735.8715     501.6722   1415.04089     735.8715     501.6722
   1415.02563     733.6609     500.4782   1415.02563     733.6609     500.4782
   1415.01038     733.0811     501.0002   1415.01038     733.0811     501.0002
   1414.99512     732.9766     500.3086   1414.99512     732.9766     500.3086
   1414.97986     729.1222     499.0070   1414.97986     729.1222     499.0070
   1414.96460     727.8300     498.9657   1414.96460     727.8300     498.9657
   1414.94934     727.7996     498.2934   1414.94934     727.7996     498.2934
   1414.93408     725.3051     497.1091   1414.93408     725.3051     497.1091
   1414.91882     724.0895     496.6870   1414.91882     724.0895     496.6870
   1414.90356     722.6022     496.4973   1414.90356     722.6022     496.4973
   1414.88831     720.9485     495.4112   1414.88831     720.9485     495.4112
   1414.87305     719.1359     495.0455   1414.87305     719.1359     495.0455
   1414.85779     716.6281     493.3186   1414.85779     716.6281     493.3186
   1414.84253     716.6078     492.9524   1414.84253     716.6078     492.9524
   1414.82727     713.1533     492.6244   1414.82727     713.1533     492.6244
   1414.81201     712.5161     491.0573   1414.81201     712.5161     491.0573
   1414.79675     711.7145     489.9661   1414.79675     711.7145     489.9661
   1414.78149     709.4106     489.7025   1414.78149     709.4106     489.7025
   1414.76624     707.0436     489.1880   1414.76624     707.0436     489.1880
   1414.75098     706.2286     488.4899   1414.75098     706.2286     488.4899
   1414.73572     703.8584     487.5914   1414.73572     703.8584     487.5914
   1414.72046     702.2234     487.1783   1414.72046     702.2234     487.1783
   1414.70520     700.2800     486.2458   1414.70520     700.2800     486.2458
   1414.68994     697.7819     484.8262   1414.68994     697.7819     484.8262
   1414.67468     696.9578     484.3547   1414.67468     696.9578     484.3547
   1414.65942     694.6827     482.2833   1414.65942     694.6827     482.2833
   1414.64417     692.4617     482.0316   1414.64417     692.4617     482.0316
   1414.62891     690.5880     481.5845   1414.62891     690.5880     481.5845
   1414.61365     688.5259     480.3401   1414.61365     688.5259     480.3401
   1414.59839     686.8534     478.5264   1414.59839     686.8534     478.5264
   1414.58313     684.1328     478.2169   1414.58313     684.1328     478.2169
   1414.56787     681.4437     477.1380   1414.56787     681.4437     477.1380
   1414.55261     680.4385     476.5911   1414.55261     680.4385     476.5911
   1414.53735     678.9248     475.2545   1414.53735     678.9248     475.2545
   1414.52209     675.5862     474.9680   1414.52209     675.5862     474.9680
   1414.50684     673.8417     473.0396   1414.50684     673.8417     473.0396
   1414.49158     672.4277     472.2044   1414.49158     672.4277     472.2044
   1414.47632     669.3328     470.5549   1414.47632     669.3328     470.5549
   1414.46106     667.3968     469.4290   1414.46106     667.3968     469.4290
   1414.44580     665.6935     469.0688   1414.44580     665.6935     469.0688
   1414.43054     662.9261     466.8761   1414.43054     662.9261     466.8761
   1414.41528     662.2989     465.9188   1414.41528     662.2989     465.9188
   1414.40002     659.6297     465.1742   1414.40002     659.6297     465.1742
   1414.38477     656.1380     463.8365   1414.38477     656.1380     463.8365
   1414.36951     654.1368     462.3479   1414.36951     654.1368     462.3479
   1414.35425     652.6107     461.4662   1414.35425     652.6107     461.4662
   1414.33899     650.2616     460.4658   1414.33899     650.2616     460.4658
   1414.32373     647.1851     458.9147   1414.32373     647.1851     458.9147
   1414.30847     645.4651     457.5610   1414.30847     645.4651     457.5610
   1414.29321     642.7551     455.6271   1414.29321     642.7551     455.6271
   1414.27795     639.8970     454.6805   1414.27795     639.8970     454.6805
   1414.26270     638.1305     454.1654   1414.26270     638.1305     454.1654
   1414.24744     635.1972     452.0625   1414.24744     635.1972     452.0625
   1414.23218     632.9988     451.4227   1414.23218     632.9988     451.4227
   1414.21692     630.3431     450.0259   1414.21692     630.3431     450.0259
   1414.20166     628.6566     447.8705   1414.20166     628.6566     447.8705
   1414.18640     626.8093     447.2382   1414.18640     626.8093     447.2382
   1414.17114     623.1981     446.1339   1414.17114     623.1981     446.1339
   1414.15588     621.2252     444.2061   1414.15588     621.2252     444.2061
   1414.14062     618.5772     443.0659   1414.14062     618.5772     443.0659
   1414.12537     615.0825     441.9214   1414.12537     615.0825     441.9214
   1414.11011     612.0269     439.9977   1414.11011     612.0269     439.9977
   1414.09485     610.8470     438.1735   1414.09485     610.8470     438.1735
   1414.07959     607.7602     437.0533   1414.07959     607.7602     437.0533
   1414.06433     605.2581     435.3131   1414.06433     605.2581     435.3131
   1414.04907     603.2032     434.3890   1414.04907     603.2032     434.3890
   1414.03381     599.8511     433.4066   1414.03381     599.8511     433.4066
   1414.01855     597.0317     431.6056   1414.01855     597.0317     431.6056
   1414.00330     612.4453     434.7611   1414.00330     612.4453     434.7611
   1413.98804     593.5457     428.5383   1413.98804     593.5457     428.5383
   1413.97278     587.7077     426.6910   1413.97278     587.7077     426.6910
   1413.95752     586.4712     424.6411   1413.95752     586.4712     424.6411
   1413.94226     584.2227     422.9536   1413.94226     584.2227     422.9536
   1413.92700     580.8717     421.6533   1413.92700     580.8717     421.6533
   1413.91174     577.2166     420.1162   1413.91174     577.2166     420.1162
   1413.89648     576.0511     418.9078   1413.89648     576.0511     418.9078
   1413.88123     572.2980     417.4732   1413.88123     572.2980     417.4732
   1413.86597     569.7434     415.3458   1413.86597     569.7434     415.3458
   1413.85071     567.2673     413.4987   1413.85071     567.2673     413.4987
   1413.83545     564.0959     411.9821   1413.83545     564.0959     411.9821
   1413.82019     562.1983     410.5318   1413.82019     562.1983     410.5318
   1413.80493     558.9354     409.2690   1413.80493     558.9354     409.2690
   1413.78967     555.8366     407.4271   1413.78967     555.8366     407.4271
   1413.77441     552.9525     405.5142   1413.77441     552.9525     405.5142
   1413.75916     551.1071     404.3460   1413.75916     551.1071     404.3460
   1413.74390     547.7252     402.7387   1413.74390     547.7252     402.7387
   1413.72864     545.4468     400.4341   1413.72864     545.4468     400.4341
   1413.71338     542.1544     399.2637   1413.71338     542.1544     399.2637
   1413.69812     540.5280     397.9585   1413.69812     540.5280     397.9585
   1413.68286     537.4149     396.0540   1413.68286     537.4149     396.0540
   1413.66760     533.2654     394.9989   1413.66760     533.2654     394.9989
   1413.65234     530.5333     393.0326   1413.65234     530.5333     393.0326
   1413.63708     527.6142     391.1517   1413.63708     527.6142     391.1517
   1413.62183     525.0450     389.0917   1413.62183     525.0450     389.0917
   1413.60657     522.2025     387.2821   1413.60657     522.2025     387.2821
   1413.59131     519.3506     386.1516   1413.59131     519.3506     386.1516
   1413.57605     516.4902     384.3405   1413.57605     516.4902     384.3405
   1413.56079     513.7224     382.7190   1413.56079     513.7224     382.7190
   1413.54553     511.1887     381.0316   1413.54553     511.1887     381.0316
   1413.53027     508.4547     379.8486   1413.53027     508.4547     379.8486
   1413.51501     505.6749     377.9697   1413.51501     505.6749     377.9697
   1413.49976     502.8768     376.7008   1413.49976     502.8768     376.7008
   1413.48450     499.8322     375.4255   1413.48450     499.8322     375.4255
   1413.46924     497.1713     372.7639   1413.46924     497.1713     372.7639
   1413.45398     495.1904     372.0671   1413.45398     495.1904     372.0671
   1413.43872     491.6986     370.3407   1413.43872     491.6986     370.3407
   1413.42346     489.1455     368.5762   1413.42346     489.1455     368.5762
   1413.40820     485.8570     367.4572   1413.40820     485.8570     367.4572
   1413.39294     483.3889     366.0268   1413.39294     483.3889     366.0268
   1413.37769     480.9861     363.9647   1413.37769     480.9861     363.9647
   1413.36243     478.0634     362.6809   1413.36243     478.0634     362.6809
   1413.34717     475.9463     361.3832   1413.34717     475.9463     361.3832
   1413.33191     474.0093     359.8762   1413.33191     474.0093     359.8762
   1413.31665     469.5204     358.1169   1413.31665     469.5204     358.1169
   1413.30139     467.8830     356.0187   1413.30139     467.8830     356.0187
   1413.28613     464.6905     355.2431   1413.28613     464.6905     355.2431
   1413.27087     463.0682     353.3867   1413.27087     463.0682     353.3867
   1413.25562     460.9121     352.3253   1413.25562     460.9121     352.3253
   1413.24036     458.3544     351.0926   1413.24036     458.3544     351.0926
   1413.22510     455.4233     349.5999   1413.22510     455.4233     349.5999
   1413.20984     453.1736     348.2622   1413.20984     453.1736     348.2622
   1413.19458     449.9875     346.7335   1413.19458     449.9875     346.7335
   1413.17932     448.0641     345.4092   1413.17932     448.0641     345.4092
   1413.16406     446.2380     344.4594   1413.16406     446.2380     344.4594
   1413.14880     443.3559     342.7409   1413.14880     443.3559     342.7409
   1413.13354     441.2527     342.0934   1413.13354     441.2527     342.0934
   1413.11829     438.8672     340.7263   1413.11829     438.8672     340.7263
   1413.10303     436.2717     339.5744   1413.10303     436.2717     339.5744
   1413.08777     434.6132     338.3273   1413.08777     434.6132     338.3273
   1413.07251     431.7466     337.6639   1413.07251     431.7466     337.6639
   1413.05725     429.7748     335.9173   1413.05725     429.7748     335.9173
   1413.04199     428.2180     334.6883   1413.04199     428.2180     334.6883
   1413.02673     425.6298     334.3712   1413.02673     425.6298     334.3712
   1413.01147     423.8331     333.4019   1413.01147     423.8331     333.4019
   1412.99622     421.0407     331.6895   1412.99622     421.0407     331.6895
   1412.98096     419.1541     330.9528   1412.98096     419.1541     330.9528
   1412.96570     417.7199     329.8293   1412.96570     417.7199     329.8293
   1412.95044     415.5033     329.6308   1412.95044     415.5033     329.6308
   1412.93518     414.1964     328.1695   1412.93518     414.1964     328.1695
   1412.91992     411.9738     327.7761   1412.91992     411.9738     327.7761
   1412.90466     409.5412     326.7398   1412.90466     409.5412     326.7398
   1412.88940     408.5537     325.9103   1412.88940     408.5537     325.9103
   1412.87415     406.6637     325.1933   1412.87415     406.6637     325.1933
   1412.85889     404.1005     324.7892   1412.85889     404.1005     324.7892
   1412.84363     402.5411     323.8793   1412.84363     402.5411     323.8793
   1412.82837     401.3407     323.8130   1412.82837     401.3407     323.8130
   1412.81311     399.4513     323.0116   1412.81311     399.4513     323.0116
   1412.79785     398.5162     322.5920   1412.79785     398.5162     322.5920
   1412.78259     396.6285     322.0217   1412.78259     396.6285     322.0217
   1412.76733     395.4180     322.1497   1412.76733     395.4180     322.1497
   1412.75208     393.7905     321.4295   1412.75208     393.7905     321.4295
   1412.73682     392.6179     321.0996   1412.73682     392.6179     321.0996
   1412.72156     391.2964     320.5451   1412.72156     391.2964     320.5451
   1412.70630     390.1912     320.3146   1412.70630     390.1912     320.3146
   1412.69104     389.0176     320.2842   1412.69104     389.0176     320.2842
   1412.67578     387.7012     319.9797   1412.67578     387.7012     319.9797
   1412.66052     386.7226     320.3147   1412.66052     386.7226     320.3147
   1412.64526     386.4774     320.1955   1412.64526     386.4774     320.1955
   1412.63000     385.1854     320.2418   1412.63000     385.1854     320.2418
   1412.61475     383.9236     320.5611   1412.61475     383.9236     320.5611
   1412.59949     382.5182     320.5738   1412.59949     382.5182     320.5738
   1412.58423     382.4662     320.8244   1412.58423     382.4662     320.8244
   1412.56897     381.6581     321.2101   1412.56897     381.6581     321.2101
   1412.55371     379.7626     321.2293   1412.55371     379.7626     321.2293
   1412.53845     380.2247     321.2731   1412.53845     380.2247     321.2731
   1412.52319     379.5628     322.0799   1412.52319     379.5628     322.0799
   1412.50793     378.9138     322.4646   1412.50793     378.9138     322.4646
   1412.49268     378.5995     322.7694   1412.49268     378.5995     322.7694
   1412.47742     377.9448     323.3081   1412.47742     377.9448     323.3081
   1412.46216     377.3960     324.1308   1412.46216     377.3960     324.1308
   1412.44690     377.4819     325.0690   1412.44690     377.4819     325.0690
   1412.43164     377.1830     325.1945   1412.43164     377.1830     325.1945
   1412.41638     375.5801     326.3449   1412.41638     375.5801     326.3449
   1412.40112     375.9947     327.5517   1412.40112     375.9947     327.5517
   1412.38586     375.9848     328.1893   1412.38586     375.9848     328.1893
   1412.37061     375.4393     329.3464   1412.37061     375.4393     329.3464
   1412.35535     375.8019     329.7358   1412.35535     375.8019     329.7358
   1412.34009     376.0586     331.6684   1412.34009     376.0586     331.6684
   1412.32483     376.4545     332.1163   1412.32483     376.4545     332.1163
   1412.30957     376.0434     332.6618   1412.30957     376.0434     332.6618
   1412.29431     376.3430     334.4471   1412.29431     376.3430     334.4471
   1412.27905     376.7397     335.9168   1412.27905     376.7397     335.9168
   1412.26379     377.0814     336.9069   1412.26379     377.0814     336.9069
   1412.24854     377.2376     338.5521   1412.24854     377.2376     338.5521
   1412.23328     377.8179     339.8866   1412.23328     377.8179     339.8866
   1412.21802     378.5804     341.1580   1412.21802     378.5804     341.1580
   1412.20276     378.8526     342.5507   1412.20276     378.8526     342.5507