#     FILENAME=!Skynet_57528_lach-cc-201_20606_21058.cyb.fits
#     BASENAME=Skynet_57528_lach-cc-201_20606_21058
#     SRC_NAME=lach-cc-201
#     OBSERVER=ccmadison16_9505
#     DATE_OBS=2016-05-20T20:32:52.750
#        OBSID=20606
#      SCANNUM=21058
#          MJD=57528.8572
#          UTC=74062
#     SCANTYPE=track
#     DATAMODE=HIRES
#     TUNEFREQ=1420.0000
# Actual_FREQ1=1420.0000
# Actual_FREQ2=1420.0000
#    LO1Tuning=6870.000
#     RFFILTER=1355_1435
#        OBSBW=-15.6250
#        NCHAN=1024 
#        FOCUS=37.0489
#           RA=06:29:22.78
#          DEC=10:36:10.99
#      RA(hrs)=6.489700
#     DEC(deg)=10.603100
#    AZIM(deg)=199.413
#    ELEV(deg)=60.699
#     IFattens=10.00, 9.00
#      WARNING=None
#    TCAL_XL1=7.9635
#    TCAL_YR1=9.1340
#    TCAL_XL2=7.9635
#    TCAL_YR2=9.1340
#     TRX_XL1=11.7060
#     TRX_YR1=11.7060
#     TRX_XL2=11.7060
#     TRX_YR2=11.7060
#        TAVE=1.0000
#Freq1(MHz)          XL1          YR1  Freq2(MHz)          XL2          YR2 

   1427.81250     363.0511     274.9708   1427.81250     363.0511     274.9708
   1427.79724     363.2006     275.9100   1427.79724     363.2006     275.9100
   1427.78198     364.7731     277.2704   1427.78198     364.7731     277.2704
   1427.76672     365.0553     277.9657   1427.76672     365.0553     277.9657
   1427.75146     366.0086     278.8303   1427.75146     366.0086     278.8303
   1427.73621     366.5381     279.8484   1427.73621     366.5381     279.8484
   1427.72095     367.4943     280.1476   1427.72095     367.4943     280.1476
   1427.70569     368.4474     281.9083   1427.70569     368.4474     281.9083
   1427.69043     369.5805     282.7743   1427.69043     369.5805     282.7743
   1427.67517     370.9270     283.4440   1427.67517     370.9270     283.4440
   1427.65991     371.2357     285.0618   1427.65991     371.2357     285.0618
   1427.64465     373.0131     286.4315   1427.64465     373.0131     286.4315
   1427.62939     373.9723     287.8353   1427.62939     373.9723     287.8353
   1427.61414     374.5531     288.6609   1427.61414     374.5531     288.6609
   1427.59888     376.3334     290.5941   1427.59888     376.3334     290.5941
   1427.58362     377.5426     291.4347   1427.58362     377.5426     291.4347
   1427.56836     378.6332     293.5111   1427.56836     378.6332     293.5111
   1427.55310     380.2008     294.2063   1427.55310     380.2008     294.2063
   1427.53784     382.3580     296.2592   1427.53784     382.3580     296.2592
   1427.52258     383.8713     297.6306   1427.52258     383.8713     297.6306
   1427.50732     385.2179     298.7794   1427.50732     385.2179     298.7794
   1427.49207     387.0100     300.9899   1427.49207     387.0100     300.9899
   1427.47681     388.7139     302.4915   1427.47681     388.7139     302.4915
   1427.46155     390.4742     304.1693   1427.46155     390.4742     304.1693
   1427.44629     392.6106     305.2459   1427.44629     392.6106     305.2459
   1427.43103     393.3977     307.3511   1427.43103     393.3977     307.3511
   1427.41577     396.1193     309.4178   1427.41577     396.1193     309.4178
   1427.40051     397.0782     311.0165   1427.40051     397.0782     311.0165
   1427.38525     398.9983     313.0326   1427.38525     398.9983     313.0326
   1427.37000     401.5482     314.4680   1427.37000     401.5482     314.4680
   1427.35474     403.2382     316.2256   1427.35474     403.2382     316.2256
   1427.33948     405.6146     318.4244   1427.33948     405.6146     318.4244
   1427.32422     407.6868     320.1617   1427.32422     407.6868     320.1617
   1427.30896     409.8658     322.7563   1427.30896     409.8658     322.7563
   1427.29370     412.7066     324.6957   1427.29370     412.7066     324.6957
   1427.27844     413.9389     326.9206   1427.27844     413.9389     326.9206
   1427.26318     417.1524     328.9564   1427.26318     417.1524     328.9564
   1427.24792     419.6310     330.7961   1427.24792     419.6310     330.7961
   1427.23267     421.4612     333.3149   1427.23267     421.4612     333.3149
   1427.21741     423.9978     335.1816   1427.21741     423.9978     335.1816
   1427.20215     426.4448     337.2902   1427.20215     426.4448     337.2902
   1427.18689     429.2134     339.2819   1427.18689     429.2134     339.2819
   1427.17163     430.3817     341.6958   1427.17163     430.3817     341.6958
   1427.15637     433.8681     344.4091   1427.15637     433.8681     344.4091
   1427.14111     435.4017     346.5307   1427.14111     435.4017     346.5307
   1427.12585     438.7008     348.3821   1427.12585     438.7008     348.3821
   1427.11060     440.9805     351.1637   1427.11060     440.9805     351.1637
   1427.09534     443.9161     353.5107   1427.09534     443.9161     353.5107
   1427.08008     446.7072     355.9002   1427.08008     446.7072     355.9002
   1427.06482     449.4378     358.8483   1427.06482     449.4378     358.8483
   1427.04956     451.9777     361.3199   1427.04956     451.9777     361.3199
   1427.03430     454.7114     363.2704   1427.03430     454.7114     363.2704
   1427.01904     457.1519     365.9765   1427.01904     457.1519     365.9765
   1427.00378     460.3692     368.5680   1427.00378     460.3692     368.5680
   1426.98853     462.6339     371.5047   1426.98853     462.6339     371.5047
   1426.97327     465.3998     373.0303   1426.97327     465.3998     373.0303
   1426.95801     468.4614     375.7401   1426.95801     468.4614     375.7401
   1426.94275     472.1580     378.1349   1426.94275     472.1580     378.1349
   1426.92749     474.0461     380.9086   1426.92749     474.0461     380.9086
   1426.91223     477.7021     383.3626   1426.91223     477.7021     383.3626
   1426.89697     480.4126     385.6928   1426.89697     480.4126     385.6928
   1426.88171     483.0172     388.7191   1426.88171     483.0172     388.7191
   1426.86646     486.9467     391.7592   1426.86646     486.9467     391.7592
   1426.85120     489.1040     393.2279   1426.85120     489.1040     393.2279
   1426.83594     491.4073     396.8060   1426.83594     491.4073     396.8060
   1426.82068     494.5052     398.8829   1426.82068     494.5052     398.8829
   1426.80542     499.0329     402.2073   1426.80542     499.0329     402.2073
   1426.79016     501.2916     404.5391   1426.79016     501.2916     404.5391
   1426.77490     504.4733     408.0107   1426.77490     504.4733     408.0107
   1426.75964     507.2994     409.5614   1426.75964     507.2994     409.5614
   1426.74438     509.1695     413.1572   1426.74438     509.1695     413.1572
   1426.72913     513.1800     416.0572   1426.72913     513.1800     416.0572
   1426.71387     515.9487     417.9866   1426.71387     515.9487     417.9866
   1426.69861     518.9484     420.1610   1426.69861     518.9484     420.1610
   1426.68335     522.1137     423.3619   1426.68335     522.1137     423.3619
   1426.66809     525.6240     426.2869   1426.66809     525.6240     426.2869
   1426.65283     527.2783     428.5565   1426.65283     527.2783     428.5565
   1426.63757     530.3353     431.7659   1426.63757     530.3353     431.7659
   1426.62231     533.4341     434.7943   1426.62231     533.4341     434.7943
   1426.60706     537.0411     437.4767   1426.60706     537.0411     437.4767
   1426.59180     540.1976     439.9412   1426.59180     540.1976     439.9412
   1426.57654     543.3530     441.8860   1426.57654     543.3530     441.8860
   1426.56128     546.0142     444.3765   1426.56128     546.0142     444.3765
   1426.54602     549.1071     447.3503   1426.54602     549.1071     447.3503
   1426.53076     552.4772     450.2314   1426.53076     552.4772     450.2314
   1426.51550     554.2123     452.5985   1426.51550     554.2123     452.5985
   1426.50024     558.3290     455.6063   1426.50024     558.3290     455.6063
   1426.48499     560.7159     458.6624   1426.48499     560.7159     458.6624
   1426.46973     563.8748     461.3864   1426.46973     563.8748     461.3864
   1426.45447     566.3440     463.6200   1426.45447     566.3440     463.6200
   1426.43921     569.5264     466.0602   1426.43921     569.5264     466.0602
   1426.42395     573.2507     468.7341   1426.42395     573.2507     468.7341
   1426.40869     575.7015     472.0528   1426.40869     575.7015     472.0528
   1426.39343     578.4517     473.0804   1426.39343     578.4517     473.0804
   1426.37817     582.6814     476.3930   1426.37817     582.6814     476.3930
   1426.36292     584.7671     479.1166   1426.36292     584.7671     479.1166
   1426.34766     587.4935     481.7505   1426.34766     587.4935     481.7505
   1426.33240     589.4181     483.8629   1426.33240     589.4181     483.8629
   1426.31714     593.7650     487.1043   1426.31714     593.7650     487.1043
   1426.30188     595.9194     489.6092   1426.30188     595.9194     489.6092
   1426.28662     599.8079     492.2986   1426.28662     599.8079     492.2986
   1426.27136     600.1602     494.7475   1426.27136     600.1602     494.7475
   1426.25610     604.1476     496.8040   1426.25610     604.1476     496.8040
   1426.24084     607.5312     498.6424   1426.24084     607.5312     498.6424
   1426.22559     608.2939     501.0276   1426.22559     608.2939     501.0276
   1426.21033     611.9417     504.6625   1426.21033     611.9417     504.6625
   1426.19507     615.9355     506.3256   1426.19507     615.9355     506.3256
   1426.17981     617.8205     510.0688   1426.17981     617.8205     510.0688
   1426.16455     620.7388     511.1764   1426.16455     620.7388     511.1764
   1426.14929     622.8959     514.4125   1426.14929     622.8959     514.4125
   1426.13403     625.6333     516.1889   1426.13403     625.6333     516.1889
   1426.11877     628.2924     519.0253   1426.11877     628.2924     519.0253
   1426.10352     630.4154     521.3210   1426.10352     630.4154     521.3210
   1426.08826     632.9764     523.2039   1426.08826     632.9764     523.2039
   1426.07300     635.0069     525.5787   1426.07300     635.0069     525.5787
   1426.05774     637.4603     527.9446   1426.05774     637.4603     527.9446
   1426.04248     640.6736     530.2587   1426.04248     640.6736     530.2587
   1426.02722     642.0187     532.0519   1426.02722     642.0187     532.0519
   1426.01196     645.4395     534.4266   1426.01196     645.4395     534.4266
   1425.99670     647.6164     537.9071   1425.99670     647.6164     537.9071
   1425.98145     649.6844     538.4131   1425.98145     649.6844     538.4131
   1425.96619     651.7777     541.1008   1425.96619     651.7777     541.1008
   1425.95093     654.6403     544.2269   1425.95093     654.6403     544.2269
   1425.93567     656.8829     545.6239   1425.93567     656.8829     545.6239
   1425.92041     659.1767     546.6951   1425.92041     659.1767     546.6951
   1425.90515     661.4456     549.6301   1425.90515     661.4456     549.6301
   1425.88989     663.7679     550.8442   1425.88989     663.7679     550.8442
   1425.87463     664.8043     553.2778   1425.87463     664.8043     553.2778
   1425.85938     666.8384     555.9659   1425.85938     666.8384     555.9659
   1425.84412     670.1461     557.3047   1425.84412     670.1461     557.3047
   1425.82886     671.5478     559.6954   1425.82886     671.5478     559.6954
   1425.81360     674.4916     562.1142   1425.81360     674.4916     562.1142
   1425.79834     676.4465     563.8787   1425.79834     676.4465     563.8787
   1425.78308     676.6664     564.9322   1425.78308     676.6664     564.9322
   1425.76782     679.9058     567.3925   1425.76782     679.9058     567.3925
   1425.75256     680.5772     568.9524   1425.75256     680.5772     568.9524
   1425.73730     683.0888     571.3881   1425.73730     683.0888     571.3881
   1425.72205     685.3068     571.4801   1425.72205     685.3068     571.4801
   1425.70679     687.6506     574.5597   1425.70679     687.6506     574.5597
   1425.69153     687.7792     575.9291   1425.69153     687.7792     575.9291
   1425.67627     689.9441     577.9281   1425.67627     689.9441     577.9281
   1425.66101     693.1961     580.2635   1425.66101     693.1961     580.2635
   1425.64575     694.3469     582.0053   1425.64575     694.3469     582.0053
   1425.63049     694.5938     583.4207   1425.63049     694.5938     583.4207
   1425.61523     697.7544     584.1064   1425.61523     697.7544     584.1064
   1425.59998     698.8616     586.6625   1425.59998     698.8616     586.6625
   1425.58472     701.4672     588.1885   1425.58472     701.4672     588.1885
   1425.56946     701.6152     589.0039   1425.56946     701.6152     589.0039
   1425.55420     703.7421     590.6581   1425.55420     703.7421     590.6581
   1425.53894     705.4779     592.4746   1425.53894     705.4779     592.4746
   1425.52368     706.1523     593.4966   1425.52368     706.1523     593.4966
   1425.50842     707.1601     593.9636   1425.50842     707.1601     593.9636
   1425.49316     708.0193     595.5229   1425.49316     708.0193     595.5229
   1425.47791     709.7018     597.4717   1425.47791     709.7018     597.4717
   1425.46265     711.7838     599.2037   1425.46265     711.7838     599.2037
   1425.44739     712.9777     600.8240   1425.44739     712.9777     600.8240
   1425.43213     713.8105     601.0432   1425.43213     713.8105     601.0432
   1425.41687     716.1620     604.6536   1425.41687     716.1620     604.6536
   1425.40161     716.6883     604.3353   1425.40161     716.6883     604.3353
   1425.38635     717.1833     605.5939   1425.38635     717.1833     605.5939
   1425.37109     718.9296     606.5058   1425.37109     718.9296     606.5058
   1425.35583     719.1816     607.7494   1425.35583     719.1816     607.7494
   1425.34058     719.7772     608.1053   1425.34058     719.7772     608.1053
   1425.32532     721.0080     609.7574   1425.32532     721.0080     609.7574
   1425.31006     722.9311     611.2891   1425.31006     722.9311     611.2891
   1425.29480     724.4294     612.5039   1425.29480     724.4294     612.5039
   1425.27954     724.2828     613.6206   1425.27954     724.2828     613.6206
   1425.26428     725.4114     614.1624   1425.26428     725.4114     614.1624
   1425.24902     726.1542     615.3648   1425.24902     726.1542     615.3648
   1425.23376     726.6797     615.8563   1425.23376     726.6797     615.8563
   1425.21851     726.6158     617.9802   1425.21851     726.6158     617.9802
   1425.20325     728.6167     619.6765   1425.20325     728.6167     619.6765
   1425.18799     730.2469     619.2920   1425.18799     730.2469     619.2920
   1425.17273     730.4421     620.1914   1425.17273     730.4421     620.1914
   1425.15747     730.5611     621.2668   1425.15747     730.5611     621.2668
   1425.14221     731.3708     621.3304   1425.14221     731.3708     621.3304
   1425.12695     733.6512     623.5966   1425.12695     733.6512     623.5966
   1425.11169     732.6049     623.0020   1425.11169     732.6049     623.0020
   1425.09644     734.9402     624.4807   1425.09644     734.9402     624.4807
   1425.08118     734.7905     626.1838   1425.08118     734.7905     626.1838
   1425.06592     735.3097     626.1319   1425.06592     735.3097     626.1319
   1425.05066     735.3311     626.0908   1425.05066     735.3311     626.0908
   1425.03540     735.4888     627.1094   1425.03540     735.4888     627.1094
   1425.02014     735.9471     627.6364   1425.02014     735.9471     627.6364
   1425.00488     737.4787     629.7540   1425.00488     737.4787     629.7540
   1424.98962     737.9107     628.9698   1424.98962     737.9107     628.9698
   1424.97437     738.4340     629.9872   1424.97437     738.4340     629.9872
   1424.95911     738.0107     630.7758   1424.95911     738.0107     630.7758
   1424.94385     738.5750     631.2353   1424.94385     738.5750     631.2353
   1424.92859     737.7840     631.8599   1424.92859     737.7840     631.8599
   1424.91333     739.5071     632.7451   1424.91333     739.5071     632.7451
   1424.89807     740.6569     632.6800   1424.89807     740.6569     632.6800
   1424.88281     740.4247     633.5521   1424.88281     740.4247     633.5521
   1424.86755     739.6805     633.2155   1424.86755     739.6805     633.2155
   1424.85229     739.9590     634.4000   1424.85229     739.9590     634.4000
   1424.83704     740.4962     634.3918   1424.83704     740.4962     634.3918
   1424.82178     741.7798     634.8744   1424.82178     741.7798     634.8744
   1424.80652     739.8458     634.6406   1424.80652     739.8458     634.6406
   1424.79126     740.6617     635.9711   1424.79126     740.6617     635.9711
   1424.77600     742.3550     636.6425   1424.77600     742.3550     636.6425
   1424.76074     741.3784     636.6978   1424.76074     741.3784     636.6978
   1424.74548     741.2280     636.5084   1424.74548     741.2280     636.5084
   1424.73022     742.4583     635.9375   1424.73022     742.4583     635.9375
   1424.71497     741.1630     637.7489   1424.71497     741.1630     637.7489
   1424.69971     742.7760     636.7704   1424.69971     742.7760     636.7704
   1424.68445     743.3170     637.3823   1424.68445     743.3170     637.3823
   1424.66919     741.9846     637.3350   1424.66919     741.9846     637.3350
   1424.65393     741.2994     637.5679   1424.65393     741.2994     637.5679
   1424.63867     741.6951     638.2430   1424.63867     741.6951     638.2430
   1424.62341     741.8220     637.7719   1424.62341     741.8220     637.7719
   1424.60815     741.8743     637.1755   1424.60815     741.8743     637.1755
   1424.59290     741.5530     637.8059   1424.59290     741.5530     637.8059
   1424.57764     742.4727     637.9560   1424.57764     742.4727     637.9560
   1424.56238     742.4449     638.5303   1424.56238     742.4449     638.5303
   1424.54712     741.5817     638.6297   1424.54712     741.5817     638.6297
   1424.53186     741.6160     638.5143   1424.53186     741.6160     638.5143
   1424.51660     741.1750     636.6520   1424.51660     741.1750     636.6520
   1424.50134     742.0133     637.4981   1424.50134     742.0133     637.4981
   1424.48608     741.2634     637.9707   1424.48608     741.2634     637.9707
   1424.47083     740.4343     637.3894   1424.47083     740.4343     637.3894
   1424.45557     740.4963     636.1317   1424.45557     740.4963     636.1317
   1424.44031     741.4012     638.7304   1424.44031     741.4012     638.7304
   1424.42505     740.4243     637.2413   1424.42505     740.4243     637.2413
   1424.40979     739.1763     637.2078   1424.40979     739.1763     637.2078
   1424.39453     740.1966     637.6608   1424.39453     740.1966     637.6608
   1424.37927     740.7313     636.9626   1424.37927     740.7313     636.9626
   1424.36401     739.3433     636.5996   1424.36401     739.3433     636.5996
   1424.34875     740.9741     637.6343   1424.34875     740.9741     637.6343
   1424.33350     739.3708     637.0444   1424.33350     739.3708     637.0444
   1424.31824     739.1288     635.7341   1424.31824     739.1288     635.7341
   1424.30298     738.5114     635.6366   1424.30298     738.5114     635.6366
   1424.28772     738.4253     635.7520   1424.28772     738.4253     635.7520
   1424.27246     737.4571     634.9440   1424.27246     737.4571     634.9440
   1424.25720     737.2816     636.4361   1424.25720     737.2816     636.4361
   1424.24194     737.4818     634.5778   1424.24194     737.4818     634.5778
   1424.22668     736.9195     635.0317   1424.22668     736.9195     635.0317
   1424.21143     737.3272     633.4569   1424.21143     737.3272     633.4569
   1424.19617     737.5032     635.0675   1424.19617     737.5032     635.0675
   1424.18091     736.4297     633.3785   1424.18091     736.4297     633.3785
   1424.16565     736.4282     632.9477   1424.16565     736.4282     632.9477
   1424.15039     734.9619     632.2352   1424.15039     734.9619     632.2352
   1424.13513     734.5370     631.4170   1424.13513     734.5370     631.4170
   1424.11987     735.2820     631.4920   1424.11987     735.2820     631.4920
   1424.10461     734.1976     631.6010   1424.10461     734.1976     631.6010
   1424.08936     734.5078     630.5806   1424.08936     734.5078     630.5806
   1424.07410     733.2944     630.5118   1424.07410     733.2944     630.5118
   1424.05884     733.9086     630.0829   1424.05884     733.9086     630.0829
   1424.04358     733.4132     630.7482   1424.04358     733.4132     630.7482
   1424.02832     733.5925     628.5746   1424.02832     733.5925     628.5746
   1424.01306     733.0214     629.2407   1424.01306     733.0214     629.2407
   1423.99780     731.9441     627.8102   1423.99780     731.9441     627.8102
   1423.98254     731.1323     627.8619   1423.98254     731.1323     627.8619
   1423.96729     732.8676     626.6318   1423.96729     732.8676     626.6318
   1423.95203     731.4846     626.0903   1423.95203     731.4846     626.0903
   1423.93677     730.0555     626.2294   1423.93677     730.0555     626.2294
   1423.92151     730.9563     625.6496   1423.92151     730.9563     625.6496
   1423.90625     729.5559     624.6874   1423.90625     729.5559     624.6874
   1423.89099     729.2264     624.7325   1423.89099     729.2264     624.7325
   1423.87573     728.4787     622.6552   1423.87573     728.4787     622.6552
   1423.86047     728.5131     622.5827   1423.86047     728.5131     622.5827
   1423.84521     728.4817     622.7546   1423.84521     728.4817     622.7546
   1423.82996     727.6913     621.8555   1423.82996     727.6913     621.8555
   1423.81470     728.2875     621.1764   1423.81470     728.2875     621.1764
   1423.79944     726.4938     620.1573   1423.79944     726.4938     620.1573
   1423.78418     727.0558     619.6359   1423.78418     727.0558     619.6359
   1423.76892     725.0471     620.1223   1423.76892     725.0471     620.1223
   1423.75366     725.7822     618.6078   1423.75366     725.7822     618.6078
   1423.73840     725.1382     617.5067   1423.73840     725.1382     617.5067
   1423.72314     725.7158     617.4386   1423.72314     725.7158     617.4386
   1423.70789     723.8259     616.4435   1423.70789     723.8259     616.4435
   1423.69263     723.4641     615.0245   1423.69263     723.4641     615.0245
   1423.67737     723.3552     615.1077   1423.67737     723.3552     615.1077
   1423.66211     722.6203     614.3680   1423.66211     722.6203     614.3680
   1423.64685     722.8589     613.9219   1423.64685     722.8589     613.9219
   1423.63159     722.0213     613.9260   1423.63159     722.0213     613.9260
   1423.61633     722.5905     611.7612   1423.61633     722.5905     611.7612
   1423.60107     721.8706     611.9811   1423.60107     721.8706     611.9811
   1423.58582     720.3117     610.7978   1423.58582     720.3117     610.7978
   1423.57056     721.5817     610.4910   1423.57056     721.5817     610.4910
   1423.55530     720.8199     608.8701   1423.55530     720.8199     608.8701
   1423.54004     720.0310     609.0609   1423.54004     720.0310     609.0609
   1423.52478     718.8447     607.9443   1423.52478     718.8447     607.9443
   1423.50952     719.0538     606.7431   1423.50952     719.0538     606.7431
   1423.49426     718.7393     605.9574   1423.49426     718.7393     605.9574
   1423.47900     718.0212     604.5203   1423.47900     718.0212     604.5203
   1423.46375     717.7985     604.3049   1423.46375     717.7985     604.3049
   1423.44849     718.0602     604.3842   1423.44849     718.0602     604.3842
   1423.43323     717.6307     603.1394   1423.43323     717.6307     603.1394
   1423.41797     717.0710     602.7615   1423.41797     717.0710     602.7615
   1423.40271     716.4130     600.9927   1423.40271     716.4130     600.9927
   1423.38745     715.2537     600.8489   1423.38745     715.2537     600.8489
   1423.37219     715.8708     601.6239   1423.37219     715.8708     601.6239
   1423.35693     714.9476     599.5391   1423.35693     714.9476     599.5391
   1423.34167     714.4194     598.1087   1423.34167     714.4194     598.1087
   1423.32642     714.8052     596.7574   1423.32642     714.8052     596.7574
   1423.31116     713.7864     595.8753   1423.31116     713.7864     595.8753
   1423.29590     712.0817     596.8387   1423.29590     712.0817     596.8387
   1423.28064     713.5411     594.6726   1423.28064     713.5411     594.6726
   1423.26538     713.3771     593.9278   1423.26538     713.3771     593.9278
   1423.25012     712.7234     594.2311   1423.25012     712.7234     594.2311
   1423.23486     711.6066     591.9456   1423.23486     711.6066     591.9456
   1423.21960     711.3601     590.9535   1423.21960     711.3601     590.9535
   1423.20435     711.0604     591.8636   1423.20435     711.0604     591.8636
   1423.18909     710.4157     590.1046   1423.18909     710.4157     590.1046
   1423.17383     710.8344     589.9273   1423.17383     710.8344     589.9273
   1423.15857     710.6974     588.0280   1423.15857     710.6974     588.0280
   1423.14331     709.2798     587.9200   1423.14331     709.2798     587.9200
   1423.12805     708.8082     586.9568   1423.12805     708.8082     586.9568
   1423.11279     707.9177     586.4087   1423.11279     707.9177     586.4087
   1423.09753     708.2683     584.3503   1423.09753     708.2683     584.3503
   1423.08228     707.6891     585.0839   1423.08228     707.6891     585.0839
   1423.06702     708.2340     583.2371   1423.06702     708.2340     583.2371
   1423.05176     707.3085     582.1777   1423.05176     707.3085     582.1777
   1423.03650     706.0615     581.5164   1423.03650     706.0615     581.5164
   1423.02124     707.2263     580.2206   1423.02124     707.2263     580.2206
   1423.00598     705.7762     578.9700   1423.00598     705.7762     578.9700
   1422.99072     706.6437     578.7876   1422.99072     706.6437     578.7876
   1422.97546     705.5396     578.6404   1422.97546     705.5396     578.6404
   1422.96021     705.4441     576.0936   1422.96021     705.4441     576.0936
   1422.94495     703.7678     576.8237   1422.94495     703.7678     576.8237
   1422.92969     704.7739     575.4121   1422.92969     704.7739     575.4121
   1422.91443     704.7536     573.8264   1422.91443     704.7536     573.8264
   1422.89917     704.7891     573.2531   1422.89917     704.7891     573.2531
   1422.88391     703.7470     573.1192   1422.88391     703.7470     573.1192
   1422.86865     703.6908     570.7525   1422.86865     703.6908     570.7525
   1422.85339     702.0562     570.9801   1422.85339     702.0562     570.9801
   1422.83813     702.9669     570.2559   1422.83813     702.9669     570.2559
   1422.82288     703.4335     568.3624   1422.82288     703.4335     568.3624
   1422.80762     701.4780     568.0537   1422.80762     701.4780     568.0537
   1422.79236     702.8191     567.6465   1422.79236     702.8191     567.6465
   1422.77710     701.6682     566.5693   1422.77710     701.6682     566.5693
   1422.76184     701.5230     565.3799   1422.76184     701.5230     565.3799
   1422.74658     702.3038     565.0665   1422.74658     702.3038     565.0665
   1422.73132     702.3037     563.6890   1422.73132     702.3037     563.6890
   1422.71606     701.6108     564.0027   1422.71606     701.6108     564.0027
   1422.70081     701.2899     562.0710   1422.70081     701.2899     562.0710
   1422.68555     700.3344     562.0781   1422.68555     700.3344     562.0781
   1422.67029     700.6536     561.2790   1422.67029     700.6536     561.2790
   1422.65503     700.5477     559.3746   1422.65503     700.5477     559.3746
   1422.63977     699.3133     559.3910   1422.63977     699.3133     559.3910
   1422.62451     699.0745     558.2942   1422.62451     699.0745     558.2942
   1422.60925     699.8317     556.9041   1422.60925     699.8317     556.9041
   1422.59399     698.1540     556.3518   1422.59399     698.1540     556.3518
   1422.57874     698.4400     555.4711   1422.57874     698.4400     555.4711
   1422.56348     698.0495     554.1857   1422.56348     698.0495     554.1857
   1422.54822     698.1924     553.1165   1422.54822     698.1924     553.1165
   1422.53296     696.7092     553.6586   1422.53296     696.7092     553.6586
   1422.51770     697.6346     551.5132   1422.51770     697.6346     551.5132
   1422.50244     695.8985     550.6206   1422.50244     695.8985     550.6206
   1422.48718     696.1130     549.9578   1422.48718     696.1130     549.9578
   1422.47192     696.9800     549.1086   1422.47192     696.9800     549.1086
   1422.45667     696.7089     548.5913   1422.45667     696.7089     548.5913
   1422.44141     697.0485     547.4523   1422.44141     697.0485     547.4523
   1422.42615     697.3223     546.3928   1422.42615     697.3223     546.3928
   1422.41089     695.0222     545.4515   1422.41089     695.0222     545.4515
   1422.39563     695.4252     544.1478   1422.39563     695.4252     544.1478
   1422.38037     696.5133     544.4333   1422.38037     696.5133     544.4333
   1422.36511     695.8204     543.1013   1422.36511     695.8204     543.1013
   1422.34985     694.2130     542.4679   1422.34985     694.2130     542.4679
   1422.33459     694.9941     541.9238   1422.33459     694.9941     541.9238
   1422.31934     694.3719     540.7375   1422.31934     694.3719     540.7375
   1422.30408     693.6643     539.6634   1422.30408     693.6643     539.6634
   1422.28882     693.9445     538.3386   1422.28882     693.9445     538.3386
   1422.27356     695.4492     537.5856   1422.27356     695.4492     537.5856
   1422.25830     692.9875     537.1149   1422.25830     692.9875     537.1149
   1422.24304     694.7786     536.4260   1422.24304     694.7786     536.4260
   1422.22778     692.5984     535.2795   1422.22778     692.5984     535.2795
   1422.21252     693.9283     534.1328   1422.21252     693.9283     534.1328
   1422.19727     692.1237     533.7670   1422.19727     692.1237     533.7670
   1422.18201     692.0536     533.0054   1422.18201     692.0536     533.0054
   1422.16675     693.3778     531.5937   1422.16675     693.3778     531.5937
   1422.15149     692.6149     531.3299   1422.15149     692.6149     531.3299
   1422.13623     692.3284     529.9495   1422.13623     692.3284     529.9495
   1422.12097     691.6984     530.0708   1422.12097     691.6984     530.0708
   1422.10571     692.4161     528.6075   1422.10571     692.4161     528.6075
   1422.09045     691.0709     527.9034   1422.09045     691.0709     527.9034
   1422.07520     691.4020     526.4419   1422.07520     691.4020     526.4419
   1422.05994     690.8742     525.8456   1422.05994     690.8742     525.8456
   1422.04468     690.3358     524.4506   1422.04468     690.3358     524.4506
   1422.02942     691.1133     524.2305   1422.02942     691.1133     524.2305
   1422.01416     690.5823     523.6548   1422.01416     690.5823     523.6548
   1421.99890     689.5558     522.4863   1421.99890     689.5558     522.4863
   1421.98364     689.2571     521.4938   1421.98364     689.2571     521.4938
   1421.96838     689.2043     521.1384   1421.96838     689.2043     521.1384
   1421.95312     689.3380     520.4285   1421.95312     689.3380     520.4285
   1421.93787     689.2226     519.3274   1421.93787     689.2226     519.3274
   1421.92261     688.0278     518.0227   1421.92261     688.0278     518.0227
   1421.90735     688.7693     517.4430   1421.90735     688.7693     517.4430
   1421.89209     688.6073     515.9866   1421.89209     688.6073     515.9866
   1421.87683     687.3062     516.6307   1421.87683     687.3062     516.6307
   1421.86157     686.6909     514.8511   1421.86157     686.6909     514.8511
   1421.84631     687.4811     514.0220   1421.84631     687.4811     514.0220
   1421.83105     687.4925     512.8869   1421.83105     687.4925     512.8869
   1421.81580     686.6143     511.3617   1421.81580     686.6143     511.3617
   1421.80054     688.3875     510.9055   1421.80054     688.3875     510.9055
   1421.78528     687.0816     510.3733   1421.78528     687.0816     510.3733
   1421.77002     686.8306     509.9090   1421.77002     686.8306     509.9090
   1421.75476     686.1294     508.1154   1421.75476     686.1294     508.1154
   1421.73950     686.1106     507.9417   1421.73950     686.1106     507.9417
   1421.72424     686.4389     506.4770   1421.72424     686.4389     506.4770
   1421.70898     686.2007     506.0041   1421.70898     686.2007     506.0041
   1421.69373     685.9200     505.0962   1421.69373     685.9200     505.0962
   1421.67847     684.7155     504.4384   1421.67847     684.7155     504.4384
   1421.66321     685.3491     502.9048   1421.66321     685.3491     502.9048
   1421.64795     684.8969     502.7406   1421.64795     684.8969     502.7406
   1421.63269     684.2322     502.0383   1421.63269     684.2322     502.0383
   1421.61743     684.4437     500.4394   1421.61743     684.4437     500.4394
   1421.60217     682.9929     500.4316   1421.60217     682.9929     500.4316
   1421.58691     683.1450     498.5527   1421.58691     683.1450     498.5527
   1421.57166     683.4949     498.7008   1421.57166     683.4949     498.7008
   1421.55640     684.1489     496.9146   1421.55640     684.1489     496.9146
   1421.54114     682.6851     496.1665   1421.54114     682.6851     496.1665
   1421.52588     682.7912     495.3557   1421.52588     682.7912     495.3557
   1421.51062     683.2220     495.0678   1421.51062     683.2220     495.0678
   1421.49536     683.3456     494.1705   1421.49536     683.3456     494.1705
   1421.48010     681.9410     493.0406   1421.48010     681.9410     493.0406
   1421.46484     682.2849     491.7877   1421.46484     682.2849     491.7877
   1421.44958     682.2424     490.8674   1421.44958     682.2424     490.8674
   1421.43433     681.2297     490.5405   1421.43433     681.2297     490.5405
   1421.41907     680.7360     488.9760   1421.41907     680.7360     488.9760
   1421.40381     681.5229     489.1562   1421.40381     681.5229     489.1562
   1421.38855     680.9351     488.3413   1421.38855     680.9351     488.3413
   1421.37329     680.2952     486.7104   1421.37329     680.2952     486.7104
   1421.35803     680.9044     485.7918   1421.35803     680.9044     485.7918
   1421.34277     681.1160     485.4308   1421.34277     681.1160     485.4308
   1421.32751     679.8823     484.7672   1421.32751     679.8823     484.7672
   1421.31226     679.3237     484.3302   1421.31226     679.3237     484.3302
   1421.29700     679.5692     483.1646   1421.29700     679.5692     483.1646
   1421.28174     679.8641     481.9150   1421.28174     679.8641     481.9150
   1421.26648     679.9775     480.9522   1421.26648     679.9775     480.9522
   1421.25122     678.4921     479.8461   1421.25122     678.4921     479.8461
   1421.23596     678.2864     479.1415   1421.23596     678.2864     479.1415
   1421.22070     677.5749     478.6878   1421.22070     677.5749     478.6878
   1421.20544     678.6472     477.0655   1421.20544     678.6472     477.0655
   1421.19019     678.0079     476.8077   1421.19019     678.0079     476.8077
   1421.17493     677.1351     476.5451   1421.17493     677.1351     476.5451
   1421.15967     678.0742     474.7680   1421.15967     678.0742     474.7680
   1421.14441     677.6302     474.0021   1421.14441     677.6302     474.0021
   1421.12915     676.9902     473.3684   1421.12915     676.9902     473.3684
   1421.11389     676.3360     472.5244   1421.11389     676.3360     472.5244
   1421.09863     675.8148     472.0119   1421.09863     675.8148     472.0119
   1421.08337     675.8616     470.6192   1421.08337     675.8616     470.6192
   1421.06812     675.9351     470.5187   1421.06812     675.9351     470.5187
   1421.05286     675.7998     469.1664   1421.05286     675.7998     469.1664
   1421.03760     674.9692     467.7097   1421.03760     674.9692     467.7097
   1421.02234     674.5138     467.9687   1421.02234     674.5138     467.9687
   1421.00708     675.0125     466.7726   1421.00708     675.0125     466.7726
   1420.99182     674.3313     466.2426   1420.99182     674.3313     466.2426
   1420.97656     674.5967     465.2570   1420.97656     674.5967     465.2570
   1420.96130     674.3635     463.9293   1420.96130     674.3635     463.9293
   1420.94604     674.0515     463.2816   1420.94604     674.0515     463.2816
   1420.93079     673.2156     462.9534   1420.93079     673.2156     462.9534
   1420.91553     673.9350     461.6345   1420.91553     673.9350     461.6345
   1420.90027     672.2025     461.6836   1420.90027     672.2025     461.6836
   1420.88501     673.5295     460.1968   1420.88501     673.5295     460.1968
   1420.86975     673.7546     460.7222   1420.86975     673.7546     460.7222
   1420.85449     671.9109     459.2000   1420.85449     671.9109     459.2000
   1420.83923     672.5945     458.1320   1420.83923     672.5945     458.1320
   1420.82397     673.3013     458.0639   1420.82397     673.3013     458.0639
   1420.80872     673.6198     457.5692   1420.80872     673.6198     457.5692
   1420.79346     672.7620     456.4084   1420.79346     672.7620     456.4084
   1420.77820     673.7325     456.2928   1420.77820     673.7325     456.2928
   1420.76294     674.3844     456.0540   1420.76294     674.3844     456.0540
   1420.74768     676.3152     456.4851   1420.74768     676.3152     456.4851
   1420.73242     678.4221     457.7854   1420.73242     678.4221     457.7854
   1420.71716     680.7914     457.3350   1420.71716     680.7914     457.3350
   1420.70190     681.7571     458.4683   1420.70190     681.7571     458.4683
   1420.68665     681.0308     458.2022   1420.68665     681.0308     458.2022
   1420.67139     681.0031     456.7240   1420.67139     681.0031     456.7240
   1420.65613     681.3820     455.6751   1420.65613     681.3820     455.6751
   1420.64087     681.6688     455.6155   1420.64087     681.6688     455.6155
   1420.62561     679.9169     454.4838   1420.62561     679.9169     454.4838
   1420.61035     680.4688     454.5710   1420.61035     680.4688     454.5710
   1420.59509     680.6827     454.1499   1420.59509     680.6827     454.1499
   1420.57983     680.7809     452.7966   1420.57983     680.7809     452.7966
   1420.56458     679.8883     451.9631   1420.56458     679.8883     451.9631
   1420.54932     679.2349     451.4613   1420.54932     679.2349     451.4613
   1420.53406     678.4393     449.8246   1420.53406     678.4393     449.8246
   1420.51880     678.4808     449.7245   1420.51880     678.4808     449.7245
   1420.50354     678.8725     448.9311   1420.50354     678.8725     448.9311
   1420.48828     678.6657     448.3008   1420.48828     678.6657     448.3008
   1420.47302     679.4156     447.0221   1420.47302     679.4156     447.0221
   1420.45776     678.7232     447.0689   1420.45776     678.7232     447.0689
   1420.44250     680.3694     446.8560   1420.44250     680.3694     446.8560
   1420.42725     682.8369     448.1829   1420.42725     682.8369     448.1829
   1420.41199     683.0912     448.6978   1420.41199     683.0912     448.6978
   1420.39673     686.8940     450.6993   1420.39673     686.8940     450.6993
   1420.38147     689.7518     451.8478   1420.38147     689.7518     451.8478
   1420.36621     698.5729     455.7925   1420.36621     698.5729     455.7925
   1420.35095     716.0199     466.8838   1420.35095     716.0199     466.8838
   1420.33569     768.1601     498.2119   1420.33569     768.1601     498.2119
   1420.32043     846.4593     547.2716   1420.32043     846.4593     547.2716
   1420.30518     931.5577     597.5611   1420.30518     931.5577     597.5611
   1420.28992     993.3108     636.7538   1420.28992     993.3108     636.7538
   1420.27466    1088.3650     694.4070   1420.27466    1088.3650     694.4070
   1420.25940    1184.2909     755.8278   1420.25940    1184.2909     755.8278
   1420.24414    1436.8708     912.9880   1420.24414    1436.8708     912.9880
   1420.22888    1773.6008    1122.0594   1420.22888    1773.6008    1122.0594
   1420.21362    1899.3236    1201.0973   1420.21362    1899.3236    1201.0973
   1420.19836    1994.7906    1256.1305   1420.19836    1994.7906    1256.1305
   1420.18311    1897.5922    1193.0483   1420.18311    1897.5922    1193.0483
   1420.16785    2037.6870    1280.1167   1420.16785    2037.6870    1280.1167
   1420.15259    2171.0554    1359.1034   1420.15259    2171.0554    1359.1034
   1420.13733    2057.6963    1292.4298   1420.13733    2057.6963    1292.4298
   1420.12207    1990.6576    1248.9348   1420.12207    1990.6576    1248.9348
   1420.10681    1811.5654    1133.8903   1420.10681    1811.5654    1133.8903
   1420.09155    1598.2018    1003.4888   1420.09155    1598.2018    1003.4888
   1420.07629    1484.7765     930.5179   1420.07629    1484.7765     930.5179
   1420.06104    1105.7874     699.5585   1420.06104    1105.7874     699.5585
   1420.04578     867.6222     548.6567   1420.04578     867.6222     548.6567
   1420.03052     773.3864     491.2244   1420.03052     773.3864     491.2244
   1420.01526     727.4907     462.9410   1420.01526     727.4907     462.9410
   1420.00000     707.3837     451.7740   1420.00000     707.3837     451.7740
   1419.98474     687.2767     440.6071   1419.98474     687.2767     440.6071
   1419.96948     678.2583     432.7266   1419.96948     678.2583     432.7266
   1419.95422     672.9091     427.2583   1419.95422     672.9091     427.2583
   1419.93896     670.1504     425.0886   1419.93896     670.1504     425.0886
   1419.92371     667.0687     423.4663   1419.92371     667.0687     423.4663
   1419.90845     666.2818     422.0321   1419.90845     666.2818     422.0321
   1419.89319     665.0626     421.3717   1419.89319     665.0626     421.3717
   1419.87793     663.8597     420.5117   1419.87793     663.8597     420.5117
   1419.86267     664.3415     419.6597   1419.86267     664.3415     419.6597
   1419.84741     662.4053     419.2315   1419.84741     662.4053     419.2315
   1419.83215     663.6878     419.3098   1419.83215     663.6878     419.3098
   1419.81689     662.8001     418.5555   1419.81689     662.8001     418.5555
   1419.80164     662.6653     418.1291   1419.80164     662.6653     418.1291
   1419.78638     663.3928     417.6868   1419.78638     663.3928     417.6868
   1419.77112     662.7858     416.1909   1419.77112     662.7858     416.1909
   1419.75586     662.6870     416.3123   1419.75586     662.6870     416.3123
   1419.74060     662.4990     415.9958   1419.74060     662.4990     415.9958
   1419.72534     662.1048     416.2273   1419.72534     662.1048     416.2273
   1419.71008     663.1258     415.9831   1419.71008     663.1258     415.9831
   1419.69482     663.3342     416.1535   1419.69482     663.3342     416.1535
   1419.67957     661.9388     414.5312   1419.67957     661.9388     414.5312
   1419.66431     663.1566     414.7367   1419.66431     663.1566     414.7367
   1419.64905     663.4629     414.2129   1419.64905     663.4629     414.2129
   1419.63379     662.8649     414.4774   1419.63379     662.8649     414.4774
   1419.61853     662.8980     414.3818   1419.61853     662.8980     414.3818
   1419.60327     663.5594     414.4525   1419.60327     663.5594     414.4525
   1419.58801     663.4622     413.9821   1419.58801     663.4622     413.9821
   1419.57275     663.7118     413.6981   1419.57275     663.7118     413.6981
   1419.55750     664.6815     413.3102   1419.55750     664.6815     413.3102
   1419.54224     664.6442     413.0382   1419.54224     664.6442     413.0382
   1419.52698     664.4306     413.6620   1419.52698     664.4306     413.6620
   1419.51172     663.9078     413.3254   1419.51172     663.9078     413.3254
   1419.49646     664.7804     413.6321   1419.49646     664.7804     413.6321
   1419.48120     665.1444     413.7328   1419.48120     665.1444     413.7328
   1419.46594     666.1868     413.3883   1419.46594     666.1868     413.3883
   1419.45068     666.8638     413.1115   1419.45068     666.8638     413.1115
   1419.43542     665.9513     413.2774   1419.43542     665.9513     413.2774
   1419.42017     666.7836     413.0843   1419.42017     666.7836     413.0843
   1419.40491     666.2798     412.5939   1419.40491     666.2798     412.5939
   1419.38965     666.6238     412.7673   1419.38965     666.6238     412.7673
   1419.37439     666.5481     413.0276   1419.37439     666.5481     413.0276
   1419.35913     667.6984     412.3511   1419.35913     667.6984     412.3511
   1419.34387     667.6938     413.3435   1419.34387     667.6938     413.3435
   1419.32861     667.4542     413.6958   1419.32861     667.4542     413.6958
   1419.31335     668.9363     412.8519   1419.31335     668.9363     412.8519
   1419.29810     668.5602     412.9569   1419.29810     668.5602     412.9569
   1419.28284     668.8309     413.0354   1419.28284     668.8309     413.0354
   1419.26758     669.9128     414.3814   1419.26758     669.9128     414.3814
   1419.25232     669.7609     414.3097   1419.25232     669.7609     414.3097
   1419.23706     670.5549     414.1028   1419.23706     670.5549     414.1028
   1419.22180     669.7806     414.4181   1419.22180     669.7806     414.4181
   1419.20654     669.9907     414.0945   1419.20654     669.9907     414.0945
   1419.19128     669.9838     414.4451   1419.19128     669.9838     414.4451
   1419.17603     671.0692     414.3535   1419.17603     671.0692     414.3535
   1419.16077     671.6300     414.2830   1419.16077     671.6300     414.2830
   1419.14551     672.3749     415.1088   1419.14551     672.3749     415.1088
   1419.13025     672.2399     414.6918   1419.13025     672.2399     414.6918
   1419.11499     672.9541     414.9174   1419.11499     672.9541     414.9174
   1419.09973     672.5766     414.9147   1419.09973     672.5766     414.9147
   1419.08447     673.8648     415.0035   1419.08447     673.8648     415.0035
   1419.06921     673.7879     415.4700   1419.06921     673.7879     415.4700
   1419.05396     675.0527     416.0975   1419.05396     675.0527     416.0975
   1419.03870     675.7917     416.4744   1419.03870     675.7917     416.4744
   1419.02344     676.5447     416.3665   1419.02344     676.5447     416.3665
   1419.00818     675.3463     416.7760   1419.00818     675.3463     416.7760
   1418.99292     676.6384     417.2856   1418.99292     676.6384     417.2856
   1418.97766     677.1673     417.2475   1418.97766     677.1673     417.2475
   1418.96240     678.3803     417.4688   1418.96240     678.3803     417.4688
   1418.94714     677.3430     418.2398   1418.94714     677.3430     418.2398
   1418.93188     678.5526     419.3114   1418.93188     678.5526     419.3114
   1418.91663     678.8052     418.7967   1418.91663     678.8052     418.7967
   1418.90137     679.1627     419.2561   1418.90137     679.1627     419.2561
   1418.88611     680.2249     420.0742   1418.88611     680.2249     420.0742
   1418.87085     680.4445     420.3936   1418.87085     680.4445     420.3936
   1418.85559     680.7278     420.8931   1418.85559     680.7278     420.8931
   1418.84033     682.0295     421.5604   1418.84033     682.0295     421.5604
   1418.82507     681.7644     421.6459   1418.82507     681.7644     421.6459
   1418.80981     682.9372     421.9565   1418.80981     682.9372     421.9565
   1418.79456     683.7751     422.3666   1418.79456     683.7751     422.3666
   1418.77930     684.5930     422.5301   1418.77930     684.5930     422.5301
   1418.76404     684.5772     423.5831   1418.76404     684.5772     423.5831
   1418.74878     685.7027     424.0739   1418.74878     685.7027     424.0739
   1418.73352     685.4752     423.7446   1418.73352     685.4752     423.7446
   1418.71826     687.0515     424.2903   1418.71826     687.0515     424.2903
   1418.70300     687.1730     424.8373   1418.70300     687.1730     424.8373
   1418.68774     688.6654     425.5114   1418.68774     688.6654     425.5114
   1418.67249     688.4265     426.2529   1418.67249     688.4265     426.2529
   1418.65723     688.7806     426.9508   1418.65723     688.7806     426.9508
   1418.64197     690.0106     426.8438   1418.64197     690.0106     426.8438
   1418.62671     691.1611     428.2748   1418.62671     691.1611     428.2748
   1418.61145     690.3086     429.2430   1418.61145     690.3086     429.2430
   1418.59619     691.8879     429.5568   1418.59619     691.8879     429.5568
   1418.58093     691.6267     430.0620   1418.58093     691.6267     430.0620
   1418.56567     693.8800     430.7078   1418.56567     693.8800     430.7078
   1418.55042     693.1555     430.1902   1418.55042     693.1555     430.1902
   1418.53516     694.1459     432.1482   1418.53516     694.1459     432.1482
   1418.51990     695.0918     432.5881   1418.51990     695.0918     432.5881
   1418.50464     694.2733     433.7818   1418.50464     694.2733     433.7818
   1418.48938     696.0879     434.2719   1418.48938     696.0879     434.2719
   1418.47412     696.7071     434.2421   1418.47412     696.7071     434.2421
   1418.45886     697.6637     434.9845   1418.45886     697.6637     434.9845
   1418.44360     698.3525     435.9044   1418.44360     698.3525     435.9044
   1418.42834     701.3676     436.1945   1418.42834     701.3676     436.1945
   1418.41309     699.6524     437.6510   1418.41309     699.6524     437.6510
   1418.39783     700.7670     438.5130   1418.39783     700.7670     438.5130
   1418.38257     701.5760     439.0659   1418.38257     701.5760     439.0659
   1418.36731     701.7141     440.0392   1418.36731     701.7141     440.0392
   1418.35205     703.1853     440.9240   1418.35205     703.1853     440.9240
   1418.33679     703.1177     441.1869   1418.33679     703.1177     441.1869
   1418.32153     704.5649     442.1892   1418.32153     704.5649     442.1892
   1418.30627     704.6425     442.9235   1418.30627     704.6425     442.9235
   1418.29102     706.7040     443.8059   1418.29102     706.7040     443.8059
   1418.27576     707.3931     444.5245   1418.27576     707.3931     444.5245
   1418.26050     707.8799     445.3600   1418.26050     707.8799     445.3600
   1418.24524     709.1252     446.4318   1418.24524     709.1252     446.4318
   1418.22998     708.5796     447.7006   1418.22998     708.5796     447.7006
   1418.21472     710.2646     447.7963   1418.21472     710.2646     447.7963
   1418.19946     711.4669     448.6184   1418.19946     711.4669     448.6184
   1418.18420     713.0618     450.5146   1418.18420     713.0618     450.5146
   1418.16895     713.4220     450.6597   1418.16895     713.4220     450.6597
   1418.15369     712.0611     451.8176   1418.15369     712.0611     451.8176
   1418.13843     714.3323     453.0064   1418.13843     714.3323     453.0064
   1418.12317     715.2440     453.1480   1418.12317     715.2440     453.1480
   1418.10791     714.6983     454.3941   1418.10791     714.6983     454.3941
   1418.09265     715.7944     455.4941   1418.09265     715.7944     455.4941
   1418.07739     718.4996     456.6069   1418.07739     718.4996     456.6069
   1418.06213     717.4391     457.9038   1418.06213     717.4391     457.9038
   1418.04688     718.6832     458.3861   1418.04688     718.6832     458.3861
   1418.03162     719.6892     459.0776   1418.03162     719.6892     459.0776
   1418.01636     721.1542     460.5634   1418.01636     721.1542     460.5634
   1418.00110     721.6633     462.0444   1418.00110     721.6633     462.0444
   1417.98584     722.8077     461.9502   1417.98584     722.8077     461.9502
   1417.97058     723.1801     463.6952   1417.97058     723.1801     463.6952
   1417.95532     724.1937     464.5288   1417.95532     724.1937     464.5288
   1417.94006     725.1140     464.8907   1417.94006     725.1140     464.8907
   1417.92480     726.0663     466.0931   1417.92480     726.0663     466.0931
   1417.90955     727.3112     467.4091   1417.90955     727.3112     467.4091
   1417.89429     727.6718     468.7955   1417.89429     727.6718     468.7955
   1417.87903     728.9979     469.8674   1417.87903     728.9979     469.8674
   1417.86377     728.7297     470.3938   1417.86377     728.7297     470.3938
   1417.84851     730.2711     471.5178   1417.84851     730.2711     471.5178
   1417.83325     730.3653     472.8479   1417.83325     730.3653     472.8479
   1417.81799     732.5718     474.0168   1417.81799     732.5718     474.0168
   1417.80273     733.4565     474.6313   1417.80273     733.4565     474.6313
   1417.78748     735.8019     476.0185   1417.78748     735.8019     476.0185
   1417.77222     735.6333     477.0630   1417.77222     735.6333     477.0630
   1417.75696     735.7899     478.3713   1417.75696     735.7899     478.3713
   1417.74170     737.4686     478.9283   1417.74170     737.4686     478.9283
   1417.72644     738.3608     480.2303   1417.72644     738.3608     480.2303
   1417.71118     737.8132     481.5994   1417.71118     737.8132     481.5994
   1417.69592     738.4092     482.5186   1417.69592     738.4092     482.5186
   1417.68066     739.5334     483.5879   1417.68066     739.5334     483.5879
   1417.66541     740.4306     484.4075   1417.66541     740.4306     484.4075
   1417.65015     741.4683     485.9217   1417.65015     741.4683     485.9217
   1417.63489     743.3223     488.4048   1417.63489     743.3223     488.4048
   1417.61963     743.3099     488.6289   1417.61963     743.3099     488.6289
   1417.60437     743.8963     488.8896   1417.60437     743.8963     488.8896
   1417.58911     745.2078     490.7597   1417.58911     745.2078     490.7597
   1417.57385     745.8260     491.4007   1417.57385     745.8260     491.4007
   1417.55859     746.9362     492.2310   1417.55859     746.9362     492.2310
   1417.54333     748.1201     494.0062   1417.54333     748.1201     494.0062
   1417.52808     749.6606     495.0553   1417.52808     749.6606     495.0553
   1417.51282     749.6442     495.4630   1417.51282     749.6442     495.4630
   1417.49756     750.1978     496.9102   1417.49756     750.1978     496.9102
   1417.48230     751.7313     498.3945   1417.48230     751.7313     498.3945
   1417.46704     753.1474     499.4005   1417.46704     753.1474     499.4005
   1417.45178     752.6397     500.6445   1417.45178     752.6397     500.6445
   1417.43652     754.9213     502.1366   1417.43652     754.9213     502.1366
   1417.42126     753.0294     503.1872   1417.42126     753.0294     503.1872
   1417.40601     755.5986     504.5405   1417.40601     755.5986     504.5405
   1417.39075     757.2059     505.0095   1417.39075     757.2059     505.0095
   1417.37549     756.4714     507.7039   1417.37549     756.4714     507.7039
   1417.36023     757.2117     508.2018   1417.36023     757.2117     508.2018
   1417.34497     759.6979     509.0533   1417.34497     759.6979     509.0533
   1417.32971     758.9402     510.1878   1417.32971     758.9402     510.1878
   1417.31445     760.3613     510.7860   1417.31445     760.3613     510.7860
   1417.29919     760.9898     512.2098   1417.29919     760.9898     512.2098
   1417.28394     761.1240     513.3338   1417.28394     761.1240     513.3338
   1417.26868     761.1620     515.0050   1417.26868     761.1620     515.0050
   1417.25342     762.7793     516.7562   1417.25342     762.7793     516.7562
   1417.23816     764.1425     516.3550   1417.23816     764.1425     516.3550
   1417.22290     765.7874     519.5366   1417.22290     765.7874     519.5366
   1417.20764     764.5457     518.2568   1417.20764     764.5457     518.2568
   1417.19238     765.3237     519.8383   1417.19238     765.3237     519.8383
   1417.17712     765.9286     520.4495   1417.17712     765.9286     520.4495
   1417.16187     767.5370     522.3919   1417.16187     767.5370     522.3919
   1417.14661     767.4116     524.3823   1417.14661     767.4116     524.3823
   1417.13135     768.9136     524.4551   1417.13135     768.9136     524.4551
   1417.11609     769.7836     525.5669   1417.11609     769.7836     525.5669
   1417.10083     770.3285     525.8470   1417.10083     770.3285     525.8470
   1417.08557     770.6028     526.9380   1417.08557     770.6028     526.9380
   1417.07031     771.0285     527.7543   1417.07031     771.0285     527.7543
   1417.05505     771.6387     528.4456   1417.05505     771.6387     528.4456
   1417.03979     772.5891     531.0797   1417.03979     772.5891     531.0797
   1417.02454     773.1602     530.2806   1417.02454     773.1602     530.2806
   1417.00928     774.5690     532.0231   1417.00928     774.5690     532.0231
   1416.99402     774.6011     533.1440   1416.99402     774.6011     533.1440
   1416.97876     773.9294     533.7063   1416.97876     773.9294     533.7063
   1416.96350     775.0165     534.1476   1416.96350     775.0165     534.1476
   1416.94824     775.5480     535.7101   1416.94824     775.5480     535.7101
   1416.93298     775.6592     535.7117   1416.93298     775.6592     535.7117
   1416.91772     777.4559     537.2222   1416.91772     777.4559     537.2222
   1416.90247     776.9689     538.9260   1416.90247     776.9689     538.9260
   1416.88721     776.9662     538.9966   1416.88721     776.9662     538.9966
   1416.87195     778.6225     539.5308   1416.87195     778.6225     539.5308
   1416.85669     777.7943     540.4024   1416.85669     777.7943     540.4024
   1416.84143     780.0684     540.2369   1416.84143     780.0684     540.2369
   1416.82617     779.1087     542.0887   1416.82617     779.1087     542.0887
   1416.81091     779.5772     541.6599   1416.81091     779.5772     541.6599
   1416.79565     779.7766     543.2580   1416.79565     779.7766     543.2580
   1416.78040     779.4532     542.6976   1416.78040     779.4532     542.6976
   1416.76514     780.4449     544.2226   1416.76514     780.4449     544.2226
   1416.74988     780.3100     544.7792   1416.74988     780.3100     544.7792
   1416.73462     780.7675     544.8522   1416.73462     780.7675     544.8522
   1416.71936     781.0012     545.8743   1416.71936     781.0012     545.8743
   1416.70410     781.2720     546.7598   1416.70410     781.2720     546.7598
   1416.68884     781.7564     546.0974   1416.68884     781.7564     546.0974
   1416.67358     781.4315     547.2941   1416.67358     781.4315     547.2941
   1416.65833     783.3475     547.8231   1416.65833     783.3475     547.8231
   1416.64307     782.6110     547.6149   1416.64307     782.6110     547.6149
   1416.62781     782.2187     547.3788   1416.62781     782.2187     547.3788
   1416.61255     781.7589     547.9351   1416.61255     781.7589     547.9351
   1416.59729     783.9067     548.9149   1416.59729     783.9067     548.9149
   1416.58203     782.5840     548.3611   1416.58203     782.5840     548.3611
   1416.56677     783.8350     549.4788   1416.56677     783.8350     549.4788
   1416.55151     782.6376     549.4429   1416.55151     782.6376     549.4429
   1416.53625     783.7025     549.2784   1416.53625     783.7025     549.2784
   1416.52100     784.2172     550.0211   1416.52100     784.2172     550.0211
   1416.50574     783.1650     549.4946   1416.50574     783.1650     549.4946
   1416.49048     783.1210     549.9708   1416.49048     783.1210     549.9708
   1416.47522     783.0767     550.2035   1416.47522     783.0767     550.2035
   1416.45996     783.0869     550.8613   1416.45996     783.0869     550.8613
   1416.44470     782.4814     550.3394   1416.44470     782.4814     550.3394
   1416.42944     782.9509     550.0696   1416.42944     782.9509     550.0696
   1416.41418     783.0593     550.2344   1416.41418     783.0593     550.2344
   1416.39893     782.9066     551.6332   1416.39893     782.9066     551.6332
   1416.38367     782.3976     550.5243   1416.38367     782.3976     550.5243
   1416.36841     781.4829     549.0668   1416.36841     781.4829     549.0668
   1416.35315     782.0509     549.1371   1416.35315     782.0509     549.1371
   1416.33789     782.4337     549.8363   1416.33789     782.4337     549.8363
   1416.32263     781.4024     549.1133   1416.32263     781.4024     549.1133
   1416.30737     781.3760     549.8209   1416.30737     781.3760     549.8209
   1416.29211     781.1566     549.0393   1416.29211     781.1566     549.0393
   1416.27686     782.0809     548.1555   1416.27686     782.0809     548.1555
   1416.26160     780.8087     548.8062   1416.26160     780.8087     548.8062
   1416.24634     779.7375     546.8286   1416.24634     779.7375     546.8286
   1416.23108     780.8876     547.8483   1416.23108     780.8876     547.8483
   1416.21582     780.3051     547.7296   1416.21582     780.3051     547.7296
   1416.20056     779.0216     548.1915   1416.20056     779.0216     548.1915
   1416.18530     779.6839     546.9354   1416.18530     779.6839     546.9354
   1416.17004     777.5490     546.9188   1416.17004     777.5490     546.9188
   1416.15479     779.1949     546.0683   1416.15479     779.1949     546.0683
   1416.13953     778.9673     546.6306   1416.13953     778.9673     546.6306
   1416.12427     778.0405     546.1722   1416.12427     778.0405     546.1722
   1416.10901     776.5521     544.3260   1416.10901     776.5521     544.3260
   1416.09375     777.8448     544.6121   1416.09375     777.8448     544.6121
   1416.07849     775.2018     544.9970   1416.07849     775.2018     544.9970
   1416.06323     776.0844     542.8796   1416.06323     776.0844     542.8796
   1416.04797     776.2293     543.2549   1416.04797     776.2293     543.2549
   1416.03271     775.5208     542.8384   1416.03271     775.5208     542.8384
   1416.01746     774.2899     542.1208   1416.01746     774.2899     542.1208
   1416.00220     774.9955     541.1287   1416.00220     774.9955     541.1287
   1415.98694     774.2769     540.3684   1415.98694     774.2769     540.3684
   1415.97168     773.1408     540.7840   1415.97168     773.1408     540.7840
   1415.95642     771.4911     540.3987   1415.95642     771.4911     540.3987
   1415.94116     771.8232     539.3500   1415.94116     771.8232     539.3500
   1415.92590     770.5175     538.1889   1415.92590     770.5175     538.1889
   1415.91064     771.2165     537.5182   1415.91064     771.2165     537.5182
   1415.89539     770.6455     536.7935   1415.89539     770.6455     536.7935
   1415.88013     769.0650     536.2680   1415.88013     769.0650     536.2680
   1415.86487     770.1300     536.4985   1415.86487     770.1300     536.4985
   1415.84961     769.3380     535.6812   1415.84961     769.3380     535.6812
   1415.83435     768.7751     535.5546   1415.83435     768.7751     535.5546
   1415.81909     767.6119     533.6967   1415.81909     767.6119     533.6967
   1415.80383     766.4653     532.8647   1415.80383     766.4653     532.8647
   1415.78857     766.3600     531.5894   1415.78857     766.3600     531.5894
   1415.77332     765.0143     532.2510   1415.77332     765.0143     532.2510
   1415.75806     765.1830     530.8618   1415.75806     765.1830     530.8618
   1415.74280     763.9250     530.4933   1415.74280     763.9250     530.4933
   1415.72754     763.7380     529.5381   1415.72754     763.7380     529.5381
   1415.71228     762.3492     528.7529   1415.71228     762.3492     528.7529
   1415.69702     761.5407     528.5290   1415.69702     761.5407     528.5290
   1415.68176     760.4040     527.6282   1415.68176     760.4040     527.6282
   1415.66650     760.8632     526.4041   1415.66650     760.8632     526.4041
   1415.65125     760.0032     526.3951   1415.65125     760.0032     526.3951
   1415.63599     757.7023     524.8743   1415.63599     757.7023     524.8743
   1415.62073     757.6866     524.7275   1415.62073     757.6866     524.7275
   1415.60547     758.5388     524.4331   1415.60547     758.5388     524.4331
   1415.59021     755.7139     522.2051   1415.59021     755.7139     522.2051
   1415.57495     755.6395     521.8964   1415.57495     755.6395     521.8964
   1415.55969     754.3751     521.0152   1415.55969     754.3751     521.0152
   1415.54443     754.5491     519.2978   1415.54443     754.5491     519.2978
   1415.52917     752.1019     519.0018   1415.52917     752.1019     519.0018
   1415.51392     751.6484     518.5236   1415.51392     751.6484     518.5236
   1415.49866     750.1550     517.0842   1415.49866     750.1550     517.0842
   1415.48340     749.7781     517.3376   1415.48340     749.7781     517.3376
   1415.46814     750.1567     515.4296   1415.46814     750.1567     515.4296
   1415.45288     747.8828     515.4061   1415.45288     747.8828     515.4061
   1415.43762     746.3732     514.8713   1415.43762     746.3732     514.8713
   1415.42236     745.1140     513.3178   1415.42236     745.1140     513.3178
   1415.40710     744.1934     512.8852   1415.40710     744.1934     512.8852
   1415.39185     743.2313     511.1248   1415.39185     743.2313     511.1248
   1415.37659     742.6123     510.0467   1415.37659     742.6123     510.0467
   1415.36133     740.9061     509.8468   1415.36133     740.9061     509.8468
   1415.34607     739.8191     508.0606   1415.34607     739.8191     508.0606
   1415.33081     738.1329     507.1821   1415.33081     738.1329     507.1821
   1415.31555     738.4905     506.4228   1415.31555     738.4905     506.4228
   1415.30029     736.9493     505.8873   1415.30029     736.9493     505.8873
   1415.28503     735.5330     504.0626   1415.28503     735.5330     504.0626
   1415.26978     734.4802     502.4772   1415.26978     734.4802     502.4772
   1415.25452     734.6207     502.5316   1415.25452     734.6207     502.5316
   1415.23926     733.2383     500.9306   1415.23926     733.2383     500.9306
   1415.22400     730.2865     499.9232   1415.22400     730.2865     499.9232
   1415.20874     730.7800     499.7209   1415.20874     730.7800     499.7209
   1415.19348     727.6738     498.7180   1415.19348     727.6738     498.7180
   1415.17822     727.9096     498.7573   1415.17822     727.9096     498.7573
   1415.16296     725.6280     496.1835   1415.16296     725.6280     496.1835
   1415.14771     725.4071     495.1641   1415.14771     725.4071     495.1641
   1415.13245     722.8752     493.1163   1415.13245     722.8752     493.1163
   1415.11719     722.7475     492.9285   1415.11719     722.7475     492.9285
   1415.10193     720.3906     492.0878   1415.10193     720.3906     492.0878
   1415.08667     719.4914     490.8834   1415.08667     719.4914     490.8834
   1415.07141     717.9704     489.2895   1415.07141     717.9704     489.2895
   1415.05615     716.2004     488.1779   1415.05615     716.2004     488.1779
   1415.04089     715.4586     487.4523   1415.04089     715.4586     487.4523
   1415.02563     713.1407     486.4771   1415.02563     713.1407     486.4771
   1415.01038     712.1556     484.7390   1415.01038     712.1556     484.7390
   1414.99512     710.6588     483.3361   1414.99512     710.6588     483.3361
   1414.97986     710.9675     482.5153   1414.97986     710.9675     482.5153
   1414.96460     708.7815     481.9222   1414.96460     708.7815     481.9222
   1414.94934     707.6177     480.2073   1414.94934     707.6177     480.2073
   1414.93408     704.9082     479.8559   1414.93408     704.9082     479.8559
   1414.91882     703.2614     478.5398   1414.91882     703.2614     478.5398
   1414.90356     700.6281     476.6460   1414.90356     700.6281     476.6460
   1414.88831     699.6063     475.2715   1414.88831     699.6063     475.2715
   1414.87305     698.6462     474.3178   1414.87305     698.6462     474.3178
   1414.85779     697.5906     473.1468   1414.85779     697.5906     473.1468
   1414.84253     694.6935     471.5648   1414.84253     694.6935     471.5648
   1414.82727     693.7294     470.5225   1414.82727     693.7294     470.5225
   1414.81201     692.1594     469.5026   1414.81201     692.1594     469.5026
   1414.79675     690.2817     467.5174   1414.79675     690.2817     467.5174
   1414.78149     688.4383     466.4213   1414.78149     688.4383     466.4213
   1414.76624     686.7325     465.5568   1414.76624     686.7325     465.5568
   1414.75098     683.5886     463.8423   1414.75098     683.5886     463.8423
   1414.73572     681.9040     463.7666   1414.73572     681.9040     463.7666
   1414.72046     680.2404     460.9774   1414.72046     680.2404     460.9774
   1414.70520     677.4052     460.1049   1414.70520     677.4052     460.1049
   1414.68994     677.0004     458.1806   1414.68994     677.0004     458.1806
   1414.67468     675.8422     457.8883   1414.67468     675.8422     457.8883
   1414.65942     673.5894     456.0017   1414.65942     673.5894     456.0017
   1414.64417     670.8853     454.7367   1414.64417     670.8853     454.7367
   1414.62891     668.8179     453.2586   1414.62891     668.8179     453.2586
   1414.61365     666.1503     452.7634   1414.61365     666.1503     452.7634
   1414.59839     665.3070     450.3486   1414.59839     665.3070     450.3486
   1414.58313     663.0827     449.3425   1414.58313     663.0827     449.3425
   1414.56787     661.9274     448.2684   1414.56787     661.9274     448.2684
   1414.55261     659.1454     446.2641   1414.55261     659.1454     446.2641
   1414.53735     657.2525     444.5158   1414.53735     657.2525     444.5158
   1414.52209     655.0146     443.7354   1414.52209     655.0146     443.7354
   1414.50684     652.4251     441.2559   1414.50684     652.4251     441.2559
   1414.49158     650.3141     440.3227   1414.49158     650.3141     440.3227
   1414.47632     647.9684     438.4934   1414.47632     647.9684     438.4934
   1414.46106     646.5173     437.0218   1414.46106     646.5173     437.0218
   1414.44580     643.6998     436.0068   1414.44580     643.6998     436.0068
   1414.43054     642.7426     434.4312   1414.43054     642.7426     434.4312
   1414.41528     640.0049     432.6154   1414.41528     640.0049     432.6154
   1414.40002     636.9576     430.5900   1414.40002     636.9576     430.5900
   1414.38477     633.9439     429.3673   1414.38477     633.9439     429.3673
   1414.36951     633.1985     428.7191   1414.36951     633.1985     428.7191
   1414.35425     630.4399     426.7471   1414.35425     630.4399     426.7471
   1414.33899     627.1981     425.1309   1414.33899     627.1981     425.1309
   1414.32373     626.6884     423.3165   1414.32373     626.6884     423.3165
   1414.30847     623.4541     422.0272   1414.30847     623.4541     422.0272
   1414.29321     621.6915     420.3188   1414.29321     621.6915     420.3188
   1414.27795     620.2777     419.3809   1414.27795     620.2777     419.3809
   1414.26270     615.6938     417.6318   1414.26270     615.6938     417.6318
   1414.24744     613.3426     415.2907   1414.24744     613.3426     415.2907
   1414.23218     610.8213     414.4152   1414.23218     610.8213     414.4152
   1414.21692     609.0616     412.8743   1414.21692     609.0616     412.8743
   1414.20166     605.3877     410.9207   1414.20166     605.3877     410.9207
   1414.18640     603.8236     408.8333   1414.18640     603.8236     408.8333
   1414.17114     600.5495     407.7237   1414.17114     600.5495     407.7237
   1414.15588     598.3737     406.3419   1414.15588     598.3737     406.3419
   1414.14062     595.1910     404.1189   1414.14062     595.1910     404.1189
   1414.12537     594.3137     402.8070   1414.12537     594.3137     402.8070
   1414.11011     591.7395     400.7127   1414.11011     591.7395     400.7127
   1414.09485     588.4206     399.4774   1414.09485     588.4206     399.4774
   1414.07959     586.5725     397.5542   1414.07959     586.5725     397.5542
   1414.06433     583.2524     395.8004   1414.06433     583.2524     395.8004
   1414.04907     580.2537     395.0860   1414.04907     580.2537     395.0860
   1414.03381     578.2019     392.9754   1414.03381     578.2019     392.9754
   1414.01855     575.9680     391.5048   1414.01855     575.9680     391.5048
   1414.00330     590.3691     393.4556   1414.00330     590.3691     393.4556
   1413.98804     570.8001     387.8890   1413.98804     570.8001     387.8890
   1413.97278     567.1351     386.1099   1413.97278     567.1351     386.1099
   1413.95752     564.4144     384.0471   1413.95752     564.4144     384.0471
   1413.94226     561.7578     382.8538   1413.94226     561.7578     382.8538
   1413.92700     560.2136     381.0165   1413.92700     560.2136     381.0165
   1413.91174     557.1922     379.2958   1413.91174     557.1922     379.2958
   1413.89648     553.9050     377.0056   1413.89648     553.9050     377.0056
   1413.88123     552.4506     375.9948   1413.88123     552.4506     375.9948
   1413.86597     549.0662     374.2944   1413.86597     549.0662     374.2944
   1413.85071     546.4816     372.4839   1413.85071     546.4816     372.4839
   1413.83545     543.0484     370.5572   1413.83545     543.0484     370.5572
   1413.82019     539.4504     369.2737   1413.82019     539.4504     369.2737
   1413.80493     537.3832     367.2727   1413.80493     537.3832     367.2727
   1413.78967     534.9759     366.2848   1413.78967     534.9759     366.2848
   1413.77441     531.6287     363.9424   1413.77441     531.6287     363.9424
   1413.75916     528.8332     361.6517   1413.75916     528.8332     361.6517
   1413.74390     525.3774     360.6575   1413.74390     525.3774     360.6575
   1413.72864     524.3348     358.8655   1413.72864     524.3348     358.8655
   1413.71338     520.7941     357.1684   1413.71338     520.7941     357.1684
   1413.69812     517.7855     355.5893   1413.69812     517.7855     355.5893
   1413.68286     515.6241     353.6834   1413.68286     515.6241     353.6834
   1413.66760     513.0840     352.3969   1413.66760     513.0840     352.3969
   1413.65234     510.2374     349.8920   1413.65234     510.2374     349.8920
   1413.63708     506.4666     348.4499   1413.63708     506.4666     348.4499
   1413.62183     504.9953     347.0876   1413.62183     504.9953     347.0876
   1413.60657     501.7931     345.4423   1413.60657     501.7931     345.4423
   1413.59131     499.2711     343.3911   1413.59131     499.2711     343.3911
   1413.57605     495.8544     341.6372   1413.57605     495.8544     341.6372
   1413.56079     493.2102     339.9927   1413.56079     493.2102     339.9927
   1413.54553     490.5038     338.4658   1413.54553     490.5038     338.4658
   1413.53027     488.3645     337.5342   1413.53027     488.3645     337.5342
   1413.51501     485.2497     335.6348   1413.51501     485.2497     335.6348
   1413.49976     482.9262     333.5115   1413.49976     482.9262     333.5115
   1413.48450     479.3514     332.2364   1413.48450     479.3514     332.2364
   1413.46924     477.5074     330.5329   1413.46924     477.5074     330.5329
   1413.45398     474.5604     328.9251   1413.45398     474.5604     328.9251
   1413.43872     471.9658     327.4164   1413.43872     471.9658     327.4164
   1413.42346     469.1436     325.3643   1413.42346     469.1436     325.3643
   1413.40820     466.7068     324.5224   1413.40820     466.7068     324.5224
   1413.39294     463.9486     322.6151   1413.39294     463.9486     322.6151
   1413.37769     461.0938     320.9991   1413.37769     461.0938     320.9991
   1413.36243     458.0216     319.7201   1413.36243     458.0216     319.7201
   1413.34717     456.5529     318.0304   1413.34717     456.5529     318.0304
   1413.33191     453.0547     316.6078   1413.33191     453.0547     316.6078
   1413.31665     450.2420     315.2898   1413.31665     450.2420     315.2898
   1413.30139     448.1465     313.4789   1413.30139     448.1465     313.4789
   1413.28613     445.8933     311.9733   1413.28613     445.8933     311.9733
   1413.27087     443.9046     310.3886   1413.27087     443.9046     310.3886
   1413.25562     440.7266     309.0731   1413.25562     440.7266     309.0731
   1413.24036     438.2231     307.2948   1413.24036     438.2231     307.2948
   1413.22510     436.1774     306.2819   1413.22510     436.1774     306.2819
   1413.20984     434.3565     305.1247   1413.20984     434.3565     305.1247
   1413.19458     431.6407     303.7574   1413.19458     431.6407     303.7574
   1413.17932     428.9617     301.9646   1413.17932     428.9617     301.9646
   1413.16406     426.3727     300.7724   1413.16406     426.3727     300.7724
   1413.14880     424.9196     299.4867   1413.14880     424.9196     299.4867
   1413.13354     422.5300     298.5993   1413.13354     422.5300     298.5993
   1413.11829     419.9639     297.1470   1413.11829     419.9639     297.1470
   1413.10303     418.1924     295.2707   1413.10303     418.1924     295.2707
   1413.08777     415.7102     294.7899   1413.08777     415.7102     294.7899
   1413.07251     413.6824     292.9828   1413.07251     413.6824     292.9828
   1413.05725     411.9092     291.9098   1413.05725     411.9092     291.9098
   1413.04199     409.4674     290.5423   1413.04199     409.4674     290.5423
   1413.02673     407.4965     289.5773   1413.02673     407.4965     289.5773
   1413.01147     405.4727     288.2423   1413.01147     405.4727     288.2423
   1412.99622     403.7233     287.4020   1412.99622     403.7233     287.4020
   1412.98096     401.2746     286.4244   1412.98096     401.2746     286.4244
   1412.96570     399.8043     285.0537   1412.96570     399.8043     285.0537
   1412.95044     397.7435     284.2410   1412.95044     397.7435     284.2410
   1412.93518     396.1885     282.8049   1412.93518     396.1885     282.8049
   1412.91992     394.2532     282.0478   1412.91992     394.2532     282.0478
   1412.90466     391.9600     281.3755   1412.90466     391.9600     281.3755
   1412.88940     391.1934     280.2576   1412.88940     391.1934     280.2576
   1412.87415     389.4250     279.1728   1412.87415     389.4250     279.1728
   1412.85889     386.8817     278.3539   1412.85889     386.8817     278.3539
   1412.84363     385.2289     277.9077   1412.84363     385.2289     277.9077
   1412.82837     384.0029     276.4014   1412.82837     384.0029     276.4014
   1412.81311     382.8924     275.8816   1412.81311     382.8924     275.8816
   1412.79785     381.3542     275.5793   1412.79785     381.3542     275.5793
   1412.78259     379.3105     274.3004   1412.78259     379.3105     274.3004
   1412.76733     378.2312     274.0977   1412.76733     378.2312     274.0977
   1412.75208     377.1759     273.0839   1412.75208     377.1759     273.0839
   1412.73682     375.4261     272.4568   1412.73682     375.4261     272.4568
   1412.72156     374.8897     272.0380   1412.72156     374.8897     272.0380
   1412.70630     373.7531     271.2385   1412.70630     373.7531     271.2385
   1412.69104     372.3393     270.8936   1412.69104     372.3393     270.8936
   1412.67578     370.8522     270.6335   1412.67578     370.8522     270.6335
   1412.66052     369.9966     270.5102   1412.66052     369.9966     270.5102
   1412.64526     369.0536     269.6966   1412.64526     369.0536     269.6966
   1412.63000     368.0710     269.5288   1412.63000     368.0710     269.5288
   1412.61475     367.2546     268.9147   1412.61475     367.2546     268.9147
   1412.59949     366.2717     268.9082   1412.59949     366.2717     268.9082
   1412.58423     365.7461     268.3139   1412.58423     365.7461     268.3139
   1412.56897     364.7750     268.0564   1412.56897     364.7750     268.0564
   1412.55371     363.5320     268.0280   1412.55371     363.5320     268.0280
   1412.53845     363.6020     267.8792   1412.53845     363.6020     267.8792
   1412.52319     363.0981     267.5898   1412.52319     363.0981     267.5898
   1412.50793     362.1904     267.5668   1412.50793     362.1904     267.5668
   1412.49268     361.6048     267.9824   1412.49268     361.6048     267.9824
   1412.47742     361.8180     267.7568   1412.47742     361.8180     267.7568
   1412.46216     360.7750     267.7398   1412.46216     360.7750     267.7398
   1412.44690     360.3779     267.7640   1412.44690     360.3779     267.7640
   1412.43164     360.7442     267.8911   1412.43164     360.7442     267.8911
   1412.41638     359.7032     267.8405   1412.41638     359.7032     267.8405
   1412.40112     360.1947     268.2090   1412.40112     360.1947     268.2090
   1412.38586     359.5326     268.3970   1412.38586     359.5326     268.3970
   1412.37061     359.9965     268.5186   1412.37061     359.9965     268.5186
   1412.35535     359.9097     268.4467   1412.35535     359.9097     268.4467
   1412.34009     360.1117     269.3466   1412.34009     360.1117     269.3466
   1412.32483     359.8333     269.7981   1412.32483     359.8333     269.7981
   1412.30957     360.4150     269.9548   1412.30957     360.4150     269.9548
   1412.29431     360.0212     270.6821   1412.29431     360.0212     270.6821
   1412.27905     360.7443     271.1639   1412.27905     360.7443     271.1639
   1412.26379     360.5779     271.5988   1412.26379     360.5779     271.5988
   1412.24854     361.1970     272.3198   1412.24854     361.1970     272.3198
   1412.23328     361.6565     273.1131   1412.23328     361.6565     273.1131
   1412.21802     361.2472     273.5778   1412.21802     361.2472     273.5778
   1412.20276     362.7963     274.2821   1412.20276     362.7963     274.2821