#     FILENAME=!Skynet_57528_lach-cc-218_20629_21041.cyb.fits
#     BASENAME=Skynet_57528_lach-cc-218_20629_21041
#     SRC_NAME=lach-cc-218
#     OBSERVER=ccmadison16_9505
#     DATE_OBS=2016-05-20T19:58:48.750
#        OBSID=20629
#      SCANNUM=21041
#          MJD=57528.8336
#          UTC=72018
#     SCANTYPE=track
#     DATAMODE=HIRES
#     TUNEFREQ=1420.0000
# Actual_FREQ1=1420.0000
# Actual_FREQ2=1420.0000
#    LO1Tuning=6870.000
#     RFFILTER=1355_1435
#        OBSBW=-15.6250
#        NCHAN=1024 
#        FOCUS=37.0709
#           RA=07:00:42.73
#          DEC=-04:30:31.56
#      RA(hrs)=7.011900
#     DEC(deg)=-4.508800
#    AZIM(deg)=169.863
#    ELEV(deg)=46.446
#     IFattens=10.00, 9.00
#      WARNING=None
#    TCAL_XL1=7.9635
#    TCAL_YR1=9.1340
#    TCAL_XL2=7.9635
#    TCAL_YR2=9.1340
#     TRX_XL1=11.7060
#     TRX_YR1=11.7060
#     TRX_XL2=11.7060
#     TRX_YR2=11.7060
#        TAVE=1.0000
#Freq1(MHz)          XL1          YR1  Freq2(MHz)          XL2          YR2 

   1427.81250     352.9667     261.9213   1427.81250     352.9667     261.9213
   1427.79724     354.2989     262.6361   1427.79724     354.2989     262.6361
   1427.78198     355.0881     263.0788   1427.78198     355.0881     263.0788
   1427.76672     355.6879     263.3272   1427.76672     355.6879     263.3272
   1427.75146     356.1836     264.1170   1427.75146     356.1836     264.1170
   1427.73621     357.9177     265.0898   1427.73621     357.9177     265.0898
   1427.72095     357.8931     265.0647   1427.72095     357.8931     265.0647
   1427.70569     359.2131     265.7805   1427.70569     359.2131     265.7805
   1427.69043     360.3344     266.5485   1427.69043     360.3344     266.5485
   1427.67517     360.9388     267.5835   1427.67517     360.9388     267.5835
   1427.65991     361.9435     268.1769   1427.65991     361.9435     268.1769
   1427.64465     363.3809     269.2195   1427.64465     363.3809     269.2195
   1427.62939     364.3498     269.8501   1427.62939     364.3498     269.8501
   1427.61414     365.7295     270.4820   1427.61414     365.7295     270.4820
   1427.59888     367.6263     271.8597   1427.59888     367.6263     271.8597
   1427.58362     367.8704     272.5188   1427.58362     367.8704     272.5188
   1427.56836     369.7930     273.4836   1427.56836     369.7930     273.4836
   1427.55310     371.4881     274.7718   1427.55310     371.4881     274.7718
   1427.53784     372.5770     275.7785   1427.53784     372.5770     275.7785
   1427.52258     374.2399     277.2675   1427.52258     374.2399     277.2675
   1427.50732     376.1165     278.2118   1427.50732     376.1165     278.2118
   1427.49207     377.2119     279.3451   1427.49207     377.2119     279.3451
   1427.47681     379.1816     280.8165   1427.47681     379.1816     280.8165
   1427.46155     380.6968     281.9148   1427.46155     380.6968     281.9148
   1427.44629     382.7430     283.0983   1427.44629     382.7430     283.0983
   1427.43103     384.7845     284.8520   1427.43103     384.7845     284.8520
   1427.41577     386.0027     286.0847   1427.41577     386.0027     286.0847
   1427.40051     387.5716     287.3918   1427.40051     387.5716     287.3918
   1427.38525     389.9899     289.3202   1427.38525     389.9899     289.3202
   1427.37000     391.7378     290.6731   1427.37000     391.7378     290.6731
   1427.35474     393.2979     291.8383   1427.35474     393.2979     291.8383
   1427.33948     395.7212     293.9118   1427.33948     395.7212     293.9118
   1427.32422     397.6442     294.7381   1427.32422     397.6442     294.7381
   1427.30896     399.5406     296.4734   1427.30896     399.5406     296.4734
   1427.29370     401.6564     298.5812   1427.29370     401.6564     298.5812
   1427.27844     402.8696     300.1630   1427.27844     402.8696     300.1630
   1427.26318     405.9777     301.9305   1427.26318     405.9777     301.9305
   1427.24792     407.8348     303.8066   1427.24792     407.8348     303.8066
   1427.23267     410.3652     305.4505   1427.23267     410.3652     305.4505
   1427.21741     412.1432     307.1109   1427.21741     412.1432     307.1109
   1427.20215     414.4214     308.5226   1427.20215     414.4214     308.5226
   1427.18689     416.6798     311.3767   1427.18689     416.6798     311.3767
   1427.17163     418.7690     313.2690   1427.17163     418.7690     313.2690
   1427.15637     421.1826     314.6680   1427.15637     421.1826     314.6680
   1427.14111     424.6261     316.6475   1427.14111     424.6261     316.6475
   1427.12585     426.5522     318.9186   1427.12585     426.5522     318.9186
   1427.11060     428.7408     320.8500   1427.11060     428.7408     320.8500
   1427.09534     430.7908     322.6198   1427.09534     430.7908     322.6198
   1427.08008     433.7160     325.2144   1427.08008     433.7160     325.2144
   1427.06482     435.1786     326.9027   1427.06482     435.1786     326.9027
   1427.04956     438.4076     329.9304   1427.04956     438.4076     329.9304
   1427.03430     441.2029     331.5668   1427.03430     441.2029     331.5668
   1427.01904     443.8032     333.4570   1427.01904     443.8032     333.4570
   1427.00378     446.4554     336.2959   1427.00378     446.4554     336.2959
   1426.98853     448.9623     338.3895   1426.98853     448.9623     338.3895
   1426.97327     451.1474     340.1721   1426.97327     451.1474     340.1721
   1426.95801     453.4701     342.5058   1426.95801     453.4701     342.5058
   1426.94275     456.1681     344.9346   1426.94275     456.1681     344.9346
   1426.92749     459.0937     347.1064   1426.92749     459.0937     347.1064
   1426.91223     462.2652     349.6134   1426.91223     462.2652     349.6134
   1426.89697     464.9030     351.8520   1426.89697     464.9030     351.8520
   1426.88171     467.4330     353.5504   1426.88171     467.4330     353.5504
   1426.86646     469.9005     356.4629   1426.86646     469.9005     356.4629
   1426.85120     472.4412     358.7963   1426.85120     472.4412     358.7963
   1426.83594     475.3591     360.8424   1426.83594     475.3591     360.8424
   1426.82068     477.4781     363.2241   1426.82068     477.4781     363.2241
   1426.80542     480.6853     366.3354   1426.80542     480.6853     366.3354
   1426.79016     483.2286     367.9629   1426.79016     483.2286     367.9629
   1426.77490     485.1887     370.8235   1426.77490     485.1887     370.8235
   1426.75964     488.7503     373.5605   1426.75964     488.7503     373.5605
   1426.74438     491.5844     376.0332   1426.74438     491.5844     376.0332
   1426.72913     493.5607     377.9200   1426.72913     493.5607     377.9200
   1426.71387     497.0722     380.8741   1426.71387     497.0722     380.8741
   1426.69861     499.7650     382.9200   1426.69861     499.7650     382.9200
   1426.68335     502.2704     386.0628   1426.68335     502.2704     386.0628
   1426.66809     505.5786     387.9333   1426.66809     505.5786     387.9333
   1426.65283     508.2547     390.6370   1426.65283     508.2547     390.6370
   1426.63757     510.2652     393.4118   1426.63757     510.2652     393.4118
   1426.62231     513.5476     400.0880   1426.62231     513.5476     400.0880
   1426.60706     515.9406     398.4066   1426.60706     515.9406     398.4066
   1426.59180     518.6045     400.8622   1426.59180     518.6045     400.8622
   1426.57654     521.8364     403.6041   1426.57654     521.8364     403.6041
   1426.56128     524.1898     406.6580   1426.56128     524.1898     406.6580
   1426.54602     526.6850     408.6459   1426.54602     526.6850     408.6459
   1426.53076     529.0726     411.7869   1426.53076     529.0726     411.7869
   1426.51550     531.6705     413.8447   1426.51550     531.6705     413.8447
   1426.50024     534.6418     417.0957   1426.50024     534.6418     417.0957
   1426.48499     537.1430     418.8908   1426.48499     537.1430     418.8908
   1426.46973     539.7548     421.8872   1426.46973     539.7548     421.8872
   1426.45447     542.7778     424.5244   1426.45447     542.7778     424.5244
   1426.43921     546.3737     426.5408   1426.43921     546.3737     426.5408
   1426.42395     547.4441     430.3255   1426.42395     547.4441     430.3255
   1426.40869     551.6014     432.7458   1426.40869     551.6014     432.7458
   1426.39343     553.7549     435.8451   1426.39343     553.7549     435.8451
   1426.37817     555.9128     437.3857   1426.37817     555.9128     437.3857
   1426.36292     558.8594     440.1995   1426.36292     558.8594     440.1995
   1426.34766     560.8530     442.7275   1426.34766     560.8530     442.7275
   1426.33240     563.2203     445.3453   1426.33240     563.2203     445.3453
   1426.31714     565.8775     448.3221   1426.31714     565.8775     448.3221
   1426.30188     568.2743     450.3493   1426.30188     568.2743     450.3493
   1426.28662     570.5652     452.2030   1426.28662     570.5652     452.2030
   1426.27136     573.6971     455.9460   1426.27136     573.6971     455.9460
   1426.25610     576.1342     458.0503   1426.25610     576.1342     458.0503
   1426.24084     578.1393     460.0379   1426.24084     578.1393     460.0379
   1426.22559     580.4625     463.8433   1426.22559     580.4625     463.8433
   1426.21033     583.7670     465.4199   1426.21033     583.7670     465.4199
   1426.19507     584.8427     468.2463   1426.19507     584.8427     468.2463
   1426.17981     588.0178     470.7892   1426.17981     588.0178     470.7892
   1426.16455     590.1710     473.8119   1426.16455     590.1710     473.8119
   1426.14929     592.9836     476.4869   1426.14929     592.9836     476.4869
   1426.13403     594.5449     478.2222   1426.13403     594.5449     478.2222
   1426.11877     597.4238     481.1883   1426.11877     597.4238     481.1883
   1426.10352     600.0120     483.4215   1426.10352     600.0120     483.4215
   1426.08826     602.0115     486.0716   1426.08826     602.0115     486.0716
   1426.07300     604.1563     489.2165   1426.07300     604.1563     489.2165
   1426.05774     606.3826     491.4289   1426.05774     606.3826     491.4289
   1426.04248     607.5004     493.8867   1426.04248     607.5004     493.8867
   1426.02722     609.6158     496.1466   1426.02722     609.6158     496.1466
   1426.01196     611.8816     498.4309   1426.01196     611.8816     498.4309
   1425.99670     613.5793     501.7562   1425.99670     613.5793     501.7562
   1425.98145     615.9755     503.0501   1425.98145     615.9755     503.0501
   1425.96619     618.1700     506.2694   1425.96619     618.1700     506.2694
   1425.95093     620.2849     508.3413   1425.95093     620.2849     508.3413
   1425.93567     622.6751     511.4211   1425.93567     622.6751     511.4211
   1425.92041     624.2633     512.6011   1425.92041     624.2633     512.6011
   1425.90515     626.4079     516.1302   1425.90515     626.4079     516.1302
   1425.88989     627.2295     517.8586   1425.88989     627.2295     517.8586
   1425.87463     631.4741     519.7296   1425.87463     631.4741     519.7296
   1425.85938     632.0426     522.9824   1425.85938     632.0426     522.9824
   1425.84412     632.9315     524.8334   1425.84412     632.9315     524.8334
   1425.82886     635.4240     527.1345   1425.82886     635.4240     527.1345
   1425.81360     637.2485     529.1329   1425.81360     637.2485     529.1329
   1425.79834     639.7255     531.2171   1425.79834     639.7255     531.2171
   1425.78308     641.1064     534.0912   1425.78308     641.1064     534.0912
   1425.76782     642.1223     536.0511   1425.76782     642.1223     536.0511
   1425.75256     643.1760     538.4635   1425.75256     643.1760     538.4635
   1425.73730     644.7145     541.3377   1425.73730     644.7145     541.3377
   1425.72205     646.4860     542.9824   1425.72205     646.4860     542.9824
   1425.70679     648.6501     544.5231   1425.70679     648.6501     544.5231
   1425.69153     650.2969     546.8261   1425.69153     650.2969     546.8261
   1425.67627     652.1762     549.2498   1425.67627     652.1762     549.2498
   1425.66101     652.6280     551.5480   1425.66101     652.6280     551.5480
   1425.64575     654.9063     553.1571   1425.64575     654.9063     553.1571
   1425.63049     656.3041     555.7700   1425.63049     656.3041     555.7700
   1425.61523     657.5370     557.2413   1425.61523     657.5370     557.2413
   1425.59998     659.3616     560.0202   1425.59998     659.3616     560.0202
   1425.58472     661.3282     561.5660   1425.58472     661.3282     561.5660
   1425.56946     662.5787     563.6295   1425.56946     662.5787     563.6295
   1425.55420     663.7660     564.9431   1425.55420     663.7660     564.9431
   1425.53894     663.6837     567.0075   1425.53894     663.6837     567.0075
   1425.52368     666.4637     568.5272   1425.52368     666.4637     568.5272
   1425.50842     667.1757     571.4619   1425.50842     667.1757     571.4619
   1425.49316     668.2440     573.1888   1425.49316     668.2440     573.1888
   1425.47791     669.8820     574.5382   1425.47791     669.8820     574.5382
   1425.46265     670.4085     577.3902   1425.46265     670.4085     577.3902
   1425.44739     670.2726     579.0843   1425.44739     670.2726     579.0843
   1425.43213     672.5619     580.3339   1425.43213     672.5619     580.3339
   1425.41687     674.0515     582.6279   1425.41687     674.0515     582.6279
   1425.40161     674.7217     583.5005   1425.40161     674.7217     583.5005
   1425.38635     676.3075     585.5302   1425.38635     676.3075     585.5302
   1425.37109     676.5376     587.3251   1425.37109     676.5376     587.3251
   1425.35583     677.6190     589.4847   1425.35583     677.6190     589.4847
   1425.34058     678.3284     590.8937   1425.34058     678.3284     590.8937
   1425.32532     680.3708     591.7950   1425.32532     680.3708     591.7950
   1425.31006     681.4276     593.7925   1425.31006     681.4276     593.7925
   1425.29480     681.4763     595.0593   1425.29480     681.4763     595.0593
   1425.27954     682.2491     597.2686   1425.27954     682.2491     597.2686
   1425.26428     681.7787     598.6600   1425.26428     681.7787     598.6600
   1425.24902     683.4442     600.4572   1425.24902     683.4442     600.4572
   1425.23376     684.5063     601.7660   1425.23376     684.5063     601.7660
   1425.21851     685.5847     603.1290   1425.21851     685.5847     603.1290
   1425.20325     686.4481     604.0261   1425.20325     686.4481     604.0261
   1425.18799     687.6558     606.5200   1425.18799     687.6558     606.5200
   1425.17273     689.2822     607.5633   1425.17273     689.2822     607.5633
   1425.15747     688.8668     608.7784   1425.15747     688.8668     608.7784
   1425.14221     688.7915     610.8091   1425.14221     688.7915     610.8091
   1425.12695     689.5605     611.9233   1425.12695     689.5605     611.9233
   1425.11169     691.0436     613.2195   1425.11169     691.0436     613.2195
   1425.09644     689.5429     614.2601   1425.09644     689.5429     614.2601
   1425.08118     691.6815     616.4401   1425.08118     691.6815     616.4401
   1425.06592     692.5038     616.6266   1425.06592     692.5038     616.6266
   1425.05066     691.9422     618.6335   1425.05066     691.9422     618.6335
   1425.03540     693.8194     620.1017   1425.03540     693.8194     620.1017
   1425.02014     694.1101     621.4493   1425.02014     694.1101     621.4493
   1425.00488     693.9728     621.9795   1425.00488     693.9728     621.9795
   1424.98962     694.1948     623.4839   1424.98962     694.1948     623.4839
   1424.97437     695.8121     624.1980   1424.97437     695.8121     624.1980
   1424.95911     695.3288     625.5493   1424.95911     695.3288     625.5493
   1424.94385     695.7630     626.7208   1424.94385     695.7630     626.7208
   1424.92859     695.9972     626.9917   1424.92859     695.9972     626.9917
   1424.91333     695.6335     629.5474   1424.91333     695.6335     629.5474
   1424.89807     697.8300     630.0280   1424.89807     697.8300     630.0280
   1424.88281     698.1094     631.9700   1424.88281     698.1094     631.9700
   1424.86755     697.0435     631.6731   1424.86755     697.0435     631.6731
   1424.85229     696.5683     632.9734   1424.85229     696.5683     632.9734
   1424.83704     699.5983     634.6605   1424.83704     699.5983     634.6605
   1424.82178     698.3817     633.6634   1424.82178     698.3817     633.6634
   1424.80652     698.8172     636.5541   1424.80652     698.8172     636.5541
   1424.79126     698.4697     636.4020   1424.79126     698.4697     636.4020
   1424.77600     697.9227     637.3956   1424.77600     697.9227     637.3956
   1424.76074     698.6675     639.0295   1424.76074     698.6675     639.0295
   1424.74548     700.0589     639.1958   1424.74548     700.0589     639.1958
   1424.73022     700.6219     640.2106   1424.73022     700.6219     640.2106
   1424.71497     699.2822     640.1580   1424.71497     699.2822     640.1580
   1424.69971     698.9894     641.6140   1424.69971     698.9894     641.6140
   1424.68445     699.9834     642.0942   1424.68445     699.9834     642.0942
   1424.66919     700.8175     642.5081   1424.66919     700.8175     642.5081
   1424.65393     700.6116     643.7601   1424.65393     700.6116     643.7601
   1424.63867     700.6588     644.4105   1424.63867     700.6588     644.4105
   1424.62341     700.0032     645.1479   1424.62341     700.0032     645.1479
   1424.60815     699.6179     645.4363   1424.60815     699.6179     645.4363
   1424.59290     700.0264     646.3699   1424.59290     700.0264     646.3699
   1424.57764     701.2628     646.6096   1424.57764     701.2628     646.6096
   1424.56238     700.3862     648.0493   1424.56238     700.3862     648.0493
   1424.54712     700.6864     648.2063   1424.54712     700.6864     648.2063
   1424.53186     700.8232     648.3913   1424.53186     700.8232     648.3913
   1424.51660     700.5901     649.3569   1424.51660     700.5901     649.3569
   1424.50134     701.2817     649.9453   1424.50134     701.2817     649.9453
   1424.48608     700.3853     649.8408   1424.48608     700.3853     649.8408
   1424.47083     700.9905     650.4288   1424.47083     700.9905     650.4288
   1424.45557     700.8015     650.2914   1424.45557     700.8015     650.2914
   1424.44031     700.7551     651.3841   1424.44031     700.7551     651.3841
   1424.42505     700.7836     652.2944   1424.42505     700.7836     652.2944
   1424.40979     700.9449     652.4059   1424.40979     700.9449     652.4059
   1424.39453     699.9828     652.3059   1424.39453     699.9828     652.3059
   1424.37927     701.3526     652.7806   1424.37927     701.3526     652.7806
   1424.36401     700.1439     652.4043   1424.36401     700.1439     652.4043
   1424.34875     700.4423     653.5078   1424.34875     700.4423     653.5078
   1424.33350     699.9430     653.4269   1424.33350     699.9430     653.4269
   1424.31824     700.2683     653.6806   1424.31824     700.2683     653.6806
   1424.30298     700.4573     652.8882   1424.30298     700.4573     652.8882
   1424.28772     701.0197     654.3241   1424.28772     701.0197     654.3241
   1424.27246     699.5350     653.5379   1424.27246     699.5350     653.5379
   1424.25720     700.1621     654.3621   1424.25720     700.1621     654.3621
   1424.24194     699.9453     653.9992   1424.24194     699.9453     653.9992
   1424.22668     699.1377     654.1312   1424.22668     699.1377     654.1312
   1424.21143     698.6259     655.5243   1424.21143     698.6259     655.5243
   1424.19617     699.2955     655.1789   1424.19617     699.2955     655.1789
   1424.18091     699.2878     654.0430   1424.18091     699.2878     654.0430
   1424.16565     697.6489     654.5747   1424.16565     697.6489     654.5747
   1424.15039     698.3802     654.6560   1424.15039     698.3802     654.6560
   1424.13513     698.2557     654.5507   1424.13513     698.2557     654.5507
   1424.11987     697.2051     655.3608   1424.11987     697.2051     655.3608
   1424.10461     697.4540     654.6035   1424.10461     697.4540     654.6035
   1424.08936     697.5892     654.8717   1424.08936     697.5892     654.8717
   1424.07410     697.7848     655.1458   1424.07410     697.7848     655.1458
   1424.05884     697.9286     654.9727   1424.05884     697.9286     654.9727
   1424.04358     697.2013     654.6229   1424.04358     697.2013     654.6229
   1424.02832     696.7548     653.8181   1424.02832     696.7548     653.8181
   1424.01306     697.1540     653.9225   1424.01306     697.1540     653.9225
   1423.99780     698.3114     653.3195   1423.99780     698.3114     653.3195
   1423.98254     697.4977     653.2687   1423.98254     697.4977     653.2687
   1423.96729     696.6740     653.8135   1423.96729     696.6740     653.8135
   1423.95203     695.8718     653.3499   1423.95203     695.8718     653.3499
   1423.93677     696.6524     652.9668   1423.93677     696.6524     652.9668
   1423.92151     695.7523     652.8038   1423.92151     695.7523     652.8038
   1423.90625     695.0191     652.2889   1423.90625     695.0191     652.2889
   1423.89099     695.8139     652.7226   1423.89099     695.8139     652.7226
   1423.87573     695.4625     651.8080   1423.87573     695.4625     651.8080
   1423.86047     695.3850     651.1647   1423.86047     695.3850     651.1647
   1423.84521     694.4586     650.2573   1423.84521     694.4586     650.2573
   1423.82996     694.9684     649.8439   1423.82996     694.9684     649.8439
   1423.81470     694.7587     650.3770   1423.81470     694.7587     650.3770
   1423.79944     693.5574     649.5637   1423.79944     693.5574     649.5637
   1423.78418     693.6434     649.7006   1423.78418     693.6434     649.7006
   1423.76892     692.9461     650.0562   1423.76892     692.9461     650.0562
   1423.75366     693.4988     648.5720   1423.75366     693.4988     648.5720
   1423.73840     693.1755     648.1965   1423.73840     693.1755     648.1965
   1423.72314     692.3970     648.4935   1423.72314     692.3970     648.4935
   1423.70789     693.9408     646.5837   1423.70789     693.9408     646.5837
   1423.69263     691.8605     646.3555   1423.69263     691.8605     646.3555
   1423.67737     691.9056     645.9671   1423.67737     691.9056     645.9671
   1423.66211     692.2729     645.5407   1423.66211     692.2729     645.5407
   1423.64685     691.2949     645.0831   1423.64685     691.2949     645.0831
   1423.63159     690.6124     644.4539   1423.63159     690.6124     644.4539
   1423.61633     691.7125     643.9010   1423.61633     691.7125     643.9010
   1423.60107     690.7087     643.5842   1423.60107     690.7087     643.5842
   1423.58582     692.4462     642.1903   1423.58582     692.4462     642.1903
   1423.57056     691.2060     642.0987   1423.57056     691.2060     642.0987
   1423.55530     690.1537     640.9047   1423.55530     690.1537     640.9047
   1423.54004     690.0723     639.3057   1423.54004     690.0723     639.3057
   1423.52478     689.7090     639.7568   1423.52478     689.7090     639.7568
   1423.50952     690.2860     638.7987   1423.50952     690.2860     638.7987
   1423.49426     689.7145     638.5757   1423.49426     689.7145     638.5757
   1423.47900     688.2938     636.6446   1423.47900     688.2938     636.6446
   1423.46375     690.2178     636.8055   1423.46375     690.2178     636.8055
   1423.44849     688.2176     636.3745   1423.44849     688.2176     636.3745
   1423.43323     688.3690     635.4860   1423.43323     688.3690     635.4860
   1423.41797     688.6212     634.3298   1423.41797     688.6212     634.3298
   1423.40271     688.1348     633.0652   1423.40271     688.1348     633.0652
   1423.38745     688.0383     633.3656   1423.38745     688.0383     633.3656
   1423.37219     687.8705     632.4982   1423.37219     687.8705     632.4982
   1423.35693     686.7533     631.3481   1423.35693     686.7533     631.3481
   1423.34167     687.8134     630.4807   1423.34167     687.8134     630.4807
   1423.32642     686.6602     628.9980   1423.32642     686.6602     628.9980
   1423.31116     685.4186     628.9308   1423.31116     685.4186     628.9308
   1423.29590     686.5607     627.9445   1423.29590     686.5607     627.9445
   1423.28064     685.2736     628.1581   1423.28064     685.2736     628.1581
   1423.26538     685.9207     625.6772   1423.26538     685.9207     625.6772
   1423.25012     685.0182     626.0344   1423.25012     685.0182     626.0344
   1423.23486     685.0856     623.7160   1423.23486     685.0856     623.7160
   1423.21960     684.7068     623.6965   1423.21960     684.7068     623.6965
   1423.20435     684.8023     622.8293   1423.20435     684.8023     622.8293
   1423.18909     684.1100     621.9398   1423.18909     684.1100     621.9398
   1423.17383     684.6868     621.6460   1423.17383     684.6868     621.6460
   1423.15857     684.8626     619.6623   1423.15857     684.8626     619.6623
   1423.14331     685.2546     619.5107   1423.14331     685.2546     619.5107
   1423.12805     683.5963     617.5262   1423.12805     683.5963     617.5262
   1423.11279     683.5288     616.9077   1423.11279     683.5288     616.9077
   1423.09753     683.0771     616.6998   1423.09753     683.0771     616.6998
   1423.08228     681.8920     614.4761   1423.08228     681.8920     614.4761
   1423.06702     683.0300     614.5117   1423.06702     683.0300     614.5117
   1423.05176     681.9682     613.9087   1423.05176     681.9682     613.9087
   1423.03650     681.9969     612.1563   1423.03650     681.9969     612.1563
   1423.02124     680.2259     609.9302   1423.02124     680.2259     609.9302
   1423.00598     681.8215     609.1865   1423.00598     681.8215     609.1865
   1422.99072     681.9797     607.9715   1422.99072     681.9797     607.9715
   1422.97546     681.3363     607.6280   1422.97546     681.3363     607.6280
   1422.96021     680.6409     606.8483   1422.96021     680.6409     606.8483
   1422.94495     681.2283     605.9628   1422.94495     681.2283     605.9628
   1422.92969     680.1251     604.1549   1422.92969     680.1251     604.1549
   1422.91443     681.0978     603.9610   1422.91443     681.0978     603.9610
   1422.89917     679.5762     603.0620   1422.89917     679.5762     603.0620
   1422.88391     681.0150     600.3306   1422.88391     681.0150     600.3306
   1422.86865     680.3502     599.7205   1422.86865     680.3502     599.7205
   1422.85339     678.9714     599.1583   1422.85339     678.9714     599.1583
   1422.83813     678.2024     597.3625   1422.83813     678.2024     597.3625
   1422.82288     678.0499     597.1556   1422.82288     678.0499     597.1556
   1422.80762     678.7996     595.0349   1422.80762     678.7996     595.0349
   1422.79236     679.1923     595.3054   1422.79236     679.1923     595.3054
   1422.77710     679.3333     593.5750   1422.77710     679.3333     593.5750
   1422.76184     678.7411     591.7855   1422.76184     678.7411     591.7855
   1422.74658     677.2673     591.2856   1422.74658     677.2673     591.2856
   1422.73132     678.0060     589.9791   1422.73132     678.0060     589.9791
   1422.71606     678.4166     588.7312   1422.71606     678.4166     588.7312
   1422.70081     677.3141     588.4950   1422.70081     677.3141     588.4950
   1422.68555     676.8027     587.0918   1422.68555     676.8027     587.0918
   1422.67029     676.4862     584.5112   1422.67029     676.4862     584.5112
   1422.65503     677.8643     584.1545   1422.65503     677.8643     584.1545
   1422.63977     676.0742     582.4103   1422.63977     676.0742     582.4103
   1422.62451     676.4949     581.7291   1422.62451     676.4949     581.7291
   1422.60925     674.3369     579.6031   1422.60925     674.3369     579.6031
   1422.59399     675.4544     578.4846   1422.59399     675.4544     578.4846
   1422.57874     675.1241     578.4733   1422.57874     675.1241     578.4733
   1422.56348     675.9384     576.5656   1422.56348     675.9384     576.5656
   1422.54822     675.3566     576.3040   1422.54822     675.3566     576.3040
   1422.53296     675.3049     574.0795   1422.53296     675.3049     574.0795
   1422.51770     675.0081     573.4761   1422.51770     675.0081     573.4761
   1422.50244     674.9365     572.4518   1422.50244     674.9365     572.4518
   1422.48718     674.6909     570.5317   1422.48718     674.6909     570.5317
   1422.47192     674.0462     569.8095   1422.47192     674.0462     569.8095
   1422.45667     674.6984     568.9013   1422.45667     674.6984     568.9013
   1422.44141     673.9888     566.3516   1422.44141     673.9888     566.3516
   1422.42615     673.7957     566.1406   1422.42615     673.7957     566.1406
   1422.41089     673.9057     564.8394   1422.41089     673.9057     564.8394
   1422.39563     673.0496     563.7464   1422.39563     673.0496     563.7464
   1422.38037     673.2990     561.4994   1422.38037     673.2990     561.4994
   1422.36511     673.6356     560.6866   1422.36511     673.6356     560.6866
   1422.34985     673.3708     559.2051   1422.34985     673.3708     559.2051
   1422.33459     672.2595     558.1711   1422.33459     672.2595     558.1711
   1422.31934     672.8162     556.1933   1422.31934     672.8162     556.1933
   1422.30408     671.8989     555.4297   1422.30408     671.8989     555.4297
   1422.28882     672.3782     555.3030   1422.28882     672.3782     555.3030
   1422.27356     670.6954     553.9243   1422.27356     670.6954     553.9243
   1422.25830     671.5811     551.9417   1422.25830     671.5811     551.9417
   1422.24304     671.6047     550.9092   1422.24304     671.6047     550.9092
   1422.22778     671.9610     550.4241   1422.22778     671.9610     550.4241
   1422.21252     670.6573     548.3043   1422.21252     670.6573     548.3043
   1422.19727     672.0037     546.8344   1422.19727     672.0037     546.8344
   1422.18201     670.0936     545.8447   1422.18201     670.0936     545.8447
   1422.16675     670.6333     544.1601   1422.16675     670.6333     544.1601
   1422.15149     669.8884     543.9285   1422.15149     669.8884     543.9285
   1422.13623     669.8794     542.3057   1422.13623     669.8794     542.3057
   1422.12097     670.6374     540.8691   1422.12097     670.6374     540.8691
   1422.10571     669.0248     539.6916   1422.10571     669.0248     539.6916
   1422.09045     670.1708     538.9533   1422.09045     670.1708     538.9533
   1422.07520     670.1273     537.2994   1422.07520     670.1273     537.2994
   1422.05994     669.4207     536.5919   1422.05994     669.4207     536.5919
   1422.04468     669.6577     535.2217   1422.04468     669.6577     535.2217
   1422.02942     668.8140     533.5546   1422.02942     668.8140     533.5546
   1422.01416     668.0714     532.4747   1422.01416     668.0714     532.4747
   1421.99890     669.1985     531.3416   1421.99890     669.1985     531.3416
   1421.98364     668.7338     529.4605   1421.98364     668.7338     529.4605
   1421.96838     667.9828     528.8309   1421.96838     667.9828     528.8309
   1421.95312     669.7385     527.5656   1421.95312     669.7385     527.5656
   1421.93787     668.1617     526.7473   1421.93787     668.1617     526.7473
   1421.92261     667.9597     524.8267   1421.92261     667.9597     524.8267
   1421.90735     667.2001     524.2470   1421.90735     667.2001     524.2470
   1421.89209     667.2015     523.4870   1421.89209     667.2015     523.4870
   1421.87683     666.8985     521.7141   1421.87683     666.8985     521.7141
   1421.86157     666.1472     520.6426   1421.86157     666.1472     520.6426
   1421.84631     666.0502     519.5332   1421.84631     666.0502     519.5332
   1421.83105     667.7236     518.5317   1421.83105     667.7236     518.5317
   1421.81580     665.5413     516.4240   1421.81580     665.5413     516.4240
   1421.80054     665.5723     515.1151   1421.80054     665.5723     515.1151
   1421.78528     666.3201     514.3032   1421.78528     666.3201     514.3032
   1421.77002     665.4031     512.8436   1421.77002     665.4031     512.8436
   1421.75476     666.1682     511.9864   1421.75476     666.1682     511.9864
   1421.73950     665.3056     511.6721   1421.73950     665.3056     511.6721
   1421.72424     664.7192     510.1652   1421.72424     664.7192     510.1652
   1421.70898     664.9125     509.2298   1421.70898     664.9125     509.2298
   1421.69373     664.4500     507.2979   1421.69373     664.4500     507.2979
   1421.67847     663.5263     506.4641   1421.67847     663.5263     506.4641
   1421.66321     663.2836     505.1435   1421.66321     663.2836     505.1435
   1421.64795     664.4075     504.2674   1421.64795     664.4075     504.2674
   1421.63269     663.7466     502.9380   1421.63269     663.7466     502.9380
   1421.61743     663.3345     501.6926   1421.61743     663.3345     501.6926
   1421.60217     663.9266     501.3861   1421.60217     663.9266     501.3861
   1421.58691     663.8976     500.4669   1421.58691     663.8976     500.4669
   1421.57166     663.4623     498.4731   1421.57166     663.4623     498.4731
   1421.55640     662.9071     497.4375   1421.55640     662.9071     497.4375
   1421.54114     662.7318     496.5552   1421.54114     662.7318     496.5552
   1421.52588     662.5685     494.8550   1421.52588     662.5685     494.8550
   1421.51062     661.2927     493.7438   1421.51062     661.2927     493.7438
   1421.49536     662.1955     492.8296   1421.49536     662.1955     492.8296
   1421.48010     661.4601     491.9480   1421.48010     661.4601     491.9480
   1421.46484     661.6430     490.5336   1421.46484     661.6430     490.5336
   1421.44958     661.5706     489.4524   1421.44958     661.5706     489.4524
   1421.43433     660.5541     488.1634   1421.43433     660.5541     488.1634
   1421.41907     660.9856     487.3760   1421.41907     660.9856     487.3760
   1421.40381     660.3509     485.9393   1421.40381     660.3509     485.9393
   1421.38855     660.8339     485.3233   1421.38855     660.8339     485.3233
   1421.37329     659.3381     484.6573   1421.37329     659.3381     484.6573
   1421.35803     659.5806     483.7878   1421.35803     659.5806     483.7878
   1421.34277     659.5114     482.4521   1421.34277     659.5114     482.4521
   1421.32751     658.4605     481.5565   1421.32751     658.4605     481.5565
   1421.31226     658.4725     479.6919   1421.31226     658.4725     479.6919
   1421.29700     658.9319     479.5529   1421.29700     658.9319     479.5529
   1421.28174     658.7969     478.0505   1421.28174     658.7969     478.0505
   1421.26648     658.5256     477.4979   1421.26648     658.5256     477.4979
   1421.25122     657.6404     476.5222   1421.25122     657.6404     476.5222
   1421.23596     657.5747     475.2731   1421.23596     657.5747     475.2731
   1421.22070     657.6043     474.2302   1421.22070     657.6043     474.2302
   1421.20544     657.5711     472.5883   1421.20544     657.5711     472.5883
   1421.19019     657.1150     471.8781   1421.19019     657.1150     471.8781
   1421.17493     656.7744     471.3955   1421.17493     656.7744     471.3955
   1421.15967     656.0692     470.4569   1421.15967     656.0692     470.4569
   1421.14441     655.3664     468.1898   1421.14441     655.3664     468.1898
   1421.12915     656.6116     467.6526   1421.12915     656.6116     467.6526
   1421.11389     655.3652     467.6183   1421.11389     655.3652     467.6183
   1421.09863     655.9979     466.6320   1421.09863     655.9979     466.6320
   1421.08337     655.9630     464.6364   1421.08337     655.9630     464.6364
   1421.06812     656.3024     464.2197   1421.06812     656.3024     464.2197
   1421.05286     655.8314     463.1725   1421.05286     655.8314     463.1725
   1421.03760     655.0249     462.0443   1421.03760     655.0249     462.0443
   1421.02234     654.5530     460.8774   1421.02234     654.5530     460.8774
   1421.00708     655.0811     460.1445   1421.00708     655.0811     460.1445
   1420.99182     653.3992     459.4521   1420.99182     653.3992     459.4521
   1420.97656     653.6982     458.8982   1420.97656     653.6982     458.8982
   1420.96130     653.1255     457.7854   1420.96130     653.1255     457.7854
   1420.94604     653.6625     456.8756   1420.94604     653.6625     456.8756
   1420.93079     653.0353     456.7976   1420.93079     653.0353     456.7976
   1420.91553     652.6995     454.8462   1420.91553     652.6995     454.8462
   1420.90027     652.8726     453.5701   1420.90027     652.8726     453.5701
   1420.88501     653.2074     452.9705   1420.88501     653.2074     452.9705
   1420.86975     653.0916     452.8379   1420.86975     653.0916     452.8379
   1420.85449     653.8925     451.1156   1420.85449     653.8925     451.1156
   1420.83923     652.3707     450.5717   1420.83923     652.3707     450.5717
   1420.82397     653.2460     450.0925   1420.82397     653.2460     450.0925
   1420.80872     652.7126     449.9113   1420.80872     652.7126     449.9113
   1420.79346     654.4159     448.6341   1420.79346     654.4159     448.6341
   1420.77820     652.6627     447.7337   1420.77820     652.6627     447.7337
   1420.76294     652.9793     447.7715   1420.76294     652.9793     447.7715
   1420.74768     653.3474     446.6952   1420.74768     653.3474     446.6952
   1420.73242     652.6528     445.9659   1420.73242     652.6528     445.9659
   1420.71716     652.0930     445.2258   1420.71716     652.0930     445.2258
   1420.70190     652.6842     443.9581   1420.70190     652.6842     443.9581
   1420.68665     652.6166     443.5178   1420.68665     652.6166     443.5178
   1420.67139     652.7618     442.9129   1420.67139     652.7618     442.9129
   1420.65613     652.4108     441.8067   1420.65613     652.4108     441.8067
   1420.64087     652.1354     441.8490   1420.64087     652.1354     441.8490
   1420.62561     651.1547     440.6950   1420.62561     651.1547     440.6950
   1420.61035     651.1313     439.7031   1420.61035     651.1313     439.7031
   1420.59509     653.1934     439.2525   1420.59509     653.1934     439.2525
   1420.57983     652.1275     438.9034   1420.57983     652.1275     438.9034
   1420.56458     654.1421     438.8573   1420.56458     654.1421     438.8573
   1420.54932     655.2653     440.0130   1420.54932     655.2653     440.0130
   1420.53406     656.5876     440.0011   1420.53406     656.5876     440.0011
   1420.51880     658.2148     439.2531   1420.51880     658.2148     439.2531
   1420.50354     657.0825     438.6475   1420.50354     657.0825     438.6475
   1420.48828     656.3543     437.4503   1420.48828     656.3543     437.4503
   1420.47302     655.7206     436.4662   1420.47302     655.7206     436.4662
   1420.45776     653.9009     435.2118   1420.45776     653.9009     435.2118
   1420.44250     654.4440     434.7430   1420.44250     654.4440     434.7430
   1420.42725     653.7208     434.2170   1420.42725     653.7208     434.2170
   1420.41199     653.4976     433.4152   1420.41199     653.4976     433.4152
   1420.39673     652.6586     432.8406   1420.39673     652.6586     432.8406
   1420.38147     654.3578     432.8824   1420.38147     654.3578     432.8824
   1420.36621     655.6854     432.0322   1420.36621     655.6854     432.0322
   1420.35095     655.5663     431.9294   1420.35095     655.5663     431.9294
   1420.33569     657.2900     432.8807   1420.33569     657.2900     432.8807
   1420.32043     660.5002     433.9937   1420.32043     660.5002     433.9937
   1420.30518     666.1138     437.1121   1420.30518     666.1138     437.1121
   1420.28992     676.7753     443.6905   1420.28992     676.7753     443.6905
   1420.27466     697.4523     455.6456   1420.27466     697.4523     455.6456
   1420.25940     733.8871     478.2706   1420.25940     733.8871     478.2706
   1420.24414     808.5289     524.1051   1420.24414     808.5289     524.1051
   1420.22888     928.3963     599.9341   1420.22888     928.3963     599.9341
   1420.21362    1083.3075     695.3470   1420.21362    1083.3075     695.3470
   1420.19836    1151.2405     739.6797   1420.19836    1151.2405     739.6797
   1420.18311    1215.5717     780.6537   1420.18311    1215.5717     780.6537
   1420.16785    1302.6591     831.5305   1420.16785    1302.6591     831.5305
   1420.15259    1501.6555     955.2891   1420.15259    1501.6555     955.2891
   1420.13733    1775.8231    1124.6720   1420.13733    1775.8231    1124.6720
   1420.12207    1928.3784    1221.3850   1420.12207    1928.3784    1221.3850
   1420.10681    2043.3805    1291.4569   1420.10681    2043.3805    1291.4569
   1420.09155    1901.6934    1201.7904   1420.09155    1901.6934    1201.7904
   1420.07629    1591.1566    1004.2078   1420.07629    1591.1566    1004.2078
   1420.06104    1362.2965     860.9069   1420.06104    1362.2965     860.9069
   1420.04578    1373.8613     868.5410   1420.04578    1373.8613     868.5410
   1420.03052    1426.4553     900.2302   1420.03052    1426.4553     900.2302
   1420.01526    1535.3192     966.2740   1420.01526    1535.3192     966.2740
   1420.00000    1798.5333    1132.7524   1420.00000    1798.5333    1132.7524
   1419.98474    2061.7468    1299.2311   1419.98474    2061.7468    1299.2311
   1419.96948    2027.1229    1269.8787   1419.96948    2027.1229    1269.8787
   1419.95422    1752.6039    1097.3386   1419.95422    1752.6039    1097.3386
   1419.93896    1396.6801     874.3071   1419.93896    1396.6801     874.3071
   1419.92371    1064.8719     672.0067   1419.92371    1064.8719     672.0067
   1419.90845     885.8111     559.0192   1419.90845     885.8111     559.0192
   1419.89319     795.5661     503.7632   1419.89319     795.5661     503.7632
   1419.87793     746.4183     472.9602   1419.87793     746.4183     472.9602
   1419.86267     718.8555     455.7773   1419.86267     718.8555     455.7773
   1419.84741     704.9146     446.2200   1419.84741     704.9146     446.2200
   1419.83215     694.7686     439.2686   1419.83215     694.7686     439.2686
   1419.81689     686.2747     433.7563   1419.81689     686.2747     433.7563
   1419.80164     679.8943     428.8222   1419.80164     679.8943     428.8222
   1419.78638     673.3734     425.3272   1419.78638     673.3734     425.3272
   1419.77112     667.4972     421.1943   1419.77112     667.4972     421.1943
   1419.75586     662.9338     418.3067   1419.75586     662.9338     418.3067
   1419.74060     658.0386     415.6287   1419.74060     658.0386     415.6287
   1419.72534     654.9612     412.2410   1419.72534     654.9612     412.2410
   1419.71008     652.0559     410.9327   1419.71008     652.0559     410.9327
   1419.69482     649.3706     408.8875   1419.69482     649.3706     408.8875
   1419.67957     649.7598     407.2587   1419.67957     649.7598     407.2587
   1419.66431     648.0129     406.7002   1419.66431     648.0129     406.7002
   1419.64905     648.5104     405.8330   1419.64905     648.5104     405.8330
   1419.63379     647.4452     405.9887   1419.63379     647.4452     405.9887
   1419.61853     646.7911     405.7000   1419.61853     646.7911     405.7000
   1419.60327     647.5614     405.0238   1419.60327     647.5614     405.0238
   1419.58801     647.3102     403.9780   1419.58801     647.3102     403.9780
   1419.57275     646.5925     404.4541   1419.57275     646.5925     404.4541
   1419.55750     649.4325     404.2851   1419.55750     649.4325     404.2851
   1419.54224     648.4438     403.7320   1419.54224     648.4438     403.7320
   1419.52698     648.6996     403.8096   1419.52698     648.6996     403.8096
   1419.51172     648.4525     403.7771   1419.51172     648.4525     403.7771
   1419.49646     649.1941     403.7726   1419.49646     649.1941     403.7726
   1419.48120     648.6848     403.7809   1419.48120     648.6848     403.7809
   1419.46594     649.7341     403.6420   1419.46594     649.7341     403.6420
   1419.45068     650.0909     403.0639   1419.45068     650.0909     403.0639
   1419.43542     650.2080     402.7969   1419.43542     650.2080     402.7969
   1419.42017     651.9523     403.4713   1419.42017     651.9523     403.4713
   1419.40491     651.0187     403.8632   1419.40491     651.0187     403.8632
   1419.38965     652.2324     403.5665   1419.38965     652.2324     403.5665
   1419.37439     651.6000     402.7220   1419.37439     651.6000     402.7220
   1419.35913     652.4681     402.6714   1419.35913     652.4681     402.6714
   1419.34387     652.8574     402.9793   1419.34387     652.8574     402.9793
   1419.32861     653.6459     401.9918   1419.32861     653.6459     401.9918
   1419.31335     652.7045     402.2116   1419.31335     652.7045     402.2116
   1419.29810     654.0845     402.4837   1419.29810     654.0845     402.4837
   1419.28284     654.0755     401.6427   1419.28284     654.0755     401.6427
   1419.26758     655.4074     402.3148   1419.26758     655.4074     402.3148
   1419.25232     655.6057     402.6918   1419.25232     655.6057     402.6918
   1419.23706     657.2316     401.9228   1419.23706     657.2316     401.9228
   1419.22180     656.2980     402.3825   1419.22180     656.2980     402.3825
   1419.20654     657.2860     402.3729   1419.20654     657.2860     402.3729
   1419.19128     656.5155     403.2248   1419.19128     656.5155     403.2248
   1419.17603     658.3571     402.8169   1419.17603     658.3571     402.8169
   1419.16077     658.5313     402.6254   1419.16077     658.5313     402.6254
   1419.14551     657.6046     402.5562   1419.14551     657.6046     402.5562
   1419.13025     660.2432     402.7891   1419.13025     660.2432     402.7891
   1419.11499     659.4225     402.7039   1419.11499     659.4225     402.7039
   1419.09973     660.7012     403.9645   1419.09973     660.7012     403.9645
   1419.08447     661.0959     403.2331   1419.08447     661.0959     403.2331
   1419.06921     660.7983     402.5554   1419.06921     660.7983     402.5554
   1419.05396     661.5187     404.3061   1419.05396     661.5187     404.3061
   1419.03870     663.2531     403.4870   1419.03870     663.2531     403.4870
   1419.02344     663.6715     403.9629   1419.02344     663.6715     403.9629
   1419.00818     663.8627     403.7428   1419.00818     663.8627     403.7428
   1418.99292     664.4388     404.4636   1418.99292     664.4388     404.4636
   1418.97766     665.6512     404.4158   1418.97766     665.6512     404.4158
   1418.96240     665.9628     404.8074   1418.96240     665.9628     404.8074
   1418.94714     666.2383     405.2512   1418.94714     666.2383     405.2512
   1418.93188     668.3382     404.8379   1418.93188     668.3382     404.8379
   1418.91663     669.4218     405.4030   1418.91663     669.4218     405.4030
   1418.90137     668.7693     404.8448   1418.90137     668.7693     404.8448
   1418.88611     670.5021     405.1677   1418.88611     670.5021     405.1677
   1418.87085     669.6585     405.1249   1418.87085     669.6585     405.1249
   1418.85559     671.1027     405.8741   1418.85559     671.1027     405.8741
   1418.84033     673.0978     405.6345   1418.84033     673.0978     405.6345
   1418.82507     672.4785     406.4777   1418.82507     672.4785     406.4777
   1418.80981     673.8013     406.6951   1418.80981     673.8013     406.6951
   1418.79456     674.5423     406.5970   1418.79456     674.5423     406.5970
   1418.77930     675.8071     407.5229   1418.77930     675.8071     407.5229
   1418.76404     675.4560     407.0968   1418.76404     675.4560     407.0968
   1418.74878     675.9660     407.1764   1418.74878     675.9660     407.1764
   1418.73352     676.4532     407.2977   1418.73352     676.4532     407.2977
   1418.71826     677.7706     408.1592   1418.71826     677.7706     408.1592
   1418.70300     677.3897     408.3214   1418.70300     677.3897     408.3214
   1418.68774     679.0001     408.9005   1418.68774     679.0001     408.9005
   1418.67249     679.7635     408.8463   1418.67249     679.7635     408.8463
   1418.65723     681.0641     409.1493   1418.65723     681.0641     409.1493
   1418.64197     680.3622     409.2508   1418.64197     680.3622     409.2508
   1418.62671     682.4678     409.5424   1418.62671     682.4678     409.5424
   1418.61145     682.5846     410.0534   1418.61145     682.5846     410.0534
   1418.59619     684.2784     410.9135   1418.59619     684.2784     410.9135
   1418.58093     684.2485     410.5576   1418.58093     684.2485     410.5576
   1418.56567     685.5232     410.9412   1418.56567     685.5232     410.9412
   1418.55042     686.7617     411.6642   1418.55042     686.7617     411.6642
   1418.53516     686.9861     412.1614   1418.53516     686.9861     412.1614
   1418.51990     688.1656     412.5014   1418.51990     688.1656     412.5014
   1418.50464     690.5021     413.0586   1418.50464     690.5021     413.0586
   1418.48938     689.7706     413.9128   1418.48938     689.7706     413.9128
   1418.47412     690.6512     413.4629   1418.47412     690.6512     413.4629
   1418.45886     692.8981     413.8915   1418.45886     692.8981     413.8915
   1418.44360     693.8369     414.4756   1418.44360     693.8369     414.4756
   1418.42834     694.1113     415.2923   1418.42834     694.1113     415.2923
   1418.41309     694.6475     415.0028   1418.41309     694.6475     415.0028
   1418.39783     695.8626     415.1045   1418.39783     695.8626     415.1045
   1418.38257     696.5339     416.4461   1418.38257     696.5339     416.4461
   1418.36731     697.2961     416.5595   1418.36731     697.2961     416.5595
   1418.35205     699.3783     417.4992   1418.35205     699.3783     417.4992
   1418.33679     700.1017     417.7090   1418.33679     700.1017     417.7090
   1418.32153     700.2927     417.8786   1418.32153     700.2927     417.8786
   1418.30627     701.5018     418.4270   1418.30627     701.5018     418.4270
   1418.29102     701.8439     418.9494   1418.29102     701.8439     418.9494
   1418.27576     702.9722     419.4260   1418.27576     702.9722     419.4260
   1418.26050     706.1667     419.5823   1418.26050     706.1667     419.5823
   1418.24524     706.0416     420.2626   1418.24524     706.0416     420.2626
   1418.22998     706.8522     420.8593   1418.22998     706.8522     420.8593
   1418.21472     708.9383     421.1322   1418.21472     708.9383     421.1322
   1418.19946     707.9422     422.0633   1418.19946     707.9422     422.0633
   1418.18420     711.3334     422.0620   1418.18420     711.3334     422.0620
   1418.16895     710.0059     422.7034   1418.16895     710.0059     422.7034
   1418.15369     711.8968     423.0758   1418.15369     711.8968     423.0758
   1418.13843     712.9820     423.3166   1418.13843     712.9820     423.3166
   1418.12317     713.3143     425.2560   1418.12317     713.3143     425.2560
   1418.10791     713.9656     425.0077   1418.10791     713.9656     425.0077
   1418.09265     717.1482     425.4135   1418.09265     717.1482     425.4135
   1418.07739     717.4509     426.2302   1418.07739     717.4509     426.2302
   1418.06213     717.8424     426.8181   1418.06213     717.8424     426.8181
   1418.04688     719.8310     427.8221   1418.04688     719.8310     427.8221
   1418.03162     720.5515     426.9475   1418.03162     720.5515     426.9475
   1418.01636     721.6708     428.2268   1418.01636     721.6708     428.2268
   1418.00110     723.5667     428.7354   1418.00110     723.5667     428.7354
   1417.98584     723.9462     428.9774   1417.98584     723.9462     428.9774
   1417.97058     725.2183     430.0683   1417.97058     725.2183     430.0683
   1417.95532     725.0408     430.0876   1417.95532     725.0408     430.0876
   1417.94006     727.6592     431.0834   1417.94006     727.6592     431.0834
   1417.92480     728.7246     431.7856   1417.92480     728.7246     431.7856
   1417.90955     729.0198     431.9650   1417.90955     729.0198     431.9650
   1417.89429     730.1252     432.9653   1417.89429     730.1252     432.9653
   1417.87903     730.5358     433.2447   1417.87903     730.5358     433.2447
   1417.86377     732.5370     433.6677   1417.86377     732.5370     433.6677
   1417.84851     733.1406     434.2033   1417.84851     733.1406     434.2033
   1417.83325     735.6199     434.9854   1417.83325     735.6199     434.9854
   1417.81799     735.2565     435.6506   1417.81799     735.2565     435.6506
   1417.80273     736.3613     436.0782   1417.80273     736.3613     436.0782
   1417.78748     739.0616     436.4326   1417.78748     739.0616     436.4326
   1417.77222     739.0551     437.3528   1417.77222     739.0551     437.3528
   1417.75696     740.7576     438.1819   1417.75696     740.7576     438.1819
   1417.74170     740.9198     438.9954   1417.74170     740.9198     438.9954
   1417.72644     742.5416     439.1088   1417.72644     742.5416     439.1088
   1417.71118     743.6693     439.9345   1417.71118     743.6693     439.9345
   1417.69592     744.4850     439.9298   1417.69592     744.4850     439.9298
   1417.68066     745.2346     441.2191   1417.68066     745.2346     441.2191
   1417.66541     745.9041     441.1024   1417.66541     745.9041     441.1024
   1417.65015     748.0300     441.5806   1417.65015     748.0300     441.5806
   1417.63489     749.3589     442.8492   1417.63489     749.3589     442.8492
   1417.61963     749.1606     443.2449   1417.61963     749.1606     443.2449
   1417.60437     751.1163     443.5464   1417.60437     751.1163     443.5464
   1417.58911     751.8302     444.3365   1417.58911     751.8302     444.3365
   1417.57385     752.2059     445.7888   1417.57385     752.2059     445.7888
   1417.55859     754.6965     446.3422   1417.55859     754.6965     446.3422
   1417.54333     754.0242     446.4424   1417.54333     754.0242     446.4424
   1417.52808     756.9052     448.0610   1417.52808     756.9052     448.0610
   1417.51282     756.4896     447.4117   1417.51282     756.4896     447.4117
   1417.49756     758.8397     448.4277   1417.49756     758.8397     448.4277
   1417.48230     759.2219     448.8049   1417.48230     759.2219     448.8049
   1417.46704     760.8690     450.2585   1417.46704     760.8690     450.2585
   1417.45178     761.9808     449.4309   1417.45178     761.9808     449.4309
   1417.43652     762.3440     450.2093   1417.43652     762.3440     450.2093
   1417.42126     763.5618     451.3321   1417.42126     763.5618     451.3321
   1417.40601     763.2196     451.9318   1417.40601     763.2196     451.9318
   1417.39075     764.7209     452.7736   1417.39075     764.7209     452.7736
   1417.37549     765.9138     453.0797   1417.37549     765.9138     453.0797
   1417.36023     766.6001     453.7392   1417.36023     766.6001     453.7392
   1417.34497     767.6086     453.8562   1417.34497     767.6086     453.8562
   1417.32971     769.2281     454.4971   1417.32971     769.2281     454.4971
   1417.31445     769.4924     455.3433   1417.31445     769.4924     455.3433
   1417.29919     770.4800     456.3338   1417.29919     770.4800     456.3338
   1417.28394     772.0720     456.5476   1417.28394     772.0720     456.5476
   1417.26868     773.0038     456.9214   1417.26868     773.0038     456.9214
   1417.25342     773.7175     457.1931   1417.25342     773.7175     457.1931
   1417.23816     773.5634     458.3719   1417.23816     773.5634     458.3719
   1417.22290     776.1292     459.0896   1417.22290     776.1292     459.0896
   1417.20764     776.2505     458.7197   1417.20764     776.2505     458.7197
   1417.19238     777.4045     459.6880   1417.19238     777.4045     459.6880
   1417.17712     777.5137     459.6176   1417.17712     777.5137     459.6176
   1417.16187     778.5785     460.6334   1417.16187     778.5785     460.6334
   1417.14661     778.0038     461.6467   1417.14661     778.0038     461.6467
   1417.13135     779.3129     461.7112   1417.13135     779.3129     461.7112
   1417.11609     781.6670     462.1666   1417.11609     781.6670     462.1666
   1417.10083     781.6598     462.9286   1417.10083     781.6598     462.9286
   1417.08557     782.5775     463.9364   1417.08557     782.5775     463.9364
   1417.07031     783.5876     463.2987   1417.07031     783.5876     463.2987
   1417.05505     782.9581     464.5532   1417.05505     782.9581     464.5532
   1417.03979     784.6397     465.4171   1417.03979     784.6397     465.4171
   1417.02454     785.4438     465.3806   1417.02454     785.4438     465.3806
   1417.00928     785.2422     465.8053   1417.00928     785.2422     465.8053
   1416.99402     785.9749     466.6548   1416.99402     785.9749     466.6548
   1416.97876     786.8568     466.8172   1416.97876     786.8568     466.8172
   1416.96350     786.6316     467.1197   1416.96350     786.6316     467.1197
   1416.94824     788.6591     467.9514   1416.94824     788.6591     467.9514
   1416.93298     789.2540     467.6399   1416.93298     789.2540     467.6399
   1416.91772     790.3480     468.5623   1416.91772     790.3480     468.5623
   1416.90247     791.1990     469.1566   1416.90247     791.1990     469.1566
   1416.88721     791.2960     469.3614   1416.88721     791.2960     469.3614
   1416.87195     791.2164     469.5121   1416.87195     791.2164     469.5121
   1416.85669     791.4072     470.3327   1416.85669     791.4072     470.3327
   1416.84143     793.1168     470.4379   1416.84143     793.1168     470.4379
   1416.82617     792.9504     470.9787   1416.82617     792.9504     470.9787
   1416.81091     794.7507     471.0594   1416.81091     794.7507     471.0594
   1416.79565     794.1151     471.8859   1416.79565     794.1151     471.8859
   1416.78040     792.8810     471.9130   1416.78040     792.8810     471.9130
   1416.76514     795.9046     472.0634   1416.76514     795.9046     472.0634
   1416.74988     794.3704     472.9415   1416.74988     794.3704     472.9415
   1416.73462     795.6782     472.8217   1416.73462     795.6782     472.8217
   1416.71936     796.2760     472.9576   1416.71936     796.2760     472.9576
   1416.70410     796.7730     474.5712   1416.70410     796.7730     474.5712
   1416.68884     797.1215     473.6216   1416.68884     797.1215     473.6216
   1416.67358     796.7340     474.4024   1416.67358     796.7340     474.4024
   1416.65833     795.5849     473.9785   1416.65833     795.5849     473.9785
   1416.64307     797.6799     474.5731   1416.64307     797.6799     474.5731
   1416.62781     798.2037     474.6074   1416.62781     798.2037     474.6074
   1416.61255     797.6256     475.3842   1416.61255     797.6256     475.3842
   1416.59729     798.5021     475.3214   1416.59729     798.5021     475.3214
   1416.58203     796.3062     475.1945   1416.58203     796.3062     475.1945
   1416.56677     799.2339     475.8598   1416.56677     799.2339     475.8598
   1416.55151     798.7831     475.5637   1416.55151     798.7831     475.5637
   1416.53625     799.6575     475.3584   1416.53625     799.6575     475.3584
   1416.52100     799.7226     475.6102   1416.52100     799.7226     475.6102
   1416.50574     799.4250     475.8617   1416.50574     799.4250     475.8617
   1416.49048     799.7855     476.1594   1416.49048     799.7855     476.1594
   1416.47522     800.6799     475.9181   1416.47522     800.6799     475.9181
   1416.45996     798.9601     475.6429   1416.45996     798.9601     475.6429
   1416.44470     799.5884     476.5324   1416.44470     799.5884     476.5324
   1416.42944     799.0184     477.1102   1416.42944     799.0184     477.1102
   1416.41418     799.0873     476.2979   1416.41418     799.0873     476.2979
   1416.39893     799.4316     476.4849   1416.39893     799.4316     476.4849
   1416.38367     799.6248     477.1560   1416.38367     799.6248     477.1560
   1416.36841     799.0847     476.8627   1416.36841     799.0847     476.8627
   1416.35315     798.2245     477.3754   1416.35315     798.2245     477.3754
   1416.33789     799.3401     477.0995   1416.33789     799.3401     477.0995
   1416.32263     797.9787     476.9095   1416.32263     797.9787     476.9095
   1416.30737     798.0959     477.3804   1416.30737     798.0959     477.3804
   1416.29211     798.9189     476.6893   1416.29211     798.9189     476.6893
   1416.27686     798.4254     476.6976   1416.27686     798.4254     476.6976
   1416.26160     797.7777     477.0826   1416.26160     797.7777     477.0826
   1416.24634     798.6300     476.7606   1416.24634     798.6300     476.7606
   1416.23108     798.5873     477.6548   1416.23108     798.5873     477.6548
   1416.21582     797.6117     477.0463   1416.21582     797.6117     477.0463
   1416.20056     797.2390     476.8852   1416.20056     797.2390     476.8852
   1416.18530     797.5910     476.5165   1416.18530     797.5910     476.5165
   1416.17004     797.9195     477.3784   1416.17004     797.9195     477.3784
   1416.15479     796.1172     476.4448   1416.15479     796.1172     476.4448
   1416.13953     794.5712     476.2170   1416.13953     794.5712     476.2170
   1416.12427     797.0298     475.9748   1416.12427     797.0298     475.9748
   1416.10901     796.5543     476.8159   1416.10901     796.5543     476.8159
   1416.09375     795.1423     477.0341   1416.09375     795.1423     477.0341
   1416.07849     794.8030     476.3467   1416.07849     794.8030     476.3467
   1416.06323     794.6595     475.9781   1416.06323     794.6595     475.9781
   1416.04797     793.2494     476.3679   1416.04797     793.2494     476.3679
   1416.03271     793.2580     475.6551   1416.03271     793.2580     475.6551
   1416.01746     793.1024     476.2546   1416.01746     793.1024     476.2546
   1416.00220     792.2589     475.7507   1416.00220     792.2589     475.7507
   1415.98694     792.2266     475.4799   1415.98694     792.2266     475.4799
   1415.97168     791.2419     475.9122   1415.97168     791.2419     475.9122
   1415.95642     791.4877     475.6197   1415.95642     791.4877     475.6197
   1415.94116     790.9810     475.3705   1415.94116     790.9810     475.3705
   1415.92590     790.3952     475.5885   1415.92590     790.3952     475.5885
   1415.91064     789.7810     474.8286   1415.91064     789.7810     474.8286
   1415.89539     788.6501     475.2543   1415.89539     788.6501     475.2543
   1415.88013     788.2180     474.4348   1415.88013     788.2180     474.4348
   1415.86487     787.8635     474.2710   1415.86487     787.8635     474.2710
   1415.84961     786.8922     475.0211   1415.84961     786.8922     475.0211
   1415.83435     786.5753     474.1489   1415.83435     786.5753     474.1489
   1415.81909     784.7380     474.1942   1415.81909     784.7380     474.1942
   1415.80383     783.8030     473.7011   1415.80383     783.8030     473.7011
   1415.78857     784.6784     472.7652   1415.78857     784.6784     472.7652
   1415.77332     783.7039     473.7356   1415.77332     783.7039     473.7356
   1415.75806     781.6833     473.0173   1415.75806     781.6833     473.0173
   1415.74280     780.9167     473.0583   1415.74280     780.9167     473.0583
   1415.72754     780.2842     472.2960   1415.72754     780.2842     472.2960
   1415.71228     779.5579     473.1788   1415.71228     779.5579     473.1788
   1415.69702     779.7144     472.0931   1415.69702     779.7144     472.0931
   1415.68176     778.8024     471.5132   1415.68176     778.8024     471.5132
   1415.66650     777.2329     471.9693   1415.66650     777.2329     471.9693
   1415.65125     776.0293     471.9147   1415.65125     776.0293     471.9147
   1415.63599     775.5306     472.3309   1415.63599     775.5306     472.3309
   1415.62073     774.3354     471.4412   1415.62073     774.3354     471.4412
   1415.60547     774.0840     471.5275   1415.60547     774.0840     471.5275
   1415.59021     774.1077     470.5312   1415.59021     774.1077     470.5312
   1415.57495     773.3691     470.8499   1415.57495     773.3691     470.8499
   1415.55969     770.3431     470.1245   1415.55969     770.3431     470.1245
   1415.54443     770.7498     470.7553   1415.54443     770.7498     470.7553
   1415.52917     770.7040     469.9167   1415.52917     770.7040     469.9167
   1415.51392     768.8654     469.6483   1415.51392     768.8654     469.6483
   1415.49866     766.5630     468.9218   1415.49866     766.5630     468.9218
   1415.48340     766.3738     469.2325   1415.48340     766.3738     469.2325
   1415.46814     765.5616     468.5336   1415.46814     765.5616     468.5336
   1415.45288     765.4669     468.4393   1415.45288     765.4669     468.4393
   1415.43762     763.6522     467.8971   1415.43762     763.6522     467.8971
   1415.42236     762.5428     468.7321   1415.42236     762.5428     468.7321
   1415.40710     761.3296     467.2561   1415.40710     761.3296     467.2561
   1415.39185     760.1254     466.9224   1415.39185     760.1254     466.9224
   1415.37659     757.5807     466.6326   1415.37659     757.5807     466.6326
   1415.36133     758.4526     467.5288   1415.36133     758.4526     467.5288
   1415.34607     755.9177     466.2793   1415.34607     755.9177     466.2793
   1415.33081     754.5864     466.4038   1415.33081     754.5864     466.4038
   1415.31555     753.4482     465.6818   1415.31555     753.4482     465.6818
   1415.30029     752.0397     464.5591   1415.30029     752.0397     464.5591
   1415.28503     750.7409     464.2688   1415.28503     750.7409     464.2688
   1415.26978     749.4227     463.9874   1415.26978     749.4227     463.9874
   1415.25452     749.4189     463.2327   1415.25452     749.4189     463.2327
   1415.23926     747.6991     462.9347   1415.23926     747.6991     462.9347
   1415.22400     745.7637     463.0309   1415.22400     745.7637     463.0309
   1415.20874     742.9125     462.7018   1415.20874     742.9125     462.7018
   1415.19348     742.3440     462.8631   1415.19348     742.3440     462.8631
   1415.17822     742.8881     462.1071   1415.17822     742.8881     462.1071
   1415.16296     739.8936     461.4802   1415.16296     739.8936     461.4802
   1415.14771     737.6075     461.1137   1415.14771     737.6075     461.1137
   1415.13245     738.3191     460.7565   1415.13245     738.3191     460.7565
   1415.11719     735.9756     459.7732   1415.11719     735.9756     459.7732
   1415.10193     734.4548     458.9399   1415.10193     734.4548     458.9399
   1415.08667     733.6428     459.4177   1415.08667     733.6428     459.4177
   1415.07141     731.2557     458.5441   1415.07141     731.2557     458.5441
   1415.05615     729.4949     457.7479   1415.05615     729.4949     457.7479
   1415.04089     728.0933     457.4508   1415.04089     728.0933     457.4508
   1415.02563     727.1214     456.1520   1415.02563     727.1214     456.1520
   1415.01038     724.3396     455.8275   1415.01038     724.3396     455.8275
   1414.99512     722.3557     455.2528   1414.99512     722.3557     455.2528
   1414.97986     721.2878     454.9640   1414.97986     721.2878     454.9640
   1414.96460     719.7228     454.0379   1414.96460     719.7228     454.0379
   1414.94934     718.2479     453.5883   1414.94934     718.2479     453.5883
   1414.93408     716.4760     452.7725   1414.93408     716.4760     452.7725
   1414.91882     715.2271     451.8241   1414.91882     715.2271     451.8241
   1414.90356     712.8359     451.3482   1414.90356     712.8359     451.3482
   1414.88831     711.0446     450.9247   1414.88831     711.0446     450.9247
   1414.87305     708.1696     450.2908   1414.87305     708.1696     450.2908
   1414.85779     707.1821     449.4086   1414.85779     707.1821     449.4086
   1414.84253     704.5109     449.0412   1414.84253     704.5109     449.0412
   1414.82727     703.2803     448.2296   1414.82727     703.2803     448.2296
   1414.81201     700.7480     447.3086   1414.81201     700.7480     447.3086
   1414.79675     699.7267     446.0943   1414.79675     699.7267     446.0943
   1414.78149     697.4838     445.6627   1414.78149     697.4838     445.6627
   1414.76624     694.4214     444.9806   1414.76624     694.4214     444.9806
   1414.75098     693.2945     444.4940   1414.75098     693.2945     444.4940
   1414.73572     691.2391     443.0755   1414.73572     691.2391     443.0755
   1414.72046     690.2700     442.8386   1414.72046     690.2700     442.8386
   1414.70520     686.8856     441.9307   1414.70520     686.8856     441.9307
   1414.68994     683.9345     440.2759   1414.68994     683.9345     440.2759
   1414.67468     684.0909     439.4609   1414.67468     684.0909     439.4609
   1414.65942     681.0735     439.0699   1414.65942     681.0735     439.0699
   1414.64417     678.9882     438.3079   1414.64417     678.9882     438.3079
   1414.62891     676.5973     436.7371   1414.62891     676.5973     436.7371
   1414.61365     675.0546     436.7060   1414.61365     675.0546     436.7060
   1414.59839     672.6463     435.2910   1414.59839     672.6463     435.2910
   1414.58313     671.6254     434.5131   1414.58313     671.6254     434.5131
   1414.56787     667.5823     434.0256   1414.56787     667.5823     434.0256
   1414.55261     665.5079     432.5984   1414.55261     665.5079     432.5984
   1414.53735     663.6664     431.7756   1414.53735     663.6664     431.7756
   1414.52209     660.5505     430.3492   1414.52209     660.5505     430.3492
   1414.50684     658.5671     429.0151   1414.50684     658.5671     429.0151
   1414.49158     656.5607     428.3723   1414.49158     656.5607     428.3723
   1414.47632     653.7576     427.3431   1414.47632     653.7576     427.3431
   1414.46106     650.5724     425.7854   1414.46106     650.5724     425.7854
   1414.44580     648.3625     425.3026   1414.44580     648.3625     425.3026
   1414.43054     646.2146     424.2087   1414.43054     646.2146     424.2087
   1414.41528     643.5936     422.7079   1414.41528     643.5936     422.7079
   1414.40002     640.9974     422.0606   1414.40002     640.9974     422.0606
   1414.38477     639.0256     420.5868   1414.38477     639.0256     420.5868
   1414.36951     636.2371     418.9781   1414.36951     636.2371     418.9781
   1414.35425     634.3738     418.0746   1414.35425     634.3738     418.0746
   1414.33899     630.2849     416.9197   1414.33899     630.2849     416.9197
   1414.32373     628.8745     414.9661   1414.32373     628.8745     414.9661
   1414.30847     626.6495     414.9836   1414.30847     626.6495     414.9836
   1414.29321     623.5726     413.5309   1414.29321     623.5726     413.5309
   1414.27795     620.7191     412.8056   1414.27795     620.7191     412.8056
   1414.26270     617.5276     410.7512   1414.26270     617.5276     410.7512
   1414.24744     615.0914     409.5140   1414.24744     615.0914     409.5140
   1414.23218     612.4792     409.0146   1414.23218     612.4792     409.0146
   1414.21692     609.7361     407.0472   1414.21692     609.7361     407.0472
   1414.20166     607.1005     405.6288   1414.20166     607.1005     405.6288
   1414.18640     604.2241     404.4297   1414.18640     604.2241     404.4297
   1414.17114     601.9085     403.0886   1414.17114     601.9085     403.0886
   1414.15588     599.7813     401.5660   1414.15588     599.7813     401.5660
   1414.14062     596.4807     401.0371   1414.14062     596.4807     401.0371
   1414.12537     593.7414     399.1310   1414.12537     593.7414     399.1310
   1414.11011     590.6379     397.4226   1414.11011     590.6379     397.4226
   1414.09485     587.0694     396.2613   1414.09485     587.0694     396.2613
   1414.07959     585.1652     395.3361   1414.07959     585.1652     395.3361
   1414.06433     581.2224     393.4016   1414.06433     581.2224     393.4016
   1414.04907     580.0054     391.6840   1414.04907     580.0054     391.6840
   1414.03381     576.1281     391.0666   1414.03381     576.1281     391.0666
   1414.01855     573.8847     389.6635   1414.01855     573.8847     389.6635
   1414.00330     596.2979     395.0865   1414.00330     596.2979     395.0865
   1413.98804     570.2958     387.1366   1413.98804     570.2958     387.1366
   1413.97278     564.8004     385.1357   1413.97278     564.8004     385.1357
   1413.95752     562.8423     383.4672   1413.95752     562.8423     383.4672
   1413.94226     559.9383     381.7716   1413.94226     559.9383     381.7716
   1413.92700     556.9710     380.4045   1413.92700     556.9710     380.4045
   1413.91174     553.8097     379.1650   1413.91174     553.8097     379.1650
   1413.89648     549.6306     377.1291   1413.89648     549.6306     377.1291
   1413.88123     547.8293     375.9322   1413.88123     547.8293     375.9322
   1413.86597     543.9886     374.4980   1413.86597     543.9886     374.4980
   1413.85071     541.0577     373.0477   1413.85071     541.0577     373.0477
   1413.83545     538.2350     370.8622   1413.83545     538.2350     370.8622
   1413.82019     535.2124     369.7894   1413.82019     535.2124     369.7894
   1413.80493     532.3096     368.4299   1413.80493     532.3096     368.4299
   1413.78967     529.7642     366.1418   1413.78967     529.7642     366.1418
   1413.77441     526.8313     365.4008   1413.77441     526.8313     365.4008
   1413.75916     523.7545     363.3481   1413.75916     523.7545     363.3481
   1413.74390     520.9677     362.0013   1413.74390     520.9677     362.0013
   1413.72864     518.4704     360.2169   1413.72864     518.4704     360.2169
   1413.71338     514.9644     358.6457   1413.71338     514.9644     358.6457
   1413.69812     512.2552     357.4256   1413.69812     512.2552     357.4256
   1413.68286     508.8737     355.3246   1413.68286     508.8737     355.3246
   1413.66760     506.4396     353.3361   1413.66760     506.4396     353.3361
   1413.65234     502.9151     352.1615   1413.65234     502.9151     352.1615
   1413.63708     499.8215     350.4977   1413.63708     499.8215     350.4977
   1413.62183     496.9684     349.1849   1413.62183     496.9684     349.1849
   1413.60657     493.7021     347.4610   1413.60657     493.7021     347.4610
   1413.59131     491.1229     346.0450   1413.59131     491.1229     346.0450
   1413.57605     489.1320     344.4281   1413.57605     489.1320     344.4281
   1413.56079     485.9208     342.4113   1413.56079     485.9208     342.4113
   1413.54553     482.4793     341.4576   1413.54553     482.4793     341.4576
   1413.53027     480.1399     339.1404   1413.53027     480.1399     339.1404
   1413.51501     477.6399     337.5977   1413.51501     477.6399     337.5977
   1413.49976     474.0444     336.2263   1413.49976     474.0444     336.2263
   1413.48450     470.9329     334.3287   1413.48450     470.9329     334.3287
   1413.46924     468.6616     333.1284   1413.46924     468.6616     333.1284
   1413.45398     465.7151     331.4582   1413.45398     465.7151     331.4582
   1413.43872     463.5590     330.0268   1413.43872     463.5590     330.0268
   1413.42346     460.3844     327.9513   1413.42346     460.3844     327.9513
   1413.40820     457.6217     326.5358   1413.40820     457.6217     326.5358
   1413.39294     454.4493     325.0680   1413.39294     454.4493     325.0680
   1413.37769     452.4725     323.6556   1413.37769     452.4725     323.6556
   1413.36243     449.2940     321.4466   1413.36243     449.2940     321.4466
   1413.34717     447.2797     320.3184   1413.34717     447.2797     320.3184
   1413.33191     443.9544     318.0180   1413.33191     443.9544     318.0180
   1413.31665     440.8453     317.5650   1413.31665     440.8453     317.5650
   1413.30139     438.9043     315.7331   1413.30139     438.9043     315.7331
   1413.28613     436.2395     314.7061   1413.28613     436.2395     314.7061
   1413.27087     433.9592     312.6199   1413.27087     433.9592     312.6199
   1413.25562     431.0246     311.5609   1413.25562     431.0246     311.5609
   1413.24036     428.7765     310.0270   1413.24036     428.7765     310.0270
   1413.22510     426.1170     307.9336   1413.22510     426.1170     307.9336
   1413.20984     423.8906     306.2465   1413.20984     423.8906     306.2465
   1413.19458     421.3596     305.4499   1413.19458     421.3596     305.4499
   1413.17932     418.8941     303.3458   1413.17932     418.8941     303.3458
   1413.16406     417.1568     302.3828   1413.16406     417.1568     302.3828
   1413.14880     413.6551     301.2891   1413.14880     413.6551     301.2891
   1413.13354     411.9944     299.6217   1413.13354     411.9944     299.6217
   1413.11829     409.4040     298.4424   1413.11829     409.4040     298.4424
   1413.10303     407.1729     296.6143   1413.10303     407.1729     296.6143
   1413.08777     405.2789     294.9731   1413.08777     405.2789     294.9731
   1413.07251     402.0211     293.8521   1413.07251     402.0211     293.8521
   1413.05725     400.3201     292.7956   1413.05725     400.3201     292.7956
   1413.04199     398.3928     291.6376   1413.04199     398.3928     291.6376
   1413.02673     396.6979     290.1153   1413.02673     396.6979     290.1153
   1413.01147     393.7547     288.9120   1413.01147     393.7547     288.9120
   1412.99622     392.1919     287.8428   1412.99622     392.1919     287.8428
   1412.98096     390.5222     286.9080   1412.98096     390.5222     286.9080
   1412.96570     388.2737     285.0567   1412.96570     388.2737     285.0567
   1412.95044     386.5437     284.1433   1412.95044     386.5437     284.1433
   1412.93518     384.6175     283.3174   1412.93518     384.6175     283.3174
   1412.91992     382.9537     281.5955   1412.91992     382.9537     281.5955
   1412.90466     380.8913     280.3449   1412.90466     380.8913     280.3449
   1412.88940     378.6360     279.6287   1412.88940     378.6360     279.6287
   1412.87415     378.1356     278.3120   1412.87415     378.1356     278.3120
   1412.85889     376.8352     277.5543   1412.85889     376.8352     277.5543
   1412.84363     374.3992     276.8822   1412.84363     374.3992     276.8822
   1412.82837     373.4117     275.5641   1412.82837     373.4117     275.5641
   1412.81311     371.8321     274.2778   1412.81311     371.8321     274.2778
   1412.79785     370.5863     273.5597   1412.79785     370.5863     273.5597
   1412.78259     368.3714     272.5073   1412.78259     368.3714     272.5073
   1412.76733     367.3047     271.7171   1412.76733     367.3047     271.7171
   1412.75208     366.4724     270.6424   1412.75208     366.4724     270.6424
   1412.73682     364.9720     270.3405   1412.73682     364.9720     270.3405
   1412.72156     363.2246     269.3991   1412.72156     363.2246     269.3991
   1412.70630     362.4486     268.0172   1412.70630     362.4486     268.0172
   1412.69104     361.0724     267.5841   1412.69104     361.0724     267.5841
   1412.67578     360.7512     267.1394   1412.67578     360.7512     267.1394
   1412.66052     359.4734     266.1202   1412.66052     359.4734     266.1202
   1412.64526     358.4137     265.6147   1412.64526     358.4137     265.6147
   1412.63000     357.5882     264.9252   1412.63000     357.5882     264.9252
   1412.61475     356.3589     264.3743   1412.61475     356.3589     264.3743
   1412.59949     355.3156     263.9807   1412.59949     355.3156     263.9807
   1412.58423     355.5172     263.1687   1412.58423     355.5172     263.1687
   1412.56897     354.8486     263.0413   1412.56897     354.8486     263.0413
   1412.55371     353.6304     262.7404   1412.55371     353.6304     262.7404
   1412.53845     353.0875     261.8581   1412.53845     353.0875     261.8581
   1412.52319     352.3805     261.7100   1412.52319     352.3805     261.7100
   1412.50793     352.1173     261.3748   1412.50793     352.1173     261.3748
   1412.49268     351.8203     260.6566   1412.49268     351.8203     260.6566
   1412.47742     350.9565     260.3853   1412.47742     350.9565     260.3853
   1412.46216     351.0789     260.2667   1412.46216     351.0789     260.2667
   1412.44690     350.7638     259.6732   1412.44690     350.7638     259.6732
   1412.43164     350.4274     260.1094   1412.43164     350.4274     260.1094
   1412.41638     349.8762     260.0029   1412.41638     349.8762     260.0029
   1412.40112     350.1836     259.6945   1412.40112     350.1836     259.6945
   1412.38586     349.7682     259.4402   1412.38586     349.7682     259.4402
   1412.37061     349.2571     259.4301   1412.37061     349.2571     259.4301
   1412.35535     350.1206     259.5607   1412.35535     350.1206     259.5607
   1412.34009     349.9414     259.5731   1412.34009     349.9414     259.5731
   1412.32483     350.2261     259.4984   1412.32483     350.2261     259.4984
   1412.30957     350.8545     259.7357   1412.30957     350.8545     259.7357
   1412.29431     350.6281     259.9992   1412.29431     350.6281     259.9992
   1412.27905     350.2346     260.1937   1412.27905     350.2346     260.1937
   1412.26379     350.9083     259.9629   1412.26379     350.9083     259.9629
   1412.24854     351.4772     260.2662   1412.24854     351.4772     260.2662
   1412.23328     351.8427     260.9453   1412.23328     351.8427     260.9453
   1412.21802     352.7326     260.9136   1412.21802     352.7326     260.9136
   1412.20276     352.6289     261.2708   1412.20276     352.6289     261.2708