#     FILENAME=!Skynet_57528_lach-cc-212_20620_21047.cyb.fits
#     BASENAME=Skynet_57528_lach-cc-212_20620_21047
#     SRC_NAME=lach-cc-212
#     OBSERVER=ccmadison16_9505
#     DATE_OBS=2016-05-20T20:10:51.680
#        OBSID=20620
#      SCANNUM=21047
#          MJD=57528.8419
#          UTC=72740
#     SCANTYPE=track
#     DATAMODE=HIRES
#     TUNEFREQ=1420.0000
# Actual_FREQ1=1420.0000
# Actual_FREQ2=1420.0000
#    LO1Tuning=6870.000
#     RFFILTER=1355_1435
#        OBSBW=-15.6250
#        NCHAN=1024 
#        FOCUS=37.1368
#           RA=06:49:42.32
#          DEC=00:49:43.29
#      RA(hrs)=6.828400
#     DEC(deg)=0.828700
#    AZIM(deg)=178.089
#    ELEV(deg)=52.223
#     IFattens=10.00, 9.00
#      WARNING=None
#    TCAL_XL1=7.9635
#    TCAL_YR1=9.1340
#    TCAL_XL2=7.9635
#    TCAL_YR2=9.1340
#     TRX_XL1=11.7060
#     TRX_YR1=11.7060
#     TRX_XL2=11.7060
#     TRX_YR2=11.7060
#        TAVE=1.0000
#Freq1(MHz)          XL1          YR1  Freq2(MHz)          XL2          YR2 

   1427.81250     355.7803     261.3602   1427.81250     355.7803     261.3602
   1427.79724     356.2132     262.5243   1427.79724     356.2132     262.5243
   1427.78198     356.7383     262.2570   1427.78198     356.7383     262.2570
   1427.76672     357.7561     263.4297   1427.76672     357.7561     263.4297
   1427.75146     358.5898     263.9897   1427.75146     358.5898     263.9897
   1427.73621     359.4447     264.9655   1427.73621     359.4447     264.9655
   1427.72095     360.3761     265.7295   1427.72095     360.3761     265.7295
   1427.70569     361.3291     266.6122   1427.70569     361.3291     266.6122
   1427.69043     361.8142     267.3658   1427.69043     361.8142     267.3658
   1427.67517     363.0308     268.4977   1427.67517     363.0308     268.4977
   1427.65991     364.6825     269.1415   1427.65991     364.6825     269.1415
   1427.64465     365.8967     269.7881   1427.64465     365.8967     269.7881
   1427.62939     366.8296     271.3275   1427.62939     366.8296     271.3275
   1427.61414     367.8107     271.9127   1427.61414     367.8107     271.9127
   1427.59888     369.1189     273.2657   1427.59888     369.1189     273.2657
   1427.58362     370.5049     274.6064   1427.58362     370.5049     274.6064
   1427.56836     371.6208     275.8621   1427.56836     371.6208     275.8621
   1427.55310     373.7134     276.9352   1427.55310     373.7134     276.9352
   1427.53784     374.2003     277.8555   1427.53784     374.2003     277.8555
   1427.52258     375.8249     279.5786   1427.52258     375.8249     279.5786
   1427.50732     377.7599     280.5865   1427.50732     377.7599     280.5865
   1427.49207     378.4860     282.0481   1427.49207     378.4860     282.0481
   1427.47681     380.7438     283.1052   1427.47681     380.7438     283.1052
   1427.46155     382.0280     285.1148   1427.46155     382.0280     285.1148
   1427.44629     384.2959     286.7020   1427.44629     384.2959     286.7020
   1427.43103     386.3085     287.7324   1427.43103     386.3085     287.7324
   1427.41577     387.9557     289.3890   1427.41577     387.9557     289.3890
   1427.40051     389.8478     290.8921   1427.40051     389.8478     290.8921
   1427.38525     392.0745     292.4923   1427.38525     392.0745     292.4923
   1427.37000     394.0235     294.5681   1427.37000     394.0235     294.5681
   1427.35474     394.7879     295.8293   1427.35474     394.7879     295.8293
   1427.33948     396.8449     297.2212   1427.33948     396.8449     297.2212
   1427.32422     399.6536     299.3926   1427.32422     399.6536     299.3926
   1427.30896     401.3846     301.3024   1427.30896     401.3846     301.3024
   1427.29370     403.4218     302.3107   1427.29370     403.4218     302.3107
   1427.27844     405.8388     305.0829   1427.27844     405.8388     305.0829
   1427.26318     408.1276     306.3935   1427.26318     408.1276     306.3935
   1427.24792     410.1135     308.6560   1427.24792     410.1135     308.6560
   1427.23267     411.8912     310.0632   1427.23267     411.8912     310.0632
   1427.21741     414.5901     312.1886   1427.21741     414.5901     312.1886
   1427.20215     417.0243     314.3444   1427.20215     417.0243     314.3444
   1427.18689     418.9652     316.3078   1427.18689     418.9652     316.3078
   1427.17163     421.5978     318.3819   1427.17163     421.5978     318.3819
   1427.15637     423.8969     319.7030   1427.15637     423.8969     319.7030
   1427.14111     426.5269     322.2002   1427.14111     426.5269     322.2002
   1427.12585     429.0349     324.3073   1427.12585     429.0349     324.3073
   1427.11060     430.8312     326.1390   1427.11060     430.8312     326.1390
   1427.09534     433.8114     328.0878   1427.09534     433.8114     328.0878
   1427.08008     436.6688     330.3922   1427.08008     436.6688     330.3922
   1427.06482     438.6558     332.2388   1427.06482     438.6558     332.2388
   1427.04956     440.9979     335.3245   1427.04956     440.9979     335.3245
   1427.03430     444.1839     336.6071   1427.03430     444.1839     336.6071
   1427.01904     446.5848     339.4092   1427.01904     446.5848     339.4092
   1427.00378     449.1299     341.7128   1427.00378     449.1299     341.7128
   1426.98853     451.5038     343.3988   1426.98853     451.5038     343.3988
   1426.97327     453.8560     346.1941   1426.97327     453.8560     346.1941
   1426.95801     456.4512     348.7869   1426.95801     456.4512     348.7869
   1426.94275     459.8738     351.4929   1426.94275     459.8738     351.4929
   1426.92749     461.8558     353.8622   1426.92749     461.8558     353.8622
   1426.91223     465.2119     355.8932   1426.91223     465.2119     355.8932
   1426.89697     467.1882     357.3404   1426.89697     467.1882     357.3404
   1426.88171     470.1880     360.9824   1426.88171     470.1880     360.9824
   1426.86646     472.9574     363.0908   1426.86646     472.9574     363.0908
   1426.85120     475.8808     365.5362   1426.85120     475.8808     365.5362
   1426.83594     479.1314     367.6392   1426.83594     479.1314     367.6392
   1426.82068     481.5592     370.1855   1426.82068     481.5592     370.1855
   1426.80542     484.0020     372.2866   1426.80542     484.0020     372.2866
   1426.79016     487.0631     375.3620   1426.79016     487.0631     375.3620
   1426.77490     489.5636     377.0548   1426.77490     489.5636     377.0548
   1426.75964     492.2627     379.6125   1426.75964     492.2627     379.6125
   1426.74438     494.9579     382.8616   1426.74438     494.9579     382.8616
   1426.72913     497.8505     384.9774   1426.72913     497.8505     384.9774
   1426.71387     501.1136     387.5216   1426.71387     501.1136     387.5216
   1426.69861     503.3097     389.7450   1426.69861     503.3097     389.7450
   1426.68335     506.3422     393.0410   1426.68335     506.3422     393.0410
   1426.66809     508.9324     394.6385   1426.66809     508.9324     394.6385
   1426.65283     512.3336     397.4037   1426.65283     512.3336     397.4037
   1426.63757     515.2958     399.6042   1426.63757     515.2958     399.6042
   1426.62231     516.9874     403.5179   1426.62231     516.9874     403.5179
   1426.60706     520.4866     405.3934   1426.60706     520.4866     405.3934
   1426.59180     522.9759     407.3027   1426.59180     522.9759     407.3027
   1426.57654     525.9460     410.2523   1426.57654     525.9460     410.2523
   1426.56128     529.1424     413.2227   1426.56128     529.1424     413.2227
   1426.54602     532.1384     415.2483   1426.54602     532.1384     415.2483
   1426.53076     534.9625     417.2959   1426.53076     534.9625     417.2959
   1426.51550     537.2823     420.4441   1426.51550     537.2823     420.4441
   1426.50024     539.9594     422.9984   1426.50024     539.9594     422.9984
   1426.48499     542.1112     425.0358   1426.48499     542.1112     425.0358
   1426.46973     544.7325     427.9326   1426.46973     544.7325     427.9326
   1426.45447     548.2050     430.1052   1426.45447     548.2050     430.1052
   1426.43921     550.7883     433.2286   1426.43921     550.7883     433.2286
   1426.42395     553.7260     435.2560   1426.42395     553.7260     435.2560
   1426.40869     556.6085     436.9376   1426.40869     556.6085     436.9376
   1426.39343     558.2317     440.3895   1426.39343     558.2317     440.3895
   1426.37817     560.3399     442.7118   1426.37817     560.3399     442.7118
   1426.36292     563.9368     445.5837   1426.36292     563.9368     445.5837
   1426.34766     567.0486     448.2787   1426.34766     567.0486     448.2787
   1426.33240     569.5670     449.5927   1426.33240     569.5670     449.5927
   1426.31714     572.3015     452.3307   1426.31714     572.3015     452.3307
   1426.30188     573.4143     455.1017   1426.30188     573.4143     455.1017
   1426.28662     577.1856     457.0014   1426.28662     577.1856     457.0014
   1426.27136     579.9083     459.8926   1426.27136     579.9083     459.8926
   1426.25610     581.6174     462.2860   1426.25610     581.6174     462.2860
   1426.24084     585.0795     464.4396   1426.24084     585.0795     464.4396
   1426.22559     587.0323     467.7739   1426.22559     587.0323     467.7739
   1426.21033     588.4412     469.6052   1426.21033     588.4412     469.6052
   1426.19507     590.3882     471.8389   1426.19507     590.3882     471.8389
   1426.17981     594.6055     474.7969   1426.17981     594.6055     474.7969
   1426.16455     596.5040     476.4160   1426.16455     596.5040     476.4160
   1426.14929     598.2567     479.3808   1426.14929     598.2567     479.3808
   1426.13403     600.7473     481.5327   1426.13403     600.7473     481.5327
   1426.11877     604.2454     484.0526   1426.11877     604.2454     484.0526
   1426.10352     605.7436     485.9236   1426.10352     605.7436     485.9236
   1426.08826     608.5290     487.4288   1426.08826     608.5290     487.4288
   1426.07300     610.0836     490.0062   1426.07300     610.0836     490.0062
   1426.05774     612.8796     492.4790   1426.05774     612.8796     492.4790
   1426.04248     615.9724     494.7711   1426.04248     615.9724     494.7711
   1426.02722     617.5719     496.7122   1426.02722     617.5719     496.7122
   1426.01196     617.9931     500.0030   1426.01196     617.9931     500.0030
   1425.99670     621.5546     500.9537   1425.99670     621.5546     500.9537
   1425.98145     623.3340     504.1316   1425.98145     623.3340     504.1316
   1425.96619     625.5931     506.2171   1425.96619     625.5931     506.2171
   1425.95093     627.0798     508.5151   1425.95093     627.0798     508.5151
   1425.93567     629.4900     510.4669   1425.93567     629.4900     510.4669
   1425.92041     632.2042     511.4109   1425.92041     632.2042     511.4109
   1425.90515     633.5512     513.8229   1425.90515     633.5512     513.8229
   1425.88989     636.0583     516.0815   1425.88989     636.0583     516.0815
   1425.87463     636.7313     518.2312   1425.87463     636.7313     518.2312
   1425.85938     638.8309     520.7545   1425.85938     638.8309     520.7545
   1425.84412     640.9090     523.2961   1425.84412     640.9090     523.2961
   1425.82886     642.1990     525.2844   1425.82886     642.1990     525.2844
   1425.81360     645.2454     526.8815   1425.81360     645.2454     526.8815
   1425.79834     646.2821     529.3647   1425.79834     646.2821     529.3647
   1425.78308     647.6815     530.8412   1425.78308     647.6815     530.8412
   1425.76782     649.2365     532.9716   1425.76782     649.2365     532.9716
   1425.75256     651.4137     535.2620   1425.75256     651.4137     535.2620
   1425.73730     652.8970     536.8251   1425.73730     652.8970     536.8251
   1425.72205     654.5029     537.6760   1425.72205     654.5029     537.6760
   1425.70679     655.9870     539.7462   1425.70679     655.9870     539.7462
   1425.69153     657.0502     541.9042   1425.69153     657.0502     541.9042
   1425.67627     660.2269     544.3802   1425.67627     660.2269     544.3802
   1425.66101     660.4633     545.5079   1425.66101     660.4633     545.5079
   1425.64575     661.8870     547.2307   1425.64575     661.8870     547.2307
   1425.63049     664.6605     549.2850   1425.63049     664.6605     549.2850
   1425.61523     665.3675     551.5167   1425.61523     665.3675     551.5167
   1425.59998     667.0117     552.2396   1425.59998     667.0117     552.2396
   1425.58472     667.8122     554.1879   1425.58472     667.8122     554.1879
   1425.56946     669.9052     556.8127   1425.56946     669.9052     556.8127
   1425.55420     671.4891     558.0553   1425.55420     671.4891     558.0553
   1425.53894     672.1000     559.5611   1425.53894     672.1000     559.5611
   1425.52368     672.6071     562.5471   1425.52368     672.6071     562.5471
   1425.50842     674.2358     562.4052   1425.50842     674.2358     562.4052
   1425.49316     675.6925     563.3792   1425.49316     675.6925     563.3792
   1425.47791     676.4679     566.1622   1425.47791     676.4679     566.1622
   1425.46265     677.4816     567.5774   1425.46265     677.4816     567.5774
   1425.44739     679.4827     568.8536   1425.44739     679.4827     568.8536
   1425.43213     681.3815     570.3331   1425.43213     681.3815     570.3331
   1425.41687     680.6816     573.8690   1425.41687     680.6816     573.8690
   1425.40161     682.4350     572.4992   1425.40161     682.4350     572.4992
   1425.38635     683.3151     575.3620   1425.38635     683.3151     575.3620
   1425.37109     684.2595     576.7777   1425.37109     684.2595     576.7777
   1425.35583     686.6382     578.4557   1425.35583     686.6382     578.4557
   1425.34058     686.6927     579.5580   1425.34058     686.6927     579.5580
   1425.32532     687.2416     581.3085   1425.32532     687.2416     581.3085
   1425.31006     688.9607     583.2222   1425.31006     688.9607     583.2222
   1425.29480     688.7804     584.2226   1425.29480     688.7804     584.2226
   1425.27954     689.4802     585.0706   1425.27954     689.4802     585.0706
   1425.26428     690.8901     587.5440   1425.26428     690.8901     587.5440
   1425.24902     690.9183     588.2677   1425.24902     690.9183     588.2677
   1425.23376     692.0820     589.1010   1425.23376     692.0820     589.1010
   1425.21851     691.9277     591.8076   1425.21851     691.9277     591.8076
   1425.20325     694.4130     590.5609   1425.20325     694.4130     590.5609
   1425.18799     694.1660     593.6150   1425.18799     694.1660     593.6150
   1425.17273     695.7992     593.9750   1425.17273     695.7992     593.9750
   1425.15747     695.9766     595.3617   1425.15747     695.9766     595.3617
   1425.14221     696.4564     596.8546   1425.14221     696.4564     596.8546
   1425.12695     696.7557     597.5757   1425.12695     696.7557     597.5757
   1425.11169     696.3533     598.9815   1425.11169     696.3533     598.9815
   1425.09644     697.7214     599.4171   1425.09644     697.7214     599.4171
   1425.08118     699.3824     600.2516   1425.08118     699.3824     600.2516
   1425.06592     699.2596     601.7070   1425.06592     699.2596     601.7070
   1425.05066     699.4600     602.6323   1425.05066     699.4600     602.6323
   1425.03540     698.4774     603.7957   1425.03540     698.4774     603.7957
   1425.02014     700.5497     606.1804   1425.02014     700.5497     606.1804
   1425.00488     700.6216     605.7692   1425.00488     700.6216     605.7692
   1424.98962     701.3416     606.5234   1424.98962     701.3416     606.5234
   1424.97437     701.7983     608.8881   1424.97437     701.7983     608.8881
   1424.95911     701.9848     608.5119   1424.95911     701.9848     608.5119
   1424.94385     702.4417     610.3234   1424.94385     702.4417     610.3234
   1424.92859     702.2441     610.6773   1424.92859     702.2441     610.6773
   1424.91333     703.6461     610.2081   1424.91333     703.6461     610.2081
   1424.89807     702.9870     611.8093   1424.89807     702.9870     611.8093
   1424.88281     703.4394     612.5123   1424.88281     703.4394     612.5123
   1424.86755     705.0901     613.7360   1424.86755     705.0901     613.7360
   1424.85229     705.0849     614.4460   1424.85229     705.0849     614.4460
   1424.83704     704.8510     616.1554   1424.83704     704.8510     616.1554
   1424.82178     704.4713     616.5158   1424.82178     704.4713     616.5158
   1424.80652     706.3633     617.3558   1424.80652     706.3633     617.3558
   1424.79126     705.9994     618.1413   1424.79126     705.9994     618.1413
   1424.77600     705.7538     619.2910   1424.77600     705.7538     619.2910
   1424.76074     706.3365     618.3309   1424.76074     706.3365     618.3309
   1424.74548     705.8990     619.9665   1424.74548     705.8990     619.9665
   1424.73022     706.1221     620.6618   1424.73022     706.1221     620.6618
   1424.71497     706.5193     620.4351   1424.71497     706.5193     620.4351
   1424.69971     706.9089     621.8455   1424.69971     706.9089     621.8455
   1424.68445     706.0211     623.6216   1424.68445     706.0211     623.6216
   1424.66919     706.9442     622.4807   1424.66919     706.9442     622.4807
   1424.65393     705.9188     622.9796   1424.65393     705.9188     622.9796
   1424.63867     706.3388     624.9613   1424.63867     706.3388     624.9613
   1424.62341     706.5956     625.1152   1424.62341     706.5956     625.1152
   1424.60815     705.8605     625.0925   1424.60815     705.8605     625.0925
   1424.59290     706.3235     625.1282   1424.59290     706.3235     625.1282
   1424.57764     706.4472     626.7996   1424.57764     706.4472     626.7996
   1424.56238     705.7881     626.7399   1424.56238     705.7881     626.7399
   1424.54712     707.1781     627.3694   1424.54712     707.1781     627.3694
   1424.53186     705.8436     627.8800   1424.53186     705.8436     627.8800
   1424.51660     705.7429     628.1837   1424.51660     705.7429     628.1837
   1424.50134     705.9054     629.0149   1424.50134     705.9054     629.0149
   1424.48608     706.8845     629.4804   1424.48608     706.8845     629.4804
   1424.47083     707.1353     628.9782   1424.47083     707.1353     628.9782
   1424.45557     706.5986     629.0124   1424.45557     706.5986     629.0124
   1424.44031     706.0071     630.6546   1424.44031     706.0071     630.6546
   1424.42505     705.8901     631.2766   1424.42505     705.8901     631.2766
   1424.40979     705.2634     630.2949   1424.40979     705.2634     630.2949
   1424.39453     706.2155     630.6035   1424.39453     706.2155     630.6035
   1424.37927     704.9584     631.5409   1424.37927     704.9584     631.5409
   1424.36401     705.2535     631.6187   1424.36401     705.2535     631.6187
   1424.34875     705.9086     631.8253   1424.34875     705.9086     631.8253
   1424.33350     705.7484     631.9975   1424.33350     705.7484     631.9975
   1424.31824     705.5128     632.0040   1424.31824     705.5128     632.0040
   1424.30298     705.5483     632.6107   1424.30298     705.5483     632.6107
   1424.28772     704.4130     634.0682   1424.28772     704.4130     634.0682
   1424.27246     704.7704     632.5177   1424.27246     704.7704     632.5177
   1424.25720     705.1638     633.8915   1424.25720     705.1638     633.8915
   1424.24194     703.6979     633.9705   1424.24194     703.6979     633.9705
   1424.22668     702.7257     633.3904   1424.22668     702.7257     633.3904
   1424.21143     703.0342     634.2311   1424.21143     703.0342     634.2311
   1424.19617     704.4446     633.3629   1424.19617     704.4446     633.3629
   1424.18091     703.1611     634.2055   1424.18091     703.1611     634.2055
   1424.16565     703.1536     634.4008   1424.16565     703.1536     634.4008
   1424.15039     702.4855     633.6948   1424.15039     702.4855     633.6948
   1424.13513     703.2550     633.9864   1424.13513     703.2550     633.9864
   1424.11987     703.9069     634.1837   1424.11987     703.9069     634.1837
   1424.10461     702.7383     634.0193   1424.10461     702.7383     634.0193
   1424.08936     702.7028     633.9307   1424.08936     702.7028     633.9307
   1424.07410     701.6667     634.2686   1424.07410     701.6667     634.2686
   1424.05884     701.4658     633.0857   1424.05884     701.4658     633.0857
   1424.04358     702.9120     633.3580   1424.04358     702.9120     633.3580
   1424.02832     700.9007     633.8241   1424.02832     700.9007     633.8241
   1424.01306     702.0394     634.0656   1424.01306     702.0394     634.0656
   1423.99780     700.4692     634.4321   1423.99780     700.4692     634.4321
   1423.98254     700.6549     633.4597   1423.98254     700.6549     633.4597
   1423.96729     701.5938     633.2721   1423.96729     701.5938     633.2721
   1423.95203     699.6194     633.2881   1423.95203     699.6194     633.2881
   1423.93677     699.4025     634.9841   1423.93677     699.4025     634.9841
   1423.92151     700.3894     633.3486   1423.92151     700.3894     633.3486
   1423.90625     699.6002     632.5217   1423.90625     699.6002     632.5217
   1423.89099     699.4210     633.2668   1423.89099     699.4210     633.2668
   1423.87573     698.6335     632.7369   1423.87573     698.6335     632.7369
   1423.86047     698.3035     632.6401   1423.86047     698.3035     632.6401
   1423.84521     698.3994     631.9647   1423.84521     698.3994     631.9647
   1423.82996     697.5165     632.0687   1423.82996     697.5165     632.0687
   1423.81470     697.5787     631.1362   1423.81470     697.5787     631.1362
   1423.79944     697.2049     632.1276   1423.79944     697.2049     632.1276
   1423.78418     697.2166     631.1531   1423.78418     697.2166     631.1531
   1423.76892     697.1638     631.4210   1423.76892     697.1638     631.4210
   1423.75366     695.4807     629.9883   1423.75366     695.4807     629.9883
   1423.73840     697.8875     630.9850   1423.73840     697.8875     630.9850
   1423.72314     696.2575     630.7413   1423.72314     696.2575     630.7413
   1423.70789     696.2725     630.5027   1423.70789     696.2725     630.5027
   1423.69263     694.9539     629.2742   1423.69263     694.9539     629.2742
   1423.67737     696.5649     629.0296   1423.67737     696.5649     629.0296
   1423.66211     695.5729     629.3896   1423.66211     695.5729     629.3896
   1423.64685     696.0919     628.6628   1423.64685     696.0919     628.6628
   1423.63159     695.4612     628.0374   1423.63159     695.4612     628.0374
   1423.61633     694.6044     627.2948   1423.61633     694.6044     627.2948
   1423.60107     694.0656     626.7660   1423.60107     694.0656     626.7660
   1423.58582     694.3117     626.2050   1423.58582     694.3117     626.2050
   1423.57056     694.2011     626.0335   1423.57056     694.2011     626.0335
   1423.55530     693.2026     625.6385   1423.55530     693.2026     625.6385
   1423.54004     692.6674     625.3081   1423.54004     692.6674     625.3081
   1423.52478     693.4170     624.5206   1423.52478     693.4170     624.5206
   1423.50952     692.4141     623.7731   1423.50952     692.4141     623.7731
   1423.49426     692.2738     624.2949   1423.49426     692.2738     624.2949
   1423.47900     691.8311     623.1048   1423.47900     691.8311     623.1048
   1423.46375     692.0600     622.7355   1423.46375     692.0600     622.7355
   1423.44849     691.5830     621.4623   1423.44849     691.5830     621.4623
   1423.43323     691.6989     620.5676   1423.43323     691.6989     620.5676
   1423.41797     690.6651     620.9958   1423.41797     690.6651     620.9958
   1423.40271     690.4056     620.3969   1423.40271     690.4056     620.3969
   1423.38745     690.1228     619.7823   1423.38745     690.1228     619.7823
   1423.37219     690.1895     619.4691   1423.37219     690.1895     619.4691
   1423.35693     690.8236     618.3544   1423.35693     690.8236     618.3544
   1423.34167     689.8667     616.8787   1423.34167     689.8667     616.8787
   1423.32642     688.6395     617.3730   1423.32642     688.6395     617.3730
   1423.31116     690.0372     616.1547   1423.31116     690.0372     616.1547
   1423.29590     689.0323     615.4614   1423.29590     689.0323     615.4614
   1423.28064     688.2415     614.5228   1423.28064     688.2415     614.5228
   1423.26538     687.3248     613.6116   1423.26538     687.3248     613.6116
   1423.25012     688.3552     614.2004   1423.25012     688.3552     614.2004
   1423.23486     688.1000     613.2451   1423.23486     688.1000     613.2451
   1423.21960     687.9493     612.5766   1423.21960     687.9493     612.5766
   1423.20435     687.0693     611.4935   1423.20435     687.0693     611.4935
   1423.18909     687.3278     611.1180   1423.18909     687.3278     611.1180
   1423.17383     686.8641     609.9547   1423.17383     686.8641     609.9547
   1423.15857     686.9065     609.3743   1423.15857     686.9065     609.3743
   1423.14331     686.8818     608.6786   1423.14331     686.8818     608.6786
   1423.12805     685.6910     607.9520   1423.12805     685.6910     607.9520
   1423.11279     685.9328     607.5476   1423.11279     685.9328     607.5476
   1423.09753     686.2982     605.8737   1423.09753     686.2982     605.8737
   1423.08228     687.0765     605.2183   1423.08228     687.0765     605.2183
   1423.06702     686.6676     603.5396   1423.06702     686.6676     603.5396
   1423.05176     685.9647     603.5424   1423.05176     685.9647     603.5424
   1423.03650     685.1670     602.7539   1423.03650     685.1670     602.7539
   1423.02124     684.7224     601.6284   1423.02124     684.7224     601.6284
   1423.00598     684.8426     600.3834   1423.00598     684.8426     600.3834
   1422.99072     684.7764     599.9729   1422.99072     684.7764     599.9729
   1422.97546     684.6871     598.9675   1422.97546     684.6871     598.9675
   1422.96021     684.6357     598.0801   1422.96021     684.6357     598.0801
   1422.94495     684.4855     597.1218   1422.94495     684.4855     597.1218
   1422.92969     683.9405     595.6321   1422.92969     683.9405     595.6321
   1422.91443     683.6666     595.0294   1422.91443     683.6666     595.0294
   1422.89917     683.0776     595.0229   1422.89917     683.0776     595.0229
   1422.88391     682.9510     593.7374   1422.88391     682.9510     593.7374
   1422.86865     683.4703     593.3873   1422.86865     683.4703     593.3873
   1422.85339     682.7892     591.6060   1422.85339     682.7892     591.6060
   1422.83813     682.6306     590.8349   1422.83813     682.6306     590.8349
   1422.82288     682.0078     589.8392   1422.82288     682.0078     589.8392
   1422.80762     682.5645     588.1420   1422.80762     682.5645     588.1420
   1422.79236     681.4555     587.4183   1422.79236     681.4555     587.4183
   1422.77710     682.4819     587.4675   1422.77710     682.4819     587.4675
   1422.76184     681.3846     586.3342   1422.76184     681.3846     586.3342
   1422.74658     681.6987     585.0331   1422.74658     681.6987     585.0331
   1422.73132     680.6301     583.2889   1422.73132     680.6301     583.2889
   1422.71606     681.2789     582.5173   1422.71606     681.2789     582.5173
   1422.70081     680.9716     581.8961   1422.70081     680.9716     581.8961
   1422.68555     680.3758     581.4481   1422.68555     680.3758     581.4481
   1422.67029     680.1951     579.8356   1422.67029     680.1951     579.8356
   1422.65503     680.6358     578.9035   1422.65503     680.6358     578.9035
   1422.63977     680.0485     577.6462   1422.63977     680.0485     577.6462
   1422.62451     680.0782     577.2634   1422.62451     680.0782     577.2634
   1422.60925     679.2686     575.7149   1422.60925     679.2686     575.7149
   1422.59399     679.1350     575.2297   1422.59399     679.1350     575.2297
   1422.57874     679.3541     573.1610   1422.57874     679.3541     573.1610
   1422.56348     678.7933     572.2266   1422.56348     678.7933     572.2266
   1422.54822     678.5760     571.6990   1422.54822     678.5760     571.6990
   1422.53296     678.3492     569.8741   1422.53296     678.3492     569.8741
   1422.51770     678.1475     569.9827   1422.51770     678.1475     569.9827
   1422.50244     678.0662     567.8297   1422.50244     678.0662     567.8297
   1422.48718     677.9820     566.9251   1422.48718     677.9820     566.9251
   1422.47192     677.4640     566.3533   1422.47192     677.4640     566.3533
   1422.45667     676.8456     565.6492   1422.45667     676.8456     565.6492
   1422.44141     679.4003     563.9296   1422.44141     679.4003     563.9296
   1422.42615     677.2483     562.8020   1422.42615     677.2483     562.8020
   1422.41089     677.3218     561.4373   1422.41089     677.3218     561.4373
   1422.39563     676.7423     560.8008   1422.39563     676.7423     560.8008
   1422.38037     677.3644     558.5696   1422.38037     677.3644     558.5696
   1422.36511     677.4843     558.1515   1422.36511     677.4843     558.1515
   1422.34985     676.4581     557.2125   1422.34985     676.4581     557.2125
   1422.33459     676.8517     556.2755   1422.33459     676.8517     556.2755
   1422.31934     676.8558     554.5082   1422.31934     676.8558     554.5082
   1422.30408     676.2151     553.5382   1422.30408     676.2151     553.5382
   1422.28882     675.6528     552.2020   1422.28882     675.6528     552.2020
   1422.27356     674.6870     551.4827   1422.27356     674.6870     551.4827
   1422.25830     674.8159     550.8753   1422.25830     674.8159     550.8753
   1422.24304     676.4258     549.8126   1422.24304     676.4258     549.8126
   1422.22778     674.9681     549.2115   1422.22778     674.9681     549.2115
   1422.21252     675.0804     546.9054   1422.21252     675.0804     546.9054
   1422.19727     674.5739     545.4433   1422.19727     674.5739     545.4433
   1422.18201     675.3317     544.9723   1422.18201     675.3317     544.9723
   1422.16675     674.0229     543.9913   1422.16675     674.0229     543.9913
   1422.15149     675.2698     542.5153   1422.15149     675.2698     542.5153
   1422.13623     675.0247     541.4018   1422.13623     675.0247     541.4018
   1422.12097     673.3606     540.8118   1422.12097     673.3606     540.8118
   1422.10571     674.0923     539.1529   1422.10571     674.0923     539.1529
   1422.09045     673.1232     538.9011   1422.09045     673.1232     538.9011
   1422.07520     673.0439     537.5478   1422.07520     673.0439     537.5478
   1422.05994     673.1365     535.4962   1422.05994     673.1365     535.4962
   1422.04468     672.3005     535.0341   1422.04468     672.3005     535.0341
   1422.02942     673.2025     533.8506   1422.02942     673.2025     533.8506
   1422.01416     672.4899     531.9938   1422.01416     672.4899     531.9938
   1421.99890     672.8895     531.3713   1421.99890     672.8895     531.3713
   1421.98364     672.0011     529.2872   1421.98364     672.0011     529.2872
   1421.96838     672.6382     529.1860   1421.96838     672.6382     529.1860
   1421.95312     671.2112     527.4805   1421.95312     671.2112     527.4805
   1421.93787     670.8156     526.3743   1421.93787     670.8156     526.3743
   1421.92261     671.5708     525.2576   1421.92261     671.5708     525.2576
   1421.90735     671.2468     524.8044   1421.90735     671.2468     524.8044
   1421.89209     670.7217     523.5000   1421.89209     670.7217     523.5000
   1421.87683     670.3547     523.1761   1421.87683     670.3547     523.1761
   1421.86157     671.1368     521.3271   1421.86157     671.1368     521.3271
   1421.84631     670.9767     519.6357   1421.84631     670.9767     519.6357
   1421.83105     670.2671     519.3903   1421.83105     670.2671     519.3903
   1421.81580     669.0612     517.7080   1421.81580     669.0612     517.7080
   1421.80054     669.7972     516.4933   1421.80054     669.7972     516.4933
   1421.78528     669.8582     515.7308   1421.78528     669.8582     515.7308
   1421.77002     670.1104     514.7044   1421.77002     670.1104     514.7044
   1421.75476     667.8888     513.2634   1421.75476     667.8888     513.2634
   1421.73950     669.2435     512.2853   1421.73950     669.2435     512.2853
   1421.72424     668.3434     510.7279   1421.72424     668.3434     510.7279
   1421.70898     669.7762     510.3008   1421.70898     669.7762     510.3008
   1421.69373     668.3411     508.2896   1421.69373     668.3411     508.2896
   1421.67847     667.7659     506.9308   1421.67847     667.7659     506.9308
   1421.66321     668.5178     506.7049   1421.66321     668.5178     506.7049
   1421.64795     667.9011     504.6038   1421.64795     667.9011     504.6038
   1421.63269     668.0719     503.4787   1421.63269     668.0719     503.4787
   1421.61743     667.3293     502.4933   1421.61743     667.3293     502.4933
   1421.60217     667.4926     502.5444   1421.60217     667.4926     502.5444
   1421.58691     666.8749     500.3462   1421.58691     666.8749     500.3462
   1421.57166     666.3051     500.2457   1421.57166     666.3051     500.2457
   1421.55640     666.2157     499.4732   1421.55640     666.2157     499.4732
   1421.54114     665.8265     497.2687   1421.54114     665.8265     497.2687
   1421.52588     665.2985     496.6473   1421.52588     665.2985     496.6473
   1421.51062     665.0343     494.7484   1421.51062     665.0343     494.7484
   1421.49536     664.2977     495.0079   1421.49536     664.2977     495.0079
   1421.48010     665.2593     492.7747   1421.48010     665.2593     492.7747
   1421.46484     664.9098     491.5130   1421.46484     664.9098     491.5130
   1421.44958     665.5430     491.3310   1421.44958     665.5430     491.3310
   1421.43433     663.7044     489.9540   1421.43433     663.7044     489.9540
   1421.41907     665.0468     489.1780   1421.41907     665.0468     489.1780
   1421.40381     663.7587     487.8253   1421.40381     663.7587     487.8253
   1421.38855     662.6852     486.7487   1421.38855     662.6852     486.7487
   1421.37329     663.5214     486.2360   1421.37329     663.5214     486.2360
   1421.35803     663.6281     483.8921   1421.35803     663.6281     483.8921
   1421.34277     663.1514     483.2102   1421.34277     663.1514     483.2102
   1421.32751     662.8785     482.2101   1421.32751     662.8785     482.2101
   1421.31226     662.8662     481.8386   1421.31226     662.8662     481.8386
   1421.29700     662.2911     479.2861   1421.29700     662.2911     479.2861
   1421.28174     663.0881     479.6053   1421.28174     663.0881     479.6053
   1421.26648     660.7316     478.0278   1421.26648     660.7316     478.0278
   1421.25122     661.5385     477.6630   1421.25122     661.5385     477.6630
   1421.23596     661.9127     476.3358   1421.23596     661.9127     476.3358
   1421.22070     660.6823     474.0813   1421.22070     660.6823     474.0813
   1421.20544     661.1057     474.7130   1421.20544     661.1057     474.7130
   1421.19019     660.5457     472.3680   1421.19019     660.5457     472.3680
   1421.17493     660.5307     472.3144   1421.17493     660.5307     472.3144
   1421.15967     659.4855     471.8529   1421.15967     659.4855     471.8529
   1421.14441     660.0151     469.6707   1421.14441     660.0151     469.6707
   1421.12915     659.4033     468.7917   1421.12915     659.4033     468.7917
   1421.11389     659.2532     468.1931   1421.11389     659.2532     468.1931
   1421.09863     658.7800     467.6843   1421.09863     658.7800     467.6843
   1421.08337     659.3406     466.1135   1421.08337     659.3406     466.1135
   1421.06812     657.0461     465.5717   1421.06812     657.0461     465.5717
   1421.05286     658.3754     464.5122   1421.05286     658.3754     464.5122
   1421.03760     657.9811     462.9078   1421.03760     657.9811     462.9078
   1421.02234     658.0193     462.0215   1421.02234     658.0193     462.0215
   1421.00708     658.2498     461.5140   1421.00708     658.2498     461.5140
   1420.99182     657.2186     461.0207   1420.99182     657.2186     461.0207
   1420.97656     657.0806     459.4135   1420.97656     657.0806     459.4135
   1420.96130     657.0202     459.3510   1420.96130     657.0202     459.3510
   1420.94604     655.6568     458.0821   1420.94604     655.6568     458.0821
   1420.93079     657.2573     456.8000   1420.93079     657.2573     456.8000
   1420.91553     656.7230     456.4852   1420.91553     656.7230     456.4852
   1420.90027     655.1968     456.1652   1420.90027     655.1968     456.1652
   1420.88501     655.7728     454.3627   1420.88501     655.7728     454.3627
   1420.86975     654.9914     454.3429   1420.86975     654.9914     454.3429
   1420.85449     655.6951     453.2962   1420.85449     655.6951     453.2962
   1420.83923     656.4008     452.3103   1420.83923     656.4008     452.3103
   1420.82397     654.6155     451.5876   1420.82397     654.6155     451.5876
   1420.80872     655.2617     450.9339   1420.80872     655.2617     450.9339
   1420.79346     655.1883     448.9974   1420.79346     655.1883     448.9974
   1420.77820     655.8417     449.0988   1420.77820     655.8417     449.0988
   1420.76294     655.6573     447.8098   1420.76294     655.6573     447.8098
   1420.74768     654.5570     447.7073   1420.74768     654.5570     447.7073
   1420.73242     654.5833     447.5809   1420.73242     654.5833     447.5809
   1420.71716     654.6873     446.1241   1420.71716     654.6873     446.1241
   1420.70190     655.2083     444.9893   1420.70190     655.2083     444.9893
   1420.68665     655.1526     445.1005   1420.68665     655.1526     445.1005
   1420.67139     653.8254     443.4460   1420.67139     653.8254     443.4460
   1420.65613     654.5283     443.1443   1420.65613     654.5283     443.1443
   1420.64087     653.5970     442.3792   1420.64087     653.5970     442.3792
   1420.62561     654.5190     441.9046   1420.62561     654.5190     441.9046
   1420.61035     653.9833     441.4710   1420.61035     653.9833     441.4710
   1420.59509     654.1434     440.2194   1420.59509     654.1434     440.2194
   1420.57983     653.9468     440.1878   1420.57983     653.9468     440.1878
   1420.56458     655.5112     440.3553   1420.56458     655.5112     440.3553
   1420.54932     656.0211     440.1125   1420.54932     656.0211     440.1125
   1420.53406     656.9550     441.0746   1420.53406     656.9550     441.0746
   1420.51880     659.6035     440.7455   1420.51880     659.6035     440.7455
   1420.50354     657.8363     438.6786   1420.50354     657.8363     438.6786
   1420.48828     657.9203     438.2032   1420.48828     657.9203     438.2032
   1420.47302     656.6177     437.2377   1420.47302     656.6177     437.2377
   1420.45776     655.5482     436.3698   1420.45776     655.5482     436.3698
   1420.44250     655.3387     435.7066   1420.44250     655.3387     435.7066
   1420.42725     654.8555     435.2913   1420.42725     654.8555     435.2913
   1420.41199     655.9376     434.0503   1420.41199     655.9376     434.0503
   1420.39673     656.0159     434.8333   1420.39673     656.0159     434.8333
   1420.38147     656.3223     433.6421   1420.38147     656.3223     433.6421
   1420.36621     656.5450     433.8717   1420.36621     656.5450     433.8717
   1420.35095     659.4880     434.8253   1420.35095     659.4880     434.8253
   1420.33569     664.1619     437.0376   1420.33569     664.1619     437.0376
   1420.32043     669.7473     439.4670   1420.32043     669.7473     439.4670
   1420.30518     681.6249     446.2622   1420.30518     681.6249     446.2622
   1420.28992     697.8305     456.4313   1420.28992     697.8305     456.4313
   1420.27466     722.9256     471.4223   1420.27466     722.9256     471.4223
   1420.25940     775.3940     503.5225   1420.25940     775.3940     503.5225
   1420.24414     912.0718     590.5292   1420.24414     912.0718     590.5292
   1420.22888    1242.2933     797.8268   1420.22888    1242.2933     797.8268
   1420.21362    1576.7542    1009.5927   1420.21362    1576.7542    1009.5927
   1420.19836    1702.4128    1089.9989   1420.19836    1702.4128    1089.9989
   1420.18311    1715.2467    1097.5303   1420.18311    1715.2467    1097.5303
   1420.16785    1472.6073     942.4927   1420.16785    1472.6073     942.4927
   1420.15259    1324.0251     848.3480   1420.15259    1324.0251     848.3480
   1420.13733    1585.1705    1008.5438   1420.13733    1585.1705    1008.5438
   1420.12207    1773.5065    1127.4479   1420.12207    1773.5065    1127.4479
   1420.10681    1726.0288    1095.4332   1420.10681    1726.0288    1095.4332
   1420.09155    1641.7327    1042.9440   1420.09155    1641.7327    1042.9440
   1420.07629    1512.8931     961.8073   1420.07629    1512.8931     961.8073
   1420.06104    1596.8696    1009.7944   1420.06104    1596.8696    1009.7944
   1420.04578    1831.9268    1159.4707   1420.04578    1831.9268    1159.4707
   1420.03052    1960.4878    1237.1759   1420.03052    1960.4878    1237.1759
   1420.01526    1845.7478    1167.1407   1420.01526    1845.7478    1167.1407
   1420.00000    1586.1727    1003.6663   1420.00000    1586.1727    1003.6663
   1419.98474    1326.5978     840.1915   1419.98474    1326.5978     840.1915
   1419.96948    1098.8309     695.6022   1419.96948    1098.8309     695.6022
   1419.95422     935.8939     593.9955   1419.95422     935.8939     593.9955
   1419.93896     837.4510     532.2818   1419.93896     837.4510     532.2818
   1419.92371     771.6451     490.2970   1419.92371     771.6451     490.2970
   1419.90845     727.6901     462.9822   1419.90845     727.6901     462.9822
   1419.89319     698.6384     445.1497   1419.89319     698.6384     445.1497
   1419.87793     680.2542     432.3725   1419.87793     680.2542     432.3725
   1419.86267     667.6428     424.8743   1419.86267     667.6428     424.8743
   1419.84741     659.9929     420.1362   1419.84741     659.9929     420.1362
   1419.83215     654.7520     416.2585   1419.83215     654.7520     416.2585
   1419.81689     651.4128     414.9597   1419.81689     651.4128     414.9597
   1419.80164     650.0121     412.7766   1419.80164     650.0121     412.7766
   1419.78638     648.2706     410.9732   1419.78638     648.2706     410.9732
   1419.77112     647.5295     410.7832   1419.77112     647.5295     410.7832
   1419.75586     647.2115     410.0332   1419.75586     647.2115     410.0332
   1419.74060     646.9730     408.8721   1419.74060     646.9730     408.8721
   1419.72534     646.5704     409.0693   1419.72534     646.5704     409.0693
   1419.71008     646.4114     409.0405   1419.71008     646.4114     409.0405
   1419.69482     646.5199     408.4685   1419.69482     646.5199     408.4685
   1419.67957     645.6161     407.9661   1419.67957     645.6161     407.9661
   1419.66431     646.1285     407.5698   1419.66431     646.1285     407.5698
   1419.64905     646.1237     407.0680   1419.64905     646.1237     407.0680
   1419.63379     644.6978     407.4958   1419.63379     644.6978     407.4958
   1419.61853     646.6083     405.6743   1419.61853     646.6083     405.6743
   1419.60327     645.1405     406.3272   1419.60327     645.1405     406.3272
   1419.58801     645.8815     406.5050   1419.58801     645.8815     406.5050
   1419.57275     646.6799     406.3354   1419.57275     646.6799     406.3354
   1419.55750     646.6496     406.6229   1419.55750     646.6496     406.6229
   1419.54224     645.3882     406.6367   1419.54224     645.3882     406.6367
   1419.52698     646.8135     406.7307   1419.52698     646.8135     406.7307
   1419.51172     647.3419     405.9897   1419.51172     647.3419     405.9897
   1419.49646     647.3206     405.5366   1419.49646     647.3206     405.5366
   1419.48120     648.4662     406.3829   1419.48120     648.4662     406.3829
   1419.46594     648.5695     405.9176   1419.46594     648.5695     405.9176
   1419.45068     647.8979     406.2454   1419.45068     647.8979     406.2454
   1419.43542     649.3724     405.6309   1419.43542     649.3724     405.6309
   1419.42017     648.5015     405.0644   1419.42017     648.5015     405.0644
   1419.40491     648.9069     405.3056   1419.40491     648.9069     405.3056
   1419.38965     649.0631     405.6494   1419.38965     649.0631     405.6494
   1419.37439     648.6682     405.8197   1419.37439     648.6682     405.8197
   1419.35913     651.0275     405.3116   1419.35913     651.0275     405.3116
   1419.34387     650.5255     405.9585   1419.34387     650.5255     405.9585
   1419.32861     650.8555     405.8577   1419.32861     650.8555     405.8577
   1419.31335     651.6019     405.4383   1419.31335     651.6019     405.4383
   1419.29810     651.3761     405.8718   1419.29810     651.3761     405.8718
   1419.28284     650.7988     406.1674   1419.28284     650.7988     406.1674
   1419.26758     651.6382     406.2177   1419.26758     651.6382     406.2177
   1419.25232     651.0776     406.4448   1419.25232     651.0776     406.4448
   1419.23706     653.1094     406.7194   1419.23706     653.1094     406.7194
   1419.22180     653.7986     406.4767   1419.22180     653.7986     406.4767
   1419.20654     653.1705     406.3563   1419.20654     653.1705     406.3563
   1419.19128     655.1543     406.6154   1419.19128     655.1543     406.6154
   1419.17603     655.0367     407.2436   1419.17603     655.0367     407.2436
   1419.16077     655.1373     405.9966   1419.16077     655.1373     405.9966
   1419.14551     655.8467     406.7325   1419.14551     655.8467     406.7325
   1419.13025     656.1700     407.1684   1419.13025     656.1700     407.1684
   1419.11499     656.9370     407.1309   1419.11499     656.9370     407.1309
   1419.09973     656.2450     406.9557   1419.09973     656.2450     406.9557
   1419.08447     657.3622     407.9831   1419.08447     657.3622     407.9831
   1419.06921     657.7695     407.9057   1419.06921     657.7695     407.9057
   1419.05396     658.7880     408.3002   1419.05396     658.7880     408.3002
   1419.03870     659.7292     408.6486   1419.03870     659.7292     408.6486
   1419.02344     658.0798     408.8553   1419.02344     658.0798     408.8553
   1419.00818     660.5673     409.2110   1419.00818     660.5673     409.2110
   1418.99292     661.0769     408.5754   1418.99292     661.0769     408.5754
   1418.97766     660.0121     409.5757   1418.97766     660.0121     409.5757
   1418.96240     661.0068     410.3663   1418.96240     661.0068     410.3663
   1418.94714     662.1434     410.3237   1418.94714     662.1434     410.3237
   1418.93188     661.9478     410.3404   1418.93188     661.9478     410.3404
   1418.91663     664.8154     411.2199   1418.91663     664.8154     411.2199
   1418.90137     664.2817     410.9587   1418.90137     664.2817     410.9587
   1418.88611     663.2584     411.8304   1418.88611     663.2584     411.8304
   1418.87085     664.9563     411.8450   1418.87085     664.9563     411.8450
   1418.85559     665.0948     412.6890   1418.85559     665.0948     412.6890
   1418.84033     666.0184     412.8760   1418.84033     666.0184     412.8760
   1418.82507     666.9628     412.9751   1418.82507     666.9628     412.9751
   1418.80981     667.7365     413.4436   1418.80981     667.7365     413.4436
   1418.79456     667.5748     413.5162   1418.79456     667.5748     413.5162
   1418.77930     668.8654     414.2103   1418.77930     668.8654     414.2103
   1418.76404     670.1367     414.9682   1418.76404     670.1367     414.9682
   1418.74878     669.9371     414.8613   1418.74878     669.9371     414.8613
   1418.73352     671.9463     415.5813   1418.73352     671.9463     415.5813
   1418.71826     671.2590     415.0492   1418.71826     671.2590     415.0492
   1418.70300     673.1837     416.1781   1418.70300     673.1837     416.1781
   1418.68774     673.3668     416.5202   1418.68774     673.3668     416.5202
   1418.67249     673.6508     417.2840   1418.67249     673.6508     417.2840
   1418.65723     675.1061     417.3261   1418.65723     675.1061     417.3261
   1418.64197     675.8497     418.6090   1418.64197     675.8497     418.6090
   1418.62671     677.0609     419.0296   1418.62671     677.0609     419.0296
   1418.61145     676.4065     419.0789   1418.61145     676.4065     419.0789
   1418.59619     677.6176     420.3434   1418.59619     677.6176     420.3434
   1418.58093     678.0632     420.1721   1418.58093     678.0632     420.1721
   1418.56567     679.6044     420.8346   1418.56567     679.6044     420.8346
   1418.55042     680.7157     422.0318   1418.55042     680.7157     422.0318
   1418.53516     681.7114     421.8423   1418.53516     681.7114     421.8423
   1418.51990     681.5072     422.9546   1418.51990     681.5072     422.9546
   1418.50464     682.8273     422.9431   1418.50464     682.8273     422.9431
   1418.48938     683.8000     423.6402   1418.48938     683.8000     423.6402
   1418.47412     685.5650     424.3903   1418.47412     685.5650     424.3903
   1418.45886     685.8083     424.6820   1418.45886     685.8083     424.6820
   1418.44360     685.8135     425.4272   1418.44360     685.8135     425.4272
   1418.42834     686.5644     425.7329   1418.42834     686.5644     425.7329
   1418.41309     687.3291     426.8295   1418.41309     687.3291     426.8295
   1418.39783     689.2640     426.6570   1418.39783     689.2640     426.6570
   1418.38257     688.0353     427.8495   1418.38257     688.0353     427.8495
   1418.36731     689.5202     428.2231   1418.36731     689.5202     428.2231
   1418.35205     690.8307     428.2405   1418.35205     690.8307     428.2405
   1418.33679     692.1861     429.7919   1418.33679     692.1861     429.7919
   1418.32153     693.0621     429.9585   1418.32153     693.0621     429.9585
   1418.30627     694.4555     430.9136   1418.30627     694.4555     430.9136
   1418.29102     695.0880     431.9596   1418.29102     695.0880     431.9596
   1418.27576     695.6879     432.1599   1418.27576     695.6879     432.1599
   1418.26050     696.2861     432.9781   1418.26050     696.2861     432.9781
   1418.24524     699.5199     433.2325   1418.24524     699.5199     433.2325
   1418.22998     699.0141     434.6329   1418.22998     699.0141     434.6329
   1418.21472     699.7025     434.9807   1418.21472     699.7025     434.9807
   1418.19946     701.1825     434.8727   1418.19946     701.1825     434.8727
   1418.18420     701.5016     436.0407   1418.18420     701.5016     436.0407
   1418.16895     702.3108     437.5391   1418.16895     702.3108     437.5391
   1418.15369     702.9693     437.0889   1418.15369     702.9693     437.0889
   1418.13843     703.6631     438.6741   1418.13843     703.6631     438.6741
   1418.12317     704.9613     438.8890   1418.12317     704.9613     438.8890
   1418.10791     708.2047     440.1448   1418.10791     708.2047     440.1448
   1418.09265     707.8048     440.8833   1418.09265     707.8048     440.8833
   1418.07739     708.4211     440.9556   1418.07739     708.4211     440.9556
   1418.06213     708.4780     442.2290   1418.06213     708.4780     442.2290
   1418.04688     709.9551     442.3991   1418.04688     709.9551     442.3991
   1418.03162     712.2617     444.0841   1418.03162     712.2617     444.0841
   1418.01636     713.5248     444.2535   1418.01636     713.5248     444.2535
   1418.00110     712.7239     444.8827   1418.00110     712.7239     444.8827
   1417.98584     713.5458     445.9514   1417.98584     713.5458     445.9514
   1417.97058     715.9974     447.9048   1417.97058     715.9974     447.9048
   1417.95532     717.1260     447.1694   1417.95532     717.1260     447.1694
   1417.94006     716.6341     447.4185   1417.94006     716.6341     447.4185
   1417.92480     718.3270     448.5671   1417.92480     718.3270     448.5671
   1417.90955     719.3420     449.3059   1417.90955     719.3420     449.3059
   1417.89429     720.0842     450.6682   1417.89429     720.0842     450.6682
   1417.87903     722.2394     450.9547   1417.87903     722.2394     450.9547
   1417.86377     723.7478     452.6313   1417.86377     723.7478     452.6313
   1417.84851     723.9726     452.3760   1417.84851     723.9726     452.3760
   1417.83325     724.8643     453.8433   1417.83325     724.8643     453.8433
   1417.81799     725.5620     453.8204   1417.81799     725.5620     453.8204
   1417.80273     727.5388     455.1048   1417.80273     727.5388     455.1048
   1417.78748     728.6127     456.0020   1417.78748     728.6127     456.0020
   1417.77222     729.8752     457.3116   1417.77222     729.8752     457.3116
   1417.75696     730.2260     456.9793   1417.75696     730.2260     456.9793
   1417.74170     731.1322     458.5573   1417.74170     731.1322     458.5573
   1417.72644     731.7833     459.0344   1417.72644     731.7833     459.0344
   1417.71118     734.4611     460.2361   1417.71118     734.4611     460.2361
   1417.69592     733.7553     461.5198   1417.69592     733.7553     461.5198
   1417.68066     735.5131     461.7970   1417.68066     735.5131     461.7970
   1417.66541     737.8071     462.2786   1417.66541     737.8071     462.2786
   1417.65015     737.8242     463.4262   1417.65015     737.8242     463.4262
   1417.63489     738.7667     464.6083   1417.63489     738.7667     464.6083
   1417.61963     740.1770     465.5324   1417.61963     740.1770     465.5324
   1417.60437     741.6694     465.6474   1417.60437     741.6694     465.6474
   1417.58911     742.6532     466.4556   1417.58911     742.6532     466.4556
   1417.57385     743.4862     467.5544   1417.57385     743.4862     467.5544
   1417.55859     742.9319     467.7229   1417.55859     742.9319     467.7229
   1417.54333     744.4324     469.4975   1417.54333     744.4324     469.4975
   1417.52808     745.8939     469.8900   1417.52808     745.8939     469.8900
   1417.51282     748.0519     470.7992   1417.51282     748.0519     470.7992
   1417.49756     748.2901     471.1326   1417.49756     748.2901     471.1326
   1417.48230     747.9885     471.8169   1417.48230     747.9885     471.8169
   1417.46704     749.7426     473.2924   1417.46704     749.7426     473.2924
   1417.45178     750.9480     473.2434   1417.45178     750.9480     473.2434
   1417.43652     752.5270     474.5287   1417.43652     752.5270     474.5287
   1417.42126     753.3469     474.8669   1417.42126     753.3469     474.8669
   1417.40601     753.2212     477.0823   1417.40601     753.2212     477.0823
   1417.39075     755.5112     477.3466   1417.39075     755.5112     477.3466
   1417.37549     756.0843     477.7387   1417.37549     756.0843     477.7387
   1417.36023     757.1511     478.9370   1417.36023     757.1511     478.9370
   1417.34497     757.5082     479.5544   1417.34497     757.5082     479.5544
   1417.32971     758.6865     479.6462   1417.32971     758.6865     479.6462
   1417.31445     759.2399     480.5930   1417.31445     759.2399     480.5930
   1417.29919     761.5928     480.9496   1417.29919     761.5928     480.9496
   1417.28394     761.6964     482.7499   1417.28394     761.6964     482.7499
   1417.26868     762.3436     483.0170   1417.26868     762.3436     483.0170
   1417.25342     763.3450     483.5276   1417.25342     763.3450     483.5276
   1417.23816     762.8419     484.4914   1417.23816     762.8419     484.4914
   1417.22290     764.6223     484.8535   1417.22290     764.6223     484.8535
   1417.20764     765.0887     486.4717   1417.20764     765.0887     486.4717
   1417.19238     766.6305     486.6951   1417.19238     766.6305     486.6951
   1417.17712     766.7182     487.5959   1417.17712     766.7182     487.5959
   1417.16187     767.5158     487.6593   1417.16187     767.5158     487.6593
   1417.14661     768.5156     488.7536   1417.14661     768.5156     488.7536
   1417.13135     770.0454     489.9399   1417.13135     770.0454     489.9399
   1417.11609     770.7664     490.2799   1417.11609     770.7664     490.2799
   1417.10083     771.2858     491.2535   1417.10083     771.2858     491.2535
   1417.08557     771.5878     491.1800   1417.08557     771.5878     491.1800
   1417.07031     773.3506     492.8579   1417.07031     773.3506     492.8579
   1417.05505     774.2634     492.0332   1417.05505     774.2634     492.0332
   1417.03979     773.2744     493.1940   1417.03979     773.2744     493.1940
   1417.02454     774.1851     493.8895   1417.02454     774.1851     493.8895
   1417.00928     775.0643     495.0618   1417.00928     775.0643     495.0618
   1416.99402     776.7266     495.3509   1416.99402     776.7266     495.3509
   1416.97876     778.0689     496.3058   1416.97876     778.0689     496.3058
   1416.96350     776.8535     496.2749   1416.96350     776.8535     496.2749
   1416.94824     777.9428     496.7547   1416.94824     777.9428     496.7547
   1416.93298     778.1830     496.9433   1416.93298     778.1830     496.9433
   1416.91772     778.6379     497.7547   1416.91772     778.6379     497.7547
   1416.90247     780.2773     498.6893   1416.90247     780.2773     498.6893
   1416.88721     781.4347     498.6062   1416.88721     781.4347     498.6062
   1416.87195     781.3400     499.4492   1416.87195     781.3400     499.4492
   1416.85669     780.6560     500.2023   1416.85669     780.6560     500.2023
   1416.84143     781.2282     500.0335   1416.84143     781.2282     500.0335
   1416.82617     783.2278     500.7541   1416.82617     783.2278     500.7541
   1416.81091     783.8069     501.0195   1416.81091     783.8069     501.0195
   1416.79565     783.1713     502.2337   1416.79565     783.1713     502.2337
   1416.78040     784.4786     501.7215   1416.78040     784.4786     501.7215
   1416.76514     785.0135     501.5928   1416.76514     785.0135     501.5928
   1416.74988     785.3716     501.3374   1416.74988     785.3716     501.3374
   1416.73462     785.8005     501.7095   1416.73462     785.8005     501.7095
   1416.71936     785.4762     502.1605   1416.71936     785.4762     502.1605
   1416.70410     785.2556     503.0927   1416.70410     785.2556     503.0927
   1416.68884     785.5490     502.7536   1416.68884     785.5490     502.7536
   1416.67358     786.7029     503.1978   1416.67358     786.7029     503.1978
   1416.65833     786.3302     503.5681   1416.65833     786.3302     503.5681
   1416.64307     786.5115     504.3673   1416.64307     786.5115     504.3673
   1416.62781     787.4042     504.2524   1416.62781     787.4042     504.2524
   1416.61255     786.1092     505.2242   1416.61255     786.1092     505.2242
   1416.59729     788.5280     504.1988   1416.59729     788.5280     504.1988
   1416.58203     786.9142     504.6464   1416.58203     786.9142     504.6464
   1416.56677     787.6725     504.5305   1416.56677     787.6725     504.5305
   1416.55151     789.1258     504.7476   1416.55151     789.1258     504.7476
   1416.53625     788.0571     504.1659   1416.53625     788.0571     504.1659
   1416.52100     787.8846     505.9868   1416.52100     787.8846     505.9868
   1416.50574     789.1838     505.2828   1416.50574     789.1838     505.2828
   1416.49048     787.1847     505.5226   1416.49048     787.1847     505.5226
   1416.47522     789.2239     504.8833   1416.47522     789.2239     504.8833
   1416.45996     787.5315     504.8659   1416.45996     787.5315     504.8659
   1416.44470     788.2412     505.1286   1416.44470     788.2412     505.1286
   1416.42944     788.8105     504.9991   1416.42944     788.8105     504.9991
   1416.41418     788.4593     504.9129   1416.41418     788.4593     504.9129
   1416.39893     787.4387     504.9943   1416.39893     787.4387     504.9943
   1416.38367     789.0175     504.8562   1416.38367     789.0175     504.8562
   1416.36841     787.1364     505.0009   1416.36841     787.1364     505.0009
   1416.35315     787.8261     505.2091   1416.35315     787.8261     505.2091
   1416.33789     787.3392     505.0117   1416.33789     787.3392     505.0117
   1416.32263     788.2220     504.0361   1416.32263     788.2220     504.0361
   1416.30737     788.5592     504.1316   1416.30737     788.5592     504.1316
   1416.29211     788.1525     504.7746   1416.29211     788.1525     504.7746
   1416.27686     785.0079     504.2125   1416.27686     785.0079     504.2125
   1416.26160     787.4281     504.5134   1416.26160     787.4281     504.5134
   1416.24634     785.7749     504.3366   1416.24634     785.7749     504.3366
   1416.23108     786.3928     503.6497   1416.23108     786.3928     503.6497
   1416.21582     786.6130     503.9443   1416.21582     786.6130     503.9443
   1416.20056     787.3286     503.0373   1416.20056     787.3286     503.0373
   1416.18530     784.6071     502.9932   1416.18530     784.6071     502.9932
   1416.17004     783.7219     503.3829   1416.17004     783.7219     503.3829
   1416.15479     784.9893     502.0099   1416.15479     784.9893     502.0099
   1416.13953     785.0193     502.8860   1416.13953     785.0193     502.8860
   1416.12427     783.9734     501.5452   1416.12427     783.9734     501.5452
   1416.10901     783.3203     501.5061   1416.10901     783.3203     501.5061
   1416.09375     782.8649     502.2568   1416.09375     782.8649     502.2568
   1416.07849     782.5274     500.2582   1416.07849     782.5274     500.2582
   1416.06323     782.0364     501.4334   1416.06323     782.0364     501.4334
   1416.04797     781.6108     500.4384   1416.04797     781.6108     500.4384
   1416.03271     781.3584     501.1670   1416.03271     781.3584     501.1670
   1416.01746     782.2307     500.1122   1416.01746     782.2307     500.1122
   1416.00220     782.2205     499.6900   1416.00220     782.2205     499.6900
   1415.98694     779.1825     498.9258   1415.98694     779.1825     498.9258
   1415.97168     780.7678     499.2965   1415.97168     780.7678     499.2965
   1415.95642     779.4742     499.2886   1415.95642     779.4742     499.2886
   1415.94116     779.6010     497.8127   1415.94116     779.6010     497.8127
   1415.92590     778.3285     497.4566   1415.92590     778.3285     497.4566
   1415.91064     778.0903     497.4698   1415.91064     778.0903     497.4698
   1415.89539     777.4697     497.6567   1415.89539     777.4697     497.6567
   1415.88013     776.9297     497.0429   1415.88013     776.9297     497.0429
   1415.86487     775.4196     496.5451   1415.86487     775.4196     496.5451
   1415.84961     776.6480     495.3987   1415.84961     776.6480     495.3987
   1415.83435     774.4966     496.0251   1415.83435     774.4966     496.0251
   1415.81909     774.2619     495.1399   1415.81909     774.2619     495.1399
   1415.80383     773.5563     494.3363   1415.80383     773.5563     494.3363
   1415.78857     772.6102     494.1962   1415.78857     772.6102     494.1962
   1415.77332     772.9434     494.3729   1415.77332     772.9434     494.3729
   1415.75806     771.6455     493.4785   1415.75806     771.6455     493.4785
   1415.74280     771.4624     493.3334   1415.74280     771.4624     493.3334
   1415.72754     768.5759     493.0014   1415.72754     768.5759     493.0014
   1415.71228     770.3655     492.7336   1415.71228     770.3655     492.7336
   1415.69702     769.1324     492.5879   1415.69702     769.1324     492.5879
   1415.68176     767.7808     491.4093   1415.68176     767.7808     491.4093
   1415.66650     767.3621     491.5310   1415.66650     767.3621     491.5310
   1415.65125     766.2498     490.8147   1415.65125     766.2498     490.8147
   1415.63599     765.8409     491.0239   1415.63599     765.8409     491.0239
   1415.62073     764.0104     489.3456   1415.62073     764.0104     489.3456
   1415.60547     763.0195     489.3103   1415.60547     763.0195     489.3103
   1415.59021     761.7629     488.6651   1415.59021     761.7629     488.6651
   1415.57495     762.1945     487.6734   1415.57495     762.1945     487.6734
   1415.55969     760.4073     487.5712   1415.55969     760.4073     487.5712
   1415.54443     760.5048     487.3216   1415.54443     760.5048     487.3216
   1415.52917     759.7375     486.7280   1415.52917     759.7375     486.7280
   1415.51392     760.1113     486.1727   1415.51392     760.1113     486.1727
   1415.49866     756.9531     485.1299   1415.49866     756.9531     485.1299
   1415.48340     756.2894     485.8611   1415.48340     756.2894     485.8611
   1415.46814     755.8865     485.1443   1415.46814     755.8865     485.1443
   1415.45288     755.5905     484.1845   1415.45288     755.5905     484.1845
   1415.43762     754.7998     483.7965   1415.43762     754.7998     483.7965
   1415.42236     752.2773     483.1049   1415.42236     752.2773     483.1049
   1415.40710     750.3658     482.0983   1415.40710     750.3658     482.0983
   1415.39185     749.9340     482.3274   1415.39185     749.9340     482.3274
   1415.37659     750.4672     481.3038   1415.37659     750.4672     481.3038
   1415.36133     747.6069     480.3555   1415.36133     747.6069     480.3555
   1415.34607     747.0779     480.2924   1415.34607     747.0779     480.2924
   1415.33081     745.7650     479.1956   1415.33081     745.7650     479.1956
   1415.31555     745.6706     479.4786   1415.31555     745.6706     479.4786
   1415.30029     744.3709     479.0220   1415.30029     744.3709     479.0220
   1415.28503     743.3535     477.4594   1415.28503     743.3535     477.4594
   1415.26978     741.0107     477.1942   1415.26978     741.0107     477.1942
   1415.25452     740.5287     476.9151   1415.25452     740.5287     476.9151
   1415.23926     739.2794     475.8433   1415.23926     739.2794     475.8433
   1415.22400     737.1832     474.7186   1415.22400     737.1832     474.7186
   1415.20874     736.3749     474.3284   1415.20874     736.3749     474.3284
   1415.19348     734.2478     473.7500   1415.19348     734.2478     473.7500
   1415.17822     734.9958     473.8203   1415.17822     734.9958     473.8203
   1415.16296     733.3253     472.2971   1415.16296     733.3253     472.2971
   1415.14771     731.1015     472.6619   1415.14771     731.1015     472.6619
   1415.13245     729.7889     471.6301   1415.13245     729.7889     471.6301
   1415.11719     728.0219     470.4910   1415.11719     728.0219     470.4910
   1415.10193     727.3824     469.8769   1415.10193     727.3824     469.8769
   1415.08667     725.4045     469.4126   1415.08667     725.4045     469.4126
   1415.07141     724.4048     467.4500   1415.07141     724.4048     467.4500
   1415.05615     722.3797     467.3205   1415.05615     722.3797     467.3205
   1415.04089     720.4446     466.6187   1415.04089     720.4446     466.6187
   1415.02563     719.3390     465.2655   1415.02563     719.3390     465.2655
   1415.01038     718.1921     464.6310   1415.01038     718.1921     464.6310
   1414.99512     717.5756     464.7463   1414.99512     717.5756     464.7463
   1414.97986     715.0569     463.2264   1414.97986     715.0569     463.2264
   1414.96460     712.7744     462.1028   1414.96460     712.7744     462.1028
   1414.94934     710.6263     461.2850   1414.94934     710.6263     461.2850
   1414.93408     710.4996     460.1537   1414.93408     710.4996     460.1537
   1414.91882     708.4189     459.2732   1414.91882     708.4189     459.2732
   1414.90356     706.2426     458.8256   1414.90356     706.2426     458.8256
   1414.88831     704.5508     457.7075   1414.88831     704.5508     457.7075
   1414.87305     703.1110     457.3937   1414.87305     703.1110     457.3937
   1414.85779     702.0963     456.6200   1414.85779     702.0963     456.6200
   1414.84253     699.8220     455.2968   1414.84253     699.8220     455.2968
   1414.82727     698.1275     453.6686   1414.82727     698.1275     453.6686
   1414.81201     697.1945     453.7635   1414.81201     697.1945     453.7635
   1414.79675     694.9977     452.1635   1414.79675     694.9977     452.1635
   1414.78149     691.9833     450.8371   1414.78149     691.9833     450.8371
   1414.76624     691.2869     451.0409   1414.76624     691.2869     451.0409
   1414.75098     689.2687     449.6658   1414.75098     689.2687     449.6658
   1414.73572     686.3329     448.6720   1414.73572     686.3329     448.6720
   1414.72046     685.7868     446.8473   1414.72046     685.7868     446.8473
   1414.70520     683.2740     446.3612   1414.70520     683.2740     446.3612
   1414.68994     680.3927     444.9402   1414.68994     680.3927     444.9402
   1414.67468     679.6749     444.4384   1414.67468     679.6749     444.4384
   1414.65942     676.6867     443.3773   1414.65942     676.6867     443.3773
   1414.64417     674.3058     441.6902   1414.64417     674.3058     441.6902
   1414.62891     672.3315     440.2953   1414.62891     672.3315     440.2953
   1414.61365     670.5535     439.3917   1414.61365     670.5535     439.3917
   1414.59839     669.0666     439.3212   1414.59839     669.0666     439.3212
   1414.58313     666.3552     436.6119   1414.58313     666.3552     436.6119
   1414.56787     665.3260     437.0725   1414.56787     665.3260     437.0725
   1414.55261     662.3311     435.1276   1414.55261     662.3311     435.1276
   1414.53735     660.1519     433.7204   1414.53735     660.1519     433.7204
   1414.52209     658.5731     432.5978   1414.52209     658.5731     432.5978
   1414.50684     656.2525     431.6473   1414.50684     656.2525     431.6473
   1414.49158     652.9091     430.0487   1414.49158     652.9091     430.0487
   1414.47632     650.8039     428.4961   1414.47632     650.8039     428.4961
   1414.46106     649.3201     428.0476   1414.46106     649.3201     428.0476
   1414.44580     648.1633     426.1415   1414.44580     648.1633     426.1415
   1414.43054     643.9459     425.5702   1414.43054     643.9459     425.5702
   1414.41528     641.6403     423.6357   1414.41528     641.6403     423.6357
   1414.40002     639.2091     422.0809   1414.40002     639.2091     422.0809
   1414.38477     637.3121     421.4235   1414.38477     637.3121     421.4235
   1414.36951     634.8246     419.1571   1414.36951     634.8246     419.1571
   1414.35425     631.7667     418.2629   1414.35425     631.7667     418.2629
   1414.33899     630.1454     416.1589   1414.33899     630.1454     416.1589
   1414.32373     626.9066     415.4835   1414.32373     626.9066     415.4835
   1414.30847     624.8803     414.7305   1414.30847     624.8803     414.7305
   1414.29321     622.2526     412.4041   1414.29321     622.2526     412.4041
   1414.27795     619.3453     411.7782   1414.27795     619.3453     411.7782
   1414.26270     617.7203     410.0582   1414.26270     617.7203     410.0582
   1414.24744     614.1816     407.9359   1414.24744     614.1816     407.9359
   1414.23218     611.7885     406.6153   1414.23218     611.7885     406.6153
   1414.21692     610.0366     406.1083   1414.21692     610.0366     406.1083
   1414.20166     606.7502     404.5879   1414.20166     606.7502     404.5879
   1414.18640     604.0494     402.8032   1414.18640     604.0494     402.8032
   1414.17114     601.5220     401.4744   1414.17114     601.5220     401.4744
   1414.15588     599.3179     399.9651   1414.15588     599.3179     399.9651
   1414.14062     596.3694     398.2548   1414.14062     596.3694     398.2548
   1414.12537     593.6556     396.4220   1414.12537     593.6556     396.4220
   1414.11011     591.4529     395.4722   1414.11011     591.4529     395.4722
   1414.09485     589.0281     393.5223   1414.09485     589.0281     393.5223
   1414.07959     585.6166     392.1141   1414.07959     585.6166     392.1141
   1414.06433     582.7039     390.3727   1414.06433     582.7039     390.3727
   1414.04907     579.9103     388.7948   1414.04907     579.9103     388.7948
   1414.03381     576.6794     387.6972   1414.03381     576.6794     387.6972
   1414.01855     574.8027     386.0670   1414.01855     574.8027     386.0670
   1414.00330     594.1105     391.1261   1414.00330     594.1105     391.1261
   1413.98804     570.0952     383.1830   1413.98804     570.0952     383.1830
   1413.97278     566.0017     381.0465   1413.97278     566.0017     381.0465
   1413.95752     563.3407     378.8934   1413.95752     563.3407     378.8934
   1413.94226     560.0509     378.2273   1413.94226     560.0509     378.2273
   1413.92700     557.5309     375.8778   1413.92700     557.5309     375.8778
   1413.91174     555.2823     374.4933   1413.91174     555.2823     374.4933
   1413.89648     551.1697     372.8573   1413.89648     551.1697     372.8573
   1413.88123     548.2959     371.9705   1413.88123     548.2959     371.9705
   1413.86597     546.0822     369.1900   1413.86597     546.0822     369.1900
   1413.85071     543.0253     367.5927   1413.85071     543.0253     367.5927
   1413.83545     539.4962     365.7968   1413.83545     539.4962     365.7968
   1413.82019     537.6948     364.8090   1413.82019     537.6948     364.8090
   1413.80493     534.1518     363.2429   1413.80493     534.1518     363.2429
   1413.78967     532.1550     361.5069   1413.78967     532.1550     361.5069
   1413.77441     528.7797     359.1780   1413.77441     528.7797     359.1780
   1413.75916     526.3222     357.9578   1413.75916     526.3222     357.9578
   1413.74390     522.2642     356.6592   1413.74390     522.2642     356.6592
   1413.72864     521.1311     354.6149   1413.72864     521.1311     354.6149
   1413.71338     517.1939     353.5085   1413.71338     517.1939     353.5085
   1413.69812     513.8939     350.8657   1413.69812     513.8939     350.8657
   1413.68286     511.0703     350.0841   1413.68286     511.0703     350.0841
   1413.66760     509.4488     348.0403   1413.66760     509.4488     348.0403
   1413.65234     506.1463     346.1285   1413.65234     506.1463     346.1285
   1413.63708     502.9376     344.2354   1413.63708     502.9376     344.2354
   1413.62183     499.7499     342.9691   1413.62183     499.7499     342.9691
   1413.60657     497.0622     341.1919   1413.60657     497.0622     341.1919
   1413.59131     494.7295     339.8820   1413.59131     494.7295     339.8820
   1413.57605     491.3382     337.9221   1413.57605     491.3382     337.9221
   1413.56079     488.2780     336.2618   1413.56079     488.2780     336.2618
   1413.54553     485.3032     334.9406   1413.54553     485.3032     334.9406
   1413.53027     482.1032     333.3962   1413.53027     482.1032     333.3962
   1413.51501     479.9408     331.1719   1413.51501     479.9408     331.1719
   1413.49976     477.7902     329.8719   1413.49976     477.7902     329.8719
   1413.48450     474.5190     328.0352   1413.48450     474.5190     328.0352
   1413.46924     472.5162     326.7932   1413.46924     472.5162     326.7932
   1413.45398     468.7432     325.0940   1413.45398     468.7432     325.0940
   1413.43872     466.4118     323.7700   1413.43872     466.4118     323.7700
   1413.42346     463.6401     321.9867   1413.42346     463.6401     321.9867
   1413.40820     460.7016     320.1792   1413.40820     460.7016     320.1792
   1413.39294     457.9035     318.5396   1413.39294     457.9035     318.5396
   1413.37769     455.8124     316.6446   1413.37769     455.8124     316.6446
   1413.36243     452.7943     315.4018   1413.36243     452.7943     315.4018
   1413.34717     449.9636     313.1701   1413.34717     449.9636     313.1701
   1413.33191     447.7233     311.8973   1413.33191     447.7233     311.8973
   1413.31665     444.1701     310.5346   1413.31665     444.1701     310.5346
   1413.30139     442.1950     309.1001   1413.30139     442.1950     309.1001
   1413.28613     439.2379     307.6058   1413.28613     439.2379     307.6058
   1413.27087     436.9439     305.9096   1413.27087     436.9439     305.9096
   1413.25562     434.5035     304.5218   1413.25562     434.5035     304.5218
   1413.24036     432.0960     303.0367   1413.24036     432.0960     303.0367
   1413.22510     429.1989     301.2703   1413.22510     429.1989     301.2703
   1413.20984     427.3742     300.3552   1413.20984     427.3742     300.3552
   1413.19458     424.3130     298.9103   1413.19458     424.3130     298.9103
   1413.17932     421.8247     297.4824   1413.17932     421.8247     297.4824
   1413.16406     419.9460     295.6999   1413.16406     419.9460     295.6999
   1413.14880     417.3390     294.7765   1413.14880     417.3390     294.7765
   1413.13354     415.1304     293.2573   1413.13354     415.1304     293.2573
   1413.11829     413.3279     291.7331   1413.11829     413.3279     291.7331
   1413.10303     411.1590     290.6053   1413.10303     411.1590     290.6053
   1413.08777     408.2066     289.4605   1413.08777     408.2066     289.4605
   1413.07251     406.6267     287.6017   1413.07251     406.6267     287.6017
   1413.05725     404.1783     286.3388   1413.05725     404.1783     286.3388
   1413.04199     402.0843     285.3744   1413.04199     402.0843     285.3744
   1413.02673     400.0685     283.9352   1413.02673     400.0685     283.9352
   1413.01147     397.6906     282.8331   1413.01147     397.6906     282.8331
   1412.99622     395.8153     282.0431   1412.99622     395.8153     282.0431
   1412.98096     393.5674     281.0335   1412.98096     393.5674     281.0335
   1412.96570     391.8223     279.0166   1412.96570     391.8223     279.0166
   1412.95044     390.5453     278.2444   1412.95044     390.5453     278.2444
   1412.93518     388.5155     277.1204   1412.93518     388.5155     277.1204
   1412.91992     386.5663     275.9095   1412.91992     386.5663     275.9095
   1412.90466     384.3777     274.8992   1412.90466     384.3777     274.8992
   1412.88940     383.1036     274.1894   1412.88940     383.1036     274.1894
   1412.87415     381.3762     272.3084   1412.87415     381.3762     272.3084
   1412.85889     379.5444     272.2337   1412.85889     379.5444     272.2337
   1412.84363     377.9122     270.7694   1412.84363     377.9122     270.7694
   1412.82837     376.4297     270.3141   1412.82837     376.4297     270.3141
   1412.81311     374.9978     269.5379   1412.81311     374.9978     269.5379
   1412.79785     373.6103     268.6259   1412.79785     373.6103     268.6259
   1412.78259     371.9542     267.4733   1412.78259     371.9542     267.4733
   1412.76733     371.1882     266.8615   1412.76733     371.1882     266.8615
   1412.75208     369.6174     265.8454   1412.75208     369.6174     265.8454
   1412.73682     368.4883     264.8084   1412.73682     368.4883     264.8084
   1412.72156     367.2299     264.6265   1412.72156     367.2299     264.6265
   1412.70630     365.7574     263.6440   1412.70630     365.7574     263.6440
   1412.69104     364.2112     263.2047   1412.69104     364.2112     263.2047
   1412.67578     363.6557     262.4193   1412.67578     363.6557     262.4193
   1412.66052     362.7016     262.1402   1412.66052     362.7016     262.1402
   1412.64526     361.3625     261.1862   1412.64526     361.3625     261.1862
   1412.63000     360.2458     261.0977   1412.63000     360.2458     261.0977
   1412.61475     359.6178     260.3774   1412.61475     359.6178     260.3774
   1412.59949     359.4046     259.4451   1412.59949     359.4046     259.4451
   1412.58423     357.6908     259.6765   1412.58423     357.6908     259.6765
   1412.56897     357.2207     259.1388   1412.56897     357.2207     259.1388
   1412.55371     356.5957     258.6193   1412.55371     356.5957     258.6193
   1412.53845     355.8404     258.6357   1412.53845     355.8404     258.6357
   1412.52319     355.2440     257.7484   1412.52319     355.2440     257.7484
   1412.50793     355.1115     258.2072   1412.50793     355.1115     258.2072
   1412.49268     354.6902     257.4888   1412.49268     354.6902     257.4888
   1412.47742     354.0045     257.4758   1412.47742     354.0045     257.4758
   1412.46216     353.3510     257.1873   1412.46216     353.3510     257.1873
   1412.44690     353.1227     256.7097   1412.44690     353.1227     256.7097
   1412.43164     352.8629     257.4407   1412.43164     352.8629     257.4407
   1412.41638     352.5915     257.3314   1412.41638     352.5915     257.3314
   1412.40112     352.7466     257.3625   1412.40112     352.7466     257.3625
   1412.38586     351.8683     257.1766   1412.38586     351.8683     257.1766
   1412.37061     352.4502     257.1915   1412.37061     352.4502     257.1915
   1412.35535     352.9106     257.6219   1412.35535     352.9106     257.6219
   1412.34009     352.9707     257.8841   1412.34009     352.9707     257.8841
   1412.32483     352.4773     258.1898   1412.32483     352.4773     258.1898
   1412.30957     352.4781     258.1873   1412.30957     352.4781     258.1873
   1412.29431     352.6842     258.1922   1412.29431     352.6842     258.1922
   1412.27905     353.3434     259.0545   1412.27905     353.3434     259.0545
   1412.26379     353.5875     259.2967   1412.26379     353.5875     259.2967
   1412.24854     354.1071     259.4212   1412.24854     354.1071     259.4212
   1412.23328     354.2783     260.4187   1412.23328     354.2783     260.4187
   1412.21802     354.5362     260.5153   1412.21802     354.5362     260.5153
   1412.20276     354.8866     261.0407   1412.20276     354.8866     261.0407