#     FILENAME=!Skynet_57528_lach-cc-84_20528_20930.cyb.fits
#     BASENAME=Skynet_57528_lach-cc-84_20528_20930
#     SRC_NAME=lach-cc-84
#     OBSERVER=ccmadison16_9505
#     DATE_OBS=2016-05-20T16:09:34.560
#        OBSID=20528
#      SCANNUM=20930
#          MJD=57528.6744
#          UTC=58264
#     SCANTYPE=track
#     DATAMODE=HIRES
#     TUNEFREQ=1420.0000
# Actual_FREQ1=1420.0000
# Actual_FREQ2=1420.0000
#    LO1Tuning=6870.000
#     RFFILTER=1355_1435
#        OBSBW=-15.6250
#        NCHAN=1024 
#        FOCUS=37.0709
#           RA=20:49:10.04
#          DEC=43:48:48.62
#      RA(hrs)=20.819500
#     DEC(deg)=43.813500
#    AZIM(deg)=306.011
#    ELEV(deg)=26.103
#     IFattens=11.00, 10.00
#      WARNING=None
#    TCAL_XL1=7.9635
#    TCAL_YR1=9.1340
#    TCAL_XL2=7.9635
#    TCAL_YR2=9.1340
#     TRX_XL1=11.7060
#     TRX_YR1=11.7060
#     TRX_XL2=11.7060
#     TRX_YR2=11.7060
#        TAVE=1.0000
#Freq1(MHz)          XL1          YR1  Freq2(MHz)          XL2          YR2 

   1427.81250     325.8767     270.5677   1427.81250     325.8767     270.5677
   1427.79724     326.0091     271.9773   1427.79724     326.0091     271.9773
   1427.78198     326.9264     271.8141   1427.78198     326.9264     271.8141
   1427.76672     327.8004     271.9651   1427.76672     327.8004     271.9651
   1427.75146     328.3664     273.0217   1427.75146     328.3664     273.0217
   1427.73621     329.5832     273.6886   1427.73621     329.5832     273.6886
   1427.72095     329.9109     274.3826   1427.72095     329.9109     274.3826
   1427.70569     330.4887     274.4891   1427.70569     330.4887     274.4891
   1427.69043     331.7293     275.8410   1427.69043     331.7293     275.8410
   1427.67517     332.6391     276.9858   1427.67517     332.6391     276.9858
   1427.65991     333.2575     277.5949   1427.65991     333.2575     277.5949
   1427.64465     334.9290     278.9309   1427.64465     334.9290     278.9309
   1427.62939     335.3789     279.4257   1427.62939     335.3789     279.4257
   1427.61414     336.7048     280.8367   1427.61414     336.7048     280.8367
   1427.59888     337.5842     281.8944   1427.59888     337.5842     281.8944
   1427.58362     338.3929     282.9893   1427.58362     338.3929     282.9893
   1427.56836     339.8655     283.7575   1427.56836     339.8655     283.7575
   1427.55310     341.0605     285.1423   1427.55310     341.0605     285.1423
   1427.53784     342.9875     286.0095   1427.53784     342.9875     286.0095
   1427.52258     344.5530     287.5885   1427.52258     344.5530     287.5885
   1427.50732     345.3156     289.1439   1427.50732     345.3156     289.1439
   1427.49207     346.4700     290.1351   1427.49207     346.4700     290.1351
   1427.47681     348.0782     291.8327   1427.47681     348.0782     291.8327
   1427.46155     350.0602     292.8116   1427.46155     350.0602     292.8116
   1427.44629     351.2871     293.9851   1427.44629     351.2871     293.9851
   1427.43103     353.4108     295.5977   1427.43103     353.4108     295.5977
   1427.41577     354.6467     297.2056   1427.41577     354.6467     297.2056
   1427.40051     356.6110     298.5106   1427.40051     356.6110     298.5106
   1427.38525     359.0190     300.5570   1427.38525     359.0190     300.5570
   1427.37000     360.4482     301.6993   1427.37000     360.4482     301.6993
   1427.35474     361.7743     303.7942   1427.35474     361.7743     303.7942
   1427.33948     363.1901     305.1263   1427.33948     363.1901     305.1263
   1427.32422     366.1324     306.9470   1427.32422     366.1324     306.9470
   1427.30896     367.9494     308.7700   1427.30896     367.9494     308.7700
   1427.29370     369.7436     309.6562   1427.29370     369.7436     309.6562
   1427.27844     371.4177     311.8373   1427.27844     371.4177     311.8373
   1427.26318     373.6901     313.6965   1427.26318     373.6901     313.6965
   1427.24792     375.1371     315.0941   1427.24792     375.1371     315.0941
   1427.23267     378.0588     317.6604   1427.23267     378.0588     317.6604
   1427.21741     379.4548     319.0450   1427.21741     379.4548     319.0450
   1427.20215     382.1675     320.7428   1427.20215     382.1675     320.7428
   1427.18689     383.8255     323.1816   1427.18689     383.8255     323.1816
   1427.17163     386.3191     324.9452   1427.17163     386.3191     324.9452
   1427.15637     388.6412     326.9922   1427.15637     388.6412     326.9922
   1427.14111     390.5629     329.1347   1427.14111     390.5629     329.1347
   1427.12585     392.5964     331.1675   1427.12585     392.5964     331.1675
   1427.11060     395.5168     332.2786   1427.11060     395.5168     332.2786
   1427.09534     397.6447     335.1773   1427.09534     397.6447     335.1773
   1427.08008     400.1056     336.9753   1427.08008     400.1056     336.9753
   1427.06482     402.2365     339.7230   1427.06482     402.2365     339.7230
   1427.04956     404.9645     341.6182   1427.04956     404.9645     341.6182
   1427.03430     406.8164     343.4921   1427.03430     406.8164     343.4921
   1427.01904     409.5846     345.5905   1427.01904     409.5846     345.5905
   1427.00378     411.5153     347.7892   1427.00378     411.5153     347.7892
   1426.98853     414.6602     349.5107   1426.98853     414.6602     349.5107
   1426.97327     417.0112     352.3667   1426.97327     417.0112     352.3667
   1426.95801     419.7378     353.8978   1426.95801     419.7378     353.8978
   1426.94275     422.4369     356.2944   1426.94275     422.4369     356.2944
   1426.92749     424.3438     358.8303   1426.92749     424.3438     358.8303
   1426.91223     427.5310     360.7071   1426.91223     427.5310     360.7071
   1426.89697     429.9543     362.7897   1426.89697     429.9543     362.7897
   1426.88171     432.5986     365.8331   1426.88171     432.5986     365.8331
   1426.86646     434.5473     367.7479   1426.86646     434.5473     367.7479
   1426.85120     436.1949     370.2730   1426.85120     436.1949     370.2730
   1426.83594     440.0458     372.2209   1426.83594     440.0458     372.2209
   1426.82068     443.0600     373.9726   1426.82068     443.0600     373.9726
   1426.80542     445.9636     376.5015   1426.80542     445.9636     376.5015
   1426.79016     447.3745     378.8449   1426.79016     447.3745     378.8449
   1426.77490     449.9592     381.2474   1426.77490     449.9592     381.2474
   1426.75964     453.5022     383.2922   1426.75964     453.5022     383.2922
   1426.74438     455.1545     385.1560   1426.74438     455.1545     385.1560
   1426.72913     458.3185     388.0364   1426.72913     458.3185     388.0364
   1426.71387     461.4648     390.4913   1426.71387     461.4648     390.4913
   1426.69861     463.7197     392.6550   1426.69861     463.7197     392.6550
   1426.68335     466.4367     394.8500   1426.68335     466.4367     394.8500
   1426.66809     468.9146     397.1356   1426.66809     468.9146     397.1356
   1426.65283     471.7473     399.5412   1426.65283     471.7473     399.5412
   1426.63757     473.9925     401.6479   1426.63757     473.9925     401.6479
   1426.62231     476.9572     404.7587   1426.62231     476.9572     404.7587
   1426.60706     480.1836     405.9051   1426.60706     480.1836     405.9051
   1426.59180     482.5389     407.8714   1426.59180     482.5389     407.8714
   1426.57654     485.5358     410.9147   1426.57654     485.5358     410.9147
   1426.56128     487.5674     412.9414   1426.56128     487.5674     412.9414
   1426.54602     489.6271     415.4048   1426.54602     489.6271     415.4048
   1426.53076     493.1289     417.8328   1426.53076     493.1289     417.8328
   1426.51550     496.0688     418.9153   1426.51550     496.0688     418.9153
   1426.50024     498.5756     421.5924   1426.50024     498.5756     421.5924
   1426.48499     501.3274     424.4838   1426.48499     501.3274     424.4838
   1426.46973     503.1620     425.8274   1426.46973     503.1620     425.8274
   1426.45447     505.5883     428.7766   1426.45447     505.5883     428.7766
   1426.43921     509.1625     430.2872   1426.43921     509.1625     430.2872
   1426.42395     510.6873     433.0784   1426.42395     510.6873     433.0784
   1426.40869     513.6022     435.2250   1426.40869     513.6022     435.2250
   1426.39343     515.8889     437.0037   1426.39343     515.8889     437.0037
   1426.37817     517.7635     438.6785   1426.37817     517.7635     438.6785
   1426.36292     520.8199     441.5949   1426.36292     520.8199     441.5949
   1426.34766     523.4308     444.3477   1426.34766     523.4308     444.3477
   1426.33240     526.2339     445.3615   1426.33240     526.2339     445.3615
   1426.31714     528.2728     447.6134   1426.31714     528.2728     447.6134
   1426.30188     532.0895     450.3219   1426.30188     532.0895     450.3219
   1426.28662     533.3742     451.8266   1426.28662     533.3742     451.8266
   1426.27136     536.5985     454.3122   1426.27136     536.5985     454.3122
   1426.25610     538.1156     455.7603   1426.25610     538.1156     455.7603
   1426.24084     540.6521     457.8977   1426.24084     540.6521     457.8977
   1426.22559     542.9955     460.2151   1426.22559     542.9955     460.2151
   1426.21033     545.8951     461.7422   1426.21033     545.8951     461.7422
   1426.19507     547.8150     463.7576   1426.19507     547.8150     463.7576
   1426.17981     550.5749     465.8095   1426.17981     550.5749     465.8095
   1426.16455     552.2057     468.0930   1426.16455     552.2057     468.0930
   1426.14929     555.0497     469.3724   1426.14929     555.0497     469.3724
   1426.13403     557.8687     471.1661   1426.13403     557.8687     471.1661
   1426.11877     558.9373     473.6274   1426.11877     558.9373     473.6274
   1426.10352     561.3133     475.4377   1426.10352     561.3133     475.4377
   1426.08826     563.3251     476.9389   1426.08826     563.3251     476.9389
   1426.07300     564.6513     478.6304   1426.07300     564.6513     478.6304
   1426.05774     567.3865     480.3951   1426.05774     567.3865     480.3951
   1426.04248     570.9332     482.2466   1426.04248     570.9332     482.2466
   1426.02722     571.2762     484.6587   1426.02722     571.2762     484.6587
   1426.01196     573.0484     485.4101   1426.01196     573.0484     485.4101
   1425.99670     575.6539     487.4972   1425.99670     575.6539     487.4972
   1425.98145     577.5509     488.9690   1425.98145     577.5509     488.9690
   1425.96619     579.5338     490.6796   1425.96619     579.5338     490.6796
   1425.95093     582.0525     493.5605   1425.95093     582.0525     493.5605
   1425.93567     585.2599     493.7324   1425.93567     585.2599     493.7324
   1425.92041     586.1275     496.3594   1425.92041     586.1275     496.3594
   1425.90515     588.1841     497.4145   1425.90515     588.1841     497.4145
   1425.88989     589.7968     499.8970   1425.88989     589.7968     499.8970
   1425.87463     591.8173     500.6071   1425.87463     591.8173     500.6071
   1425.85938     593.6485     502.2601   1425.85938     593.6485     502.2601
   1425.84412     595.6925     503.7125   1425.84412     595.6925     503.7125
   1425.82886     597.8583     506.1524   1425.82886     597.8583     506.1524
   1425.81360     599.4593     507.4903   1425.81360     599.4593     507.4903
   1425.79834     600.6368     508.5596   1425.79834     600.6368     508.5596
   1425.78308     602.5332     509.6542   1425.78308     602.5332     509.6542
   1425.76782     603.1248     510.8846   1425.76782     603.1248     510.8846
   1425.75256     605.2907     513.0309   1425.75256     605.2907     513.0309
   1425.73730     606.3374     515.1420   1425.73730     606.3374     515.1420
   1425.72205     608.7897     515.5585   1425.72205     608.7897     515.5585
   1425.70679     610.8456     517.6132   1425.70679     610.8456     517.6132
   1425.69153     611.5327     518.5866   1425.69153     611.5327     518.5866
   1425.67627     613.1725     520.0162   1425.67627     613.1725     520.0162
   1425.66101     614.7457     520.7456   1425.66101     614.7457     520.7456
   1425.64575     616.3722     523.1902   1425.64575     616.3722     523.1902
   1425.63049     618.0228     523.7728   1425.63049     618.0228     523.7728
   1425.61523     619.4656     524.9860   1425.61523     619.4656     524.9860
   1425.59998     620.8458     527.8963   1425.59998     620.8458     527.8963
   1425.58472     621.4750     528.7420   1425.58472     621.4750     528.7420
   1425.56946     623.1732     529.7562   1425.56946     623.1732     529.7562
   1425.55420     624.8215     530.7634   1425.55420     624.8215     530.7634
   1425.53894     626.4359     532.5288   1425.53894     626.4359     532.5288
   1425.52368     626.0853     533.3573   1425.52368     626.0853     533.3573
   1425.50842     627.4630     534.5446   1425.50842     627.4630     534.5446
   1425.49316     628.2161     536.4458   1425.49316     628.2161     536.4458
   1425.47791     631.5304     536.8622   1425.47791     631.5304     536.8622
   1425.46265     631.6962     538.2032   1425.46265     631.6962     538.2032
   1425.44739     632.8804     539.4600   1425.44739     632.8804     539.4600
   1425.43213     633.6238     540.2327   1425.43213     633.6238     540.2327
   1425.41687     635.7559     540.9998   1425.41687     635.7559     540.9998
   1425.40161     635.9312     542.9303   1425.40161     635.9312     542.9303
   1425.38635     636.2221     544.3773   1425.38635     636.2221     544.3773
   1425.37109     637.8038     544.9470   1425.37109     637.8038     544.9470
   1425.35583     638.6582     546.0635   1425.35583     638.6582     546.0635
   1425.34058     639.3211     547.8220   1425.34058     639.3211     547.8220
   1425.32532     640.9477     549.3671   1425.32532     640.9477     549.3671
   1425.31006     642.2410     549.0902   1425.31006     642.2410     549.0902
   1425.29480     642.4139     551.3159   1425.29480     642.4139     551.3159
   1425.27954     643.5406     551.2551   1425.27954     643.5406     551.2551
   1425.26428     644.0633     552.5052   1425.26428     644.0633     552.5052
   1425.24902     644.3566     553.4768   1425.24902     644.3566     553.4768
   1425.23376     645.5154     553.7141   1425.23376     645.5154     553.7141
   1425.21851     647.6539     554.3882   1425.21851     647.6539     554.3882
   1425.20325     647.4292     557.0025   1425.20325     647.4292     557.0025
   1425.18799     647.8585     557.0790   1425.18799     647.8585     557.0790
   1425.17273     647.6313     558.4784   1425.17273     647.6313     558.4784
   1425.15747     649.0562     559.2399   1425.15747     649.0562     559.2399
   1425.14221     649.8129     559.7331   1425.14221     649.8129     559.7331
   1425.12695     650.8152     561.4658   1425.12695     650.8152     561.4658
   1425.11169     651.4799     561.6836   1425.11169     651.4799     561.6836
   1425.09644     651.1462     562.9117   1425.09644     651.1462     562.9117
   1425.08118     652.1566     563.4832   1425.08118     652.1566     563.4832
   1425.06592     652.7863     564.7556   1425.06592     652.7863     564.7556
   1425.05066     653.8859     565.7401   1425.05066     653.8859     565.7401
   1425.03540     654.3713     566.8718   1425.03540     654.3713     566.8718
   1425.02014     654.1082     567.4050   1425.02014     654.1082     567.4050
   1425.00488     654.5879     568.7451   1425.00488     654.5879     568.7451
   1424.98962     655.4551     569.3577   1424.98962     655.4551     569.3577
   1424.97437     656.2358     569.8855   1424.97437     656.2358     569.8855
   1424.95911     656.5630     571.2916   1424.95911     656.5630     571.2916
   1424.94385     657.0110     571.3331   1424.94385     657.0110     571.3331
   1424.92859     657.7905     573.1102   1424.92859     657.7905     573.1102
   1424.91333     657.5460     573.1335   1424.91333     657.5460     573.1335
   1424.89807     658.9081     574.7253   1424.89807     658.9081     574.7253
   1424.88281     658.5618     574.9702   1424.88281     658.5618     574.9702
   1424.86755     659.0538     575.9813   1424.86755     659.0538     575.9813
   1424.85229     658.7489     576.5964   1424.85229     658.7489     576.5964
   1424.83704     659.2007     576.9022   1424.83704     659.2007     576.9022
   1424.82178     660.4847     576.5863   1424.82178     660.4847     576.5863
   1424.80652     659.6557     578.8519   1424.80652     659.6557     578.8519
   1424.79126     659.9824     578.9164   1424.79126     659.9824     578.9164
   1424.77600     659.6978     579.2222   1424.77600     659.6978     579.2222
   1424.76074     660.2600     580.5979   1424.76074     660.2600     580.5979
   1424.74548     661.2338     580.9972   1424.74548     661.2338     580.9972
   1424.73022     660.8273     581.2672   1424.73022     660.8273     581.2672
   1424.71497     661.1579     583.3418   1424.71497     661.1579     583.3418
   1424.69971     661.4313     583.8391   1424.69971     661.4313     583.8391
   1424.68445     661.1478     582.7692   1424.68445     661.1478     582.7692
   1424.66919     661.5760     584.7516   1424.66919     661.5760     584.7516
   1424.65393     661.7715     585.3347   1424.65393     661.7715     585.3347
   1424.63867     661.8712     585.5958   1424.63867     661.8712     585.5958
   1424.62341     661.8710     585.3373   1424.62341     661.8710     585.3373
   1424.60815     661.7529     587.3210   1424.60815     661.7529     587.3210
   1424.59290     661.3826     588.5487   1424.59290     661.3826     588.5487
   1424.57764     662.9361     588.2504   1424.57764     662.9361     588.2504
   1424.56238     661.6757     588.9735   1424.56238     661.6757     588.9735
   1424.54712     662.5811     589.5989   1424.54712     662.5811     589.5989
   1424.53186     662.3769     589.1257   1424.53186     662.3769     589.1257
   1424.51660     663.0974     590.5081   1424.51660     663.0974     590.5081
   1424.50134     662.3878     591.7590   1424.50134     662.3878     591.7590
   1424.48608     662.9054     590.6811   1424.48608     662.9054     590.6811
   1424.47083     663.0359     593.1951   1424.47083     663.0359     593.1951
   1424.45557     662.6555     593.4592   1424.45557     662.6555     593.4592
   1424.44031     663.3882     592.8402   1424.44031     663.3882     592.8402
   1424.42505     662.3799     593.3477   1424.42505     662.3799     593.3477
   1424.40979     662.2446     594.3293   1424.40979     662.2446     594.3293
   1424.39453     663.2274     595.8083   1424.39453     663.2274     595.8083
   1424.37927     662.4089     595.5259   1424.37927     662.4089     595.5259
   1424.36401     663.1829     596.1080   1424.36401     663.1829     596.1080
   1424.34875     663.2114     596.8022   1424.34875     663.2114     596.8022
   1424.33350     662.8027     596.9835   1424.33350     662.8027     596.9835
   1424.31824     663.4185     597.4617   1424.31824     663.4185     597.4617
   1424.30298     662.1826     598.3818   1424.30298     662.1826     598.3818
   1424.28772     662.3674     599.1275   1424.28772     662.3674     599.1275
   1424.27246     661.9473     599.6408   1424.27246     661.9473     599.6408
   1424.25720     662.0952     600.3126   1424.25720     662.0952     600.3126
   1424.24194     661.3052     600.3337   1424.24194     661.3052     600.3337
   1424.22668     661.6255     599.8373   1424.22668     661.6255     599.8373
   1424.21143     661.5135     600.1681   1424.21143     661.5135     600.1681
   1424.19617     661.1293     601.3947   1424.19617     661.1293     601.3947
   1424.18091     661.0094     600.9149   1424.18091     661.0094     600.9149
   1424.16565     661.6405     601.2223   1424.16565     661.6405     601.2223
   1424.15039     660.8099     602.9174   1424.15039     660.8099     602.9174
   1424.13513     662.3663     602.5505   1424.13513     662.3663     602.5505
   1424.11987     662.0193     603.7152   1424.11987     662.0193     603.7152
   1424.10461     661.3354     603.3364   1424.10461     661.3354     603.3364
   1424.08936     660.6093     603.8090   1424.08936     660.6093     603.8090
   1424.07410     661.5497     604.4450   1424.07410     661.5497     604.4450
   1424.05884     661.1173     606.0807   1424.05884     661.1173     606.0807
   1424.04358     660.8167     605.3193   1424.04358     660.8167     605.3193
   1424.02832     660.6710     606.8315   1424.02832     660.6710     606.8315
   1424.01306     660.2802     607.0988   1424.01306     660.2802     607.0988
   1423.99780     660.9470     605.5344   1423.99780     660.9470     605.5344
   1423.98254     660.6292     606.1041   1423.98254     660.6292     606.1041
   1423.96729     659.7472     607.9991   1423.96729     659.7472     607.9991
   1423.95203     659.4083     607.9992   1423.95203     659.4083     607.9992
   1423.93677     660.1876     607.7898   1423.93677     660.1876     607.7898
   1423.92151     659.2712     608.2404   1423.92151     659.2712     608.2404
   1423.90625     660.2286     608.4687   1423.90625     660.2286     608.4687
   1423.89099     659.3591     609.1141   1423.89099     659.3591     609.1141
   1423.87573     659.1750     609.2929   1423.87573     659.1750     609.2929
   1423.86047     659.2138     609.4266   1423.86047     659.2138     609.4266
   1423.84521     658.5888     609.0134   1423.84521     658.5888     609.0134
   1423.82996     659.4099     610.7090   1423.82996     659.4099     610.7090
   1423.81470     658.7068     609.6026   1423.81470     658.7068     609.6026
   1423.79944     659.0527     610.7249   1423.79944     659.0527     610.7249
   1423.78418     657.3585     609.8943   1423.78418     657.3585     609.8943
   1423.76892     657.0930     611.2280   1423.76892     657.0930     611.2280
   1423.75366     657.0670     611.3502   1423.75366     657.0670     611.3502
   1423.73840     657.8953     611.8010   1423.73840     657.8953     611.8010
   1423.72314     658.0616     611.6436   1423.72314     658.0616     611.6436
   1423.70789     656.9108     611.7122   1423.70789     656.9108     611.7122
   1423.69263     656.8417     613.0062   1423.69263     656.8417     613.0062
   1423.67737     656.0407     612.4702   1423.67737     656.0407     612.4702
   1423.66211     655.4583     611.9976   1423.66211     655.4583     611.9976
   1423.64685     656.7496     613.2173   1423.64685     656.7496     613.2173
   1423.63159     656.4130     612.9327   1423.63159     656.4130     612.9327
   1423.61633     657.3581     612.7109   1423.61633     657.3581     612.7109
   1423.60107     656.0098     612.6542   1423.60107     656.0098     612.6542
   1423.58582     655.8949     612.8101   1423.58582     655.8949     612.8101
   1423.57056     655.7628     613.2711   1423.57056     655.7628     613.2711
   1423.55530     655.5043     613.8826   1423.55530     655.5043     613.8826
   1423.54004     654.3447     612.8934   1423.54004     654.3447     612.8934
   1423.52478     654.9728     613.3473   1423.52478     654.9728     613.3473
   1423.50952     654.7307     612.7679   1423.50952     654.7307     612.7679
   1423.49426     655.5113     613.8251   1423.49426     655.5113     613.8251
   1423.47900     655.3245     614.2426   1423.47900     655.3245     614.2426
   1423.46375     654.6517     613.9734   1423.46375     654.6517     613.9734
   1423.44849     653.8384     614.2533   1423.44849     653.8384     614.2533
   1423.43323     654.4079     614.3116   1423.43323     654.4079     614.3116
   1423.41797     653.2773     613.9468   1423.41797     653.2773     613.9468
   1423.40271     654.3415     614.0135   1423.40271     654.3415     614.0135
   1423.38745     652.9764     614.5563   1423.38745     652.9764     614.5563
   1423.37219     654.4213     614.7282   1423.37219     654.4213     614.7282
   1423.35693     653.7289     614.1035   1423.35693     653.7289     614.1035
   1423.34167     653.1041     614.0384   1423.34167     653.1041     614.0384
   1423.32642     653.6843     614.0786   1423.32642     653.6843     614.0786
   1423.31116     652.5460     613.0384   1423.31116     652.5460     613.0384
   1423.29590     651.9109     612.7712   1423.29590     651.9109     612.7712
   1423.28064     651.3253     612.1784   1423.28064     651.3253     612.1784
   1423.26538     652.3835     612.2086   1423.26538     652.3835     612.2086
   1423.25012     652.0458     611.9695   1423.25012     652.0458     611.9695
   1423.23486     652.7007     612.4988   1423.23486     652.7007     612.4988
   1423.21960     652.6237     611.6075   1423.21960     652.6237     611.6075
   1423.20435     650.5515     611.9525   1423.20435     650.5515     611.9525
   1423.18909     651.7008     612.2720   1423.18909     651.7008     612.2720
   1423.17383     651.1403     611.0800   1423.17383     651.1403     611.0800
   1423.15857     651.6210     610.2914   1423.15857     651.6210     610.2914
   1423.14331     651.0768     610.7322   1423.14331     651.0768     610.7322
   1423.12805     650.6843     610.5704   1423.12805     650.6843     610.5704
   1423.11279     649.7612     610.8414   1423.11279     649.7612     610.8414
   1423.09753     650.1910     609.8495   1423.09753     650.1910     609.8495
   1423.08228     650.0825     609.6614   1423.08228     650.0825     609.6614
   1423.06702     649.7867     609.7117   1423.06702     649.7867     609.7117
   1423.05176     648.6263     608.4682   1423.05176     648.6263     608.4682
   1423.03650     650.7733     608.4540   1423.03650     650.7733     608.4540
   1423.02124     649.4604     608.5843   1423.02124     649.4604     608.5843
   1423.00598     649.9630     607.9785   1423.00598     649.9630     607.9785
   1422.99072     649.1580     607.4500   1422.99072     649.1580     607.4500
   1422.97546     647.9821     607.4711   1422.97546     647.9821     607.4711
   1422.96021     648.1426     607.1102   1422.96021     648.1426     607.1102
   1422.94495     648.0056     606.8397   1422.94495     648.0056     606.8397
   1422.92969     649.0835     606.0598   1422.92969     649.0835     606.0598
   1422.91443     646.9734     605.7456   1422.91443     646.9734     605.7456
   1422.89917     647.7067     604.8118   1422.89917     647.7067     604.8118
   1422.88391     648.2354     605.1157   1422.88391     648.2354     605.1157
   1422.86865     647.5663     603.0085   1422.86865     647.5663     603.0085
   1422.85339     646.1336     602.0038   1422.85339     646.1336     602.0038
   1422.83813     646.6989     602.5153   1422.83813     646.6989     602.5153
   1422.82288     646.8622     601.7629   1422.82288     646.8622     601.7629
   1422.80762     646.8794     601.0324   1422.80762     646.8794     601.0324
   1422.79236     646.1900     600.6674   1422.79236     646.1900     600.6674
   1422.77710     645.7683     599.3867   1422.77710     645.7683     599.3867
   1422.76184     646.7092     599.3645   1422.76184     646.7092     599.3645
   1422.74658     646.0096     599.2759   1422.74658     646.0096     599.2759
   1422.73132     645.8102     597.6547   1422.73132     645.8102     597.6547
   1422.71606     645.6710     597.1439   1422.71606     645.6710     597.1439
   1422.70081     645.5475     596.9722   1422.70081     645.5475     596.9722
   1422.68555     645.3669     596.3912   1422.68555     645.3669     596.3912
   1422.67029     644.6196     595.7993   1422.67029     644.6196     595.7993
   1422.65503     644.6169     594.3367   1422.65503     644.6169     594.3367
   1422.63977     644.8477     593.0193   1422.63977     644.8477     593.0193
   1422.62451     644.2785     591.9374   1422.62451     644.2785     591.9374
   1422.60925     643.6703     592.3558   1422.60925     643.6703     592.3558
   1422.59399     644.3811     591.1618   1422.59399     644.3811     591.1618
   1422.57874     642.7710     589.8305   1422.57874     642.7710     589.8305
   1422.56348     642.8576     590.3605   1422.56348     642.8576     590.3605
   1422.54822     643.2665     589.1491   1422.54822     643.2665     589.1491
   1422.53296     642.6582     587.6337   1422.53296     642.6582     587.6337
   1422.51770     642.5696     587.8513   1422.51770     642.5696     587.8513
   1422.50244     643.0281     585.9823   1422.50244     643.0281     585.9823
   1422.48718     642.0042     585.2062   1422.48718     642.0042     585.2062
   1422.47192     641.5970     584.1080   1422.47192     641.5970     584.1080
   1422.45667     641.9672     583.1680   1422.45667     641.9672     583.1680
   1422.44141     641.3664     582.4426   1422.44141     641.3664     582.4426
   1422.42615     640.7061     581.0643   1422.42615     640.7061     581.0643
   1422.41089     640.9604     580.8800   1422.41089     640.9604     580.8800
   1422.39563     640.6696     578.6903   1422.39563     640.6696     578.6903
   1422.38037     640.7995     578.1714   1422.38037     640.7995     578.1714
   1422.36511     640.0305     577.2886   1422.36511     640.0305     577.2886
   1422.34985     639.3036     575.9987   1422.34985     639.3036     575.9987
   1422.33459     639.7155     576.0992   1422.33459     639.7155     576.0992
   1422.31934     640.6114     574.2825   1422.31934     640.6114     574.2825
   1422.30408     639.9486     572.9399   1422.30408     639.9486     572.9399
   1422.28882     639.8413     571.9244   1422.28882     639.8413     571.9244
   1422.27356     640.2809     572.3480   1422.27356     640.2809     572.3480
   1422.25830     638.6524     570.4575   1422.25830     638.6524     570.4575
   1422.24304     639.1730     568.2206   1422.24304     639.1730     568.2206
   1422.22778     639.0336     567.8807   1422.22778     639.0336     567.8807
   1422.21252     638.7379     567.2693   1422.21252     638.7379     567.2693
   1422.19727     638.5009     564.8030   1422.19727     638.5009     564.8030
   1422.18201     638.3374     564.4348   1422.18201     638.3374     564.4348
   1422.16675     638.1938     563.4713   1422.16675     638.1938     563.4713
   1422.15149     637.8309     561.8555   1422.15149     637.8309     561.8555
   1422.13623     638.0319     561.3519   1422.13623     638.0319     561.3519
   1422.12097     637.7218     559.5284   1422.12097     637.7218     559.5284
   1422.10571     637.2644     558.0266   1422.10571     637.2644     558.0266
   1422.09045     636.9471     559.0185   1422.09045     636.9471     559.0185
   1422.07520     636.7362     556.2484   1422.07520     636.7362     556.2484
   1422.05994     636.4089     555.2520   1422.05994     636.4089     555.2520
   1422.04468     636.9639     553.9227   1422.04468     636.9639     553.9227
   1422.02942     635.7842     552.9118   1422.02942     635.7842     552.9118
   1422.01416     635.8624     552.0358   1422.01416     635.8624     552.0358
   1421.99890     636.1241     550.2966   1421.99890     636.1241     550.2966
   1421.98364     635.1998     549.2250   1421.98364     635.1998     549.2250
   1421.96838     635.3377     547.1716   1421.96838     635.3377     547.1716
   1421.95312     635.6242     546.4054   1421.95312     635.6242     546.4054
   1421.93787     634.8632     544.0700   1421.93787     634.8632     544.0700
   1421.92261     634.5069     543.2957   1421.92261     634.5069     543.2957
   1421.90735     634.7277     542.2945   1421.90735     634.7277     542.2945
   1421.89209     634.8956     540.7183   1421.89209     634.8956     540.7183
   1421.87683     634.6285     540.3210   1421.87683     634.6285     540.3210
   1421.86157     634.7469     539.6892   1421.86157     634.7469     539.6892
   1421.84631     634.5402     537.4561   1421.84631     634.5402     537.4561
   1421.83105     634.1288     536.6810   1421.83105     634.1288     536.6810
   1421.81580     634.4996     536.0426   1421.81580     634.4996     536.0426
   1421.80054     633.2808     534.4500   1421.80054     633.2808     534.4500
   1421.78528     633.2723     532.6295   1421.78528     633.2723     532.6295
   1421.77002     632.9648     532.0367   1421.77002     632.9648     532.0367
   1421.75476     632.3157     529.7158   1421.75476     632.3157     529.7158
   1421.73950     632.5140     528.2137   1421.73950     632.5140     528.2137
   1421.72424     632.5789     527.0634   1421.72424     632.5789     527.0634
   1421.70898     631.9551     526.3492   1421.70898     631.9551     526.3492
   1421.69373     632.9050     525.3125   1421.69373     632.9050     525.3125
   1421.67847     631.7090     523.7903   1421.67847     631.7090     523.7903
   1421.66321     632.5208     522.5371   1421.66321     632.5208     522.5371
   1421.64795     631.4382     520.6479   1421.64795     631.4382     520.6479
   1421.63269     630.8740     520.0108   1421.63269     630.8740     520.0108
   1421.61743     631.0991     518.1394   1421.61743     631.0991     518.1394
   1421.60217     630.7456     517.7462   1421.60217     630.7456     517.7462
   1421.58691     631.0626     515.8378   1421.58691     631.0626     515.8378
   1421.57166     630.5723     515.0433   1421.57166     630.5723     515.0433
   1421.55640     631.2366     514.3556   1421.55640     631.2366     514.3556
   1421.54114     630.5549     512.0469   1421.54114     630.5549     512.0469
   1421.52588     630.6771     511.0646   1421.52588     630.6771     511.0646
   1421.51062     629.8677     510.3141   1421.51062     629.8677     510.3141
   1421.49536     629.8018     508.0919   1421.49536     629.8018     508.0919
   1421.48010     630.6871     506.8259   1421.48010     630.6871     506.8259
   1421.46484     629.8648     505.3269   1421.46484     629.8648     505.3269
   1421.44958     629.6285     503.4846   1421.44958     629.6285     503.4846
   1421.43433     629.0293     503.0981   1421.43433     629.0293     503.0981
   1421.41907     629.7083     502.1098   1421.41907     629.7083     502.1098
   1421.40381     629.1844     501.0697   1421.40381     629.1844     501.0697
   1421.38855     629.3815     498.5362   1421.38855     629.3815     498.5362
   1421.37329     628.9427     498.0915   1421.37329     628.9427     498.0915
   1421.35803     629.0059     496.5644   1421.35803     629.0059     496.5644
   1421.34277     629.1714     495.8767   1421.34277     629.1714     495.8767
   1421.32751     628.9171     494.6404   1421.32751     628.9171     494.6404
   1421.31226     629.8392     493.1536   1421.31226     629.8392     493.1536
   1421.29700     628.8528     491.6776   1421.29700     628.8528     491.6776
   1421.28174     628.5644     491.2974   1421.28174     628.5644     491.2974
   1421.26648     629.0956     491.0835   1421.26648     629.0956     491.0835
   1421.25122     630.0279     489.8865   1421.25122     630.0279     489.8865
   1421.23596     632.2469     489.2931   1421.23596     632.2469     489.2931
   1421.22070     633.3217     489.8513   1421.22070     633.3217     489.8513
   1421.20544     637.2089     490.9102   1421.20544     637.2089     490.9102
   1421.19019     641.4325     493.0137   1421.19019     641.4325     493.0137
   1421.17493     643.2098     493.6469   1421.17493     643.2098     493.6469
   1421.15967     641.9472     491.9412   1421.15967     641.9472     491.9412
   1421.14441     640.9840     489.8365   1421.14441     640.9840     489.8365
   1421.12915     639.5663     486.6689   1421.12915     639.5663     486.6689
   1421.11389     638.5342     485.5625   1421.11389     638.5342     485.5625
   1421.09863     641.0626     484.3503   1421.09863     641.0626     484.3503
   1421.08337     641.6527     485.7615   1421.08337     641.6527     485.7615
   1421.06812     648.3188     489.5963   1421.06812     648.3188     489.5963
   1421.05286     657.0999     492.9766   1421.05286     657.0999     492.9766
   1421.03760     668.8226     502.6790   1421.03760     668.8226     502.6790
   1421.02234     688.3235     514.4172   1421.02234     688.3235     514.4172
   1421.00708     717.4672     534.4824   1421.00708     717.4672     534.4824
   1420.99182     753.2625     561.0079   1420.99182     753.2625     561.0079
   1420.97656     799.9823     592.6835   1420.97656     799.9823     592.6835
   1420.96130     850.3435     627.1624   1420.96130     850.3435     627.1624
   1420.94604     921.7751     675.2197   1420.94604     921.7751     675.2197
   1420.93079    1027.0438     747.4832   1420.93079    1027.0438     747.4832
   1420.91553    1153.2792     838.3809   1420.91553    1153.2792     838.3809
   1420.90027    1258.6055     910.3727   1420.90027    1258.6055     910.3727
   1420.88501    1246.2083     899.6232   1420.88501    1246.2083     899.6232
   1420.86975    1104.0004     795.6393   1420.86975    1104.0004     795.6393
   1420.85449     973.6714     703.1663   1420.85449     973.6714     703.1663
   1420.83923     925.0403     667.7462   1420.83923     925.0403     667.7462
   1420.82397     940.1281     676.0655   1420.82397     940.1281     676.0655
   1420.80872    1019.0553     729.7422   1420.80872    1019.0553     729.7422
   1420.79346    1219.6821     867.0626   1420.79346    1219.6821     867.0626
   1420.77820    1518.9911    1072.2206   1420.77820    1518.9911    1072.2206
   1420.76294    1701.9023    1194.4794   1420.76294    1701.9023    1194.4794
   1420.74768    1680.1896    1181.1359   1420.74768    1680.1896    1181.1359
   1420.73242    1554.7244    1092.1599   1420.73242    1554.7244    1092.1599
   1420.71716    1254.2493     882.9890   1420.71716    1254.2493     882.9890
   1420.70190     984.7953     697.3169   1420.70190     984.7953     697.3169
   1420.68665     855.0460     606.0411   1420.68665     855.0460     606.0411
   1420.67139     818.9367     578.7488   1420.67139     818.9367     578.7488
   1420.65613     866.6075     610.1546   1420.65613     866.6075     610.1546
   1420.64087    1060.5459     740.3440   1420.64087    1060.5459     740.3440
   1420.62561    1380.7408     955.3435   1420.62561    1380.7408     955.3435
   1420.61035    1610.4481    1109.4703   1420.61035    1610.4481    1109.4703
   1420.59509    1728.8662    1187.6173   1420.59509    1728.8662    1187.6173
   1420.57983    1766.4121    1214.9452   1420.57983    1766.4121    1214.9452
   1420.56458    1809.8827    1237.5675   1420.56458    1809.8827    1237.5675
   1420.54932    1846.5115    1259.2081   1420.54932    1846.5115    1259.2081
   1420.53406    1855.4336    1263.0790   1420.53406    1855.4336    1263.0790
   1420.51880    1831.4076    1243.6532   1420.51880    1831.4076    1243.6532
   1420.50354    1668.9058    1133.5798   1420.50354    1668.9058    1133.5798
   1420.48828    1370.4417     928.9874   1420.48828    1370.4417     928.9874
   1420.47302    1079.1588     735.7872   1420.47302    1079.1588     735.7872
   1420.45776     863.2240     589.7825   1420.45776     863.2240     589.7825
   1420.44250     734.4950     504.1849   1420.44250     734.4950     504.1849
   1420.42725     689.4651     471.5116   1420.42725     689.4651     471.5116
   1420.41199     676.5333     462.8733   1420.41199     676.5333     462.8733
   1420.39673     671.1214     459.1219   1420.39673     671.1214     459.1219
   1420.38147     663.2087     453.4073   1420.38147     663.2087     453.4073
   1420.36621     658.2675     448.0889   1420.36621     658.2675     448.0889
   1420.35095     652.1796     443.6200   1420.35095     652.1796     443.6200
   1420.33569     647.0170     438.9350   1420.33569     647.0170     438.9350
   1420.32043     642.7773     435.0904   1420.32043     642.7773     435.0904
   1420.30518     637.4797     430.5653   1420.30518     637.4797     430.5653
   1420.28992     634.1135     427.3516   1420.28992     634.1135     427.3516
   1420.27466     632.9340     425.4901   1420.27466     632.9340     425.4901
   1420.25940     631.4130     423.8209   1420.25940     631.4130     423.8209
   1420.24414     630.1191     423.7805   1420.24414     630.1191     423.7805
   1420.22888     628.8387     422.2448   1420.22888     628.8387     422.2448
   1420.21362     628.1304     420.7756   1420.21362     628.1304     420.7756
   1420.19836     625.8300     418.3737   1420.19836     625.8300     418.3737
   1420.18311     626.0024     417.0710   1420.18311     626.0024     417.0710
   1420.16785     624.6970     415.9761   1420.16785     624.6970     415.9761
   1420.15259     624.4125     415.0183   1420.15259     624.4125     415.0183
   1420.13733     624.2243     413.8813   1420.13733     624.2243     413.8813
   1420.12207     623.5598     413.4300   1420.12207     623.5598     413.4300
   1420.10681     623.4819     412.0781   1420.10681     623.4819     412.0781
   1420.09155     622.2805     411.4606   1420.09155     622.2805     411.4606
   1420.07629     621.4606     410.0871   1420.07629     621.4606     410.0871
   1420.06104     622.9420     409.7536   1420.06104     622.9420     409.7536
   1420.04578     621.4780     408.7256   1420.04578     621.4780     408.7256
   1420.03052     621.3390     409.1309   1420.03052     621.3390     409.1309
   1420.01526     622.7134     408.1742   1420.01526     622.7134     408.1742
   1420.00000     623.8231     408.5437   1420.00000     623.8231     408.5437
   1419.98474     624.9327     408.9131   1419.98474     624.9327     408.9131
   1419.96948     624.8512     407.0244   1419.96948     624.8512     407.0244
   1419.95422     622.6207     405.5885   1419.95422     622.6207     405.5885
   1419.93896     622.3474     404.3333   1419.93896     622.3474     404.3333
   1419.92371     623.2521     404.1473   1419.92371     623.2521     404.1473
   1419.90845     622.2441     403.6923   1419.90845     622.2441     403.6923
   1419.89319     623.7499     402.4160   1419.89319     623.7499     402.4160
   1419.87793     623.4224     402.2090   1419.87793     623.4224     402.2090
   1419.86267     622.7834     402.2833   1419.86267     622.7834     402.2833
   1419.84741     624.3106     401.8596   1419.84741     624.3106     401.8596
   1419.83215     623.7809     400.9978   1419.83215     623.7809     400.9978
   1419.81689     624.9633     400.8911   1419.81689     624.9633     400.8911
   1419.80164     624.8367     400.0237   1419.80164     624.8367     400.0237
   1419.78638     624.4911     400.2581   1419.78638     624.4911     400.2581
   1419.77112     625.0225     400.0207   1419.77112     625.0225     400.0207
   1419.75586     625.0557     399.1064   1419.75586     625.0557     399.1064
   1419.74060     625.2391     399.0790   1419.74060     625.2391     399.0790
   1419.72534     625.5972     398.5765   1419.72534     625.5972     398.5765
   1419.71008     626.2288     398.8286   1419.71008     626.2288     398.8286
   1419.69482     625.6142     397.7453   1419.69482     625.6142     397.7453
   1419.67957     627.6539     397.8404   1419.67957     627.6539     397.8404
   1419.66431     626.6136     397.2918   1419.66431     626.6136     397.2918
   1419.64905     626.9979     397.2183   1419.64905     626.9979     397.2183
   1419.63379     627.9717     396.4089   1419.63379     627.9717     396.4089
   1419.61853     628.6393     395.7230   1419.61853     628.6393     395.7230
   1419.60327     628.5525     396.3503   1419.60327     628.5525     396.3503
   1419.58801     628.6867     395.4529   1419.58801     628.6867     395.4529
   1419.57275     628.1877     395.5934   1419.57275     628.1877     395.5934
   1419.55750     629.5249     395.2146   1419.55750     629.5249     395.2146
   1419.54224     629.8699     395.3003   1419.54224     629.8699     395.3003
   1419.52698     630.9026     394.4689   1419.52698     630.9026     394.4689
   1419.51172     630.1738     394.6618   1419.51172     630.1738     394.6618
   1419.49646     630.9524     394.5737   1419.49646     630.9524     394.5737
   1419.48120     631.3141     394.6173   1419.48120     631.3141     394.6173
   1419.46594     631.7474     394.3066   1419.46594     631.7474     394.3066
   1419.45068     631.8249     394.2861   1419.45068     631.8249     394.2861
   1419.43542     632.6744     393.6684   1419.43542     632.6744     393.6684
   1419.42017     632.7140     393.5385   1419.42017     632.7140     393.5385
   1419.40491     633.7916     393.6458   1419.40491     633.7916     393.6458
   1419.38965     633.0958     392.9770   1419.38965     633.0958     392.9770
   1419.37439     634.3965     393.1758   1419.37439     634.3965     393.1758
   1419.35913     634.9218     393.4479   1419.35913     634.9218     393.4479
   1419.34387     634.3912     393.0771   1419.34387     634.3912     393.0771
   1419.32861     634.8035     393.1655   1419.32861     634.8035     393.1655
   1419.31335     634.8246     392.8615   1419.31335     634.8246     392.8615
   1419.29810     635.6478     393.2719   1419.29810     635.6478     393.2719
   1419.28284     635.5939     392.4772   1419.28284     635.5939     392.4772
   1419.26758     636.4515     393.0030   1419.26758     636.4515     393.0030
   1419.25232     637.1859     392.7535   1419.25232     637.1859     392.7535
   1419.23706     635.9791     392.9086   1419.23706     635.9791     392.9086
   1419.22180     637.3329     393.1762   1419.22180     637.3329     393.1762
   1419.20654     639.0122     392.5593   1419.20654     639.0122     392.5593
   1419.19128     638.9618     392.9030   1419.19128     638.9618     392.9030
   1419.17603     639.1937     393.0750   1419.17603     639.1937     393.0750
   1419.16077     640.0074     393.2751   1419.16077     640.0074     393.2751
   1419.14551     639.4980     393.1668   1419.14551     639.4980     393.1668
   1419.13025     640.2912     393.1599   1419.13025     640.2912     393.1599
   1419.11499     641.6843     393.3859   1419.11499     641.6843     393.3859
   1419.09973     641.4562     393.4979   1419.09973     641.4562     393.4979
   1419.08447     641.7279     393.4168   1419.08447     641.7279     393.4168
   1419.06921     642.4036     393.0639   1419.06921     642.4036     393.0639
   1419.05396     643.0623     393.5757   1419.05396     643.0623     393.5757
   1419.03870     642.6784     393.6536   1419.03870     642.6784     393.6536
   1419.02344     643.3067     394.1805   1419.02344     643.3067     394.1805
   1419.00818     644.5497     393.3283   1419.00818     644.5497     393.3283
   1418.99292     644.9385     393.8192   1418.99292     644.9385     393.8192
   1418.97766     645.0880     394.8037   1418.97766     645.0880     394.8037
   1418.96240     646.1583     394.3166   1418.96240     646.1583     394.3166
   1418.94714     647.5673     394.6115   1418.94714     647.5673     394.6115
   1418.93188     647.8233     394.1391   1418.93188     647.8233     394.1391
   1418.91663     647.5175     395.1090   1418.91663     647.5175     395.1090
   1418.90137     648.4643     394.7097   1418.90137     648.4643     394.7097
   1418.88611     648.8796     395.0919   1418.88611     648.8796     395.0919
   1418.87085     649.5025     395.8596   1418.87085     649.5025     395.8596
   1418.85559     648.7817     395.9623   1418.85559     648.7817     395.9623
   1418.84033     649.5290     395.9791   1418.84033     649.5290     395.9791
   1418.82507     651.1392     396.5618   1418.82507     651.1392     396.5618
   1418.80981     651.7463     396.9499   1418.80981     651.7463     396.9499
   1418.79456     651.9398     397.1744   1418.79456     651.9398     397.1744
   1418.77930     652.6347     397.7375   1418.77930     652.6347     397.7375
   1418.76404     653.2849     397.5591   1418.76404     653.2849     397.5591
   1418.74878     654.3502     397.1488   1418.74878     654.3502     397.1488
   1418.73352     654.6634     397.5121   1418.73352     654.6634     397.5121
   1418.71826     655.5642     398.4704   1418.71826     655.5642     398.4704
   1418.70300     655.8743     398.5060   1418.70300     655.8743     398.5060
   1418.68774     656.6907     399.0579   1418.68774     656.6907     399.0579
   1418.67249     657.2282     399.2057   1418.67249     657.2282     399.2057
   1418.65723     656.5908     399.2936   1418.65723     656.5908     399.2936
   1418.64197     658.3950     399.6411   1418.64197     658.3950     399.6411
   1418.62671     657.6468     399.7832   1418.62671     657.6468     399.7832
   1418.61145     659.5859     400.7061   1418.61145     659.5859     400.7061
   1418.59619     660.4622     400.0618   1418.59619     660.4622     400.0618
   1418.58093     661.0206     400.6326   1418.58093     661.0206     400.6326
   1418.56567     661.5054     401.2998   1418.56567     661.5054     401.2998
   1418.55042     662.3367     401.6086   1418.55042     662.3367     401.6086
   1418.53516     663.2861     402.7399   1418.53516     663.2861     402.7399
   1418.51990     664.4138     402.4821   1418.51990     664.4138     402.4821
   1418.50464     664.5604     404.1612   1418.50464     664.5604     404.1612
   1418.48938     664.9778     403.1030   1418.48938     664.9778     403.1030
   1418.47412     665.6880     404.0991   1418.47412     665.6880     404.0991
   1418.45886     666.8215     404.2348   1418.45886     666.8215     404.2348
   1418.44360     666.6364     404.6068   1418.44360     666.6364     404.6068
   1418.42834     668.1944     405.5205   1418.42834     668.1944     405.5205
   1418.41309     668.3229     405.1095   1418.41309     668.3229     405.1095
   1418.39783     668.6451     405.8194   1418.39783     668.6451     405.8194
   1418.38257     669.1393     406.5852   1418.38257     669.1393     406.5852
   1418.36731     670.5456     406.5951   1418.36731     670.5456     406.5951
   1418.35205     671.6211     407.3953   1418.35205     671.6211     407.3953
   1418.33679     673.1343     407.2946   1418.33679     673.1343     407.2946
   1418.32153     672.2521     407.9211   1418.32153     672.2521     407.9211
   1418.30627     673.1744     409.0578   1418.30627     673.1744     409.0578
   1418.29102     674.2234     409.1264   1418.29102     674.2234     409.1264
   1418.27576     674.9132     409.6332   1418.27576     674.9132     409.6332
   1418.26050     675.3794     410.2026   1418.26050     675.3794     410.2026
   1418.24524     676.6186     410.8250   1418.24524     676.6186     410.8250
   1418.22998     676.6699     411.0766   1418.22998     676.6699     411.0766
   1418.21472     677.6257     411.3290   1418.21472     677.6257     411.3290
   1418.19946     679.6412     412.3376   1418.19946     679.6412     412.3376
   1418.18420     679.0742     413.1363   1418.18420     679.0742     413.1363
   1418.16895     680.2840     413.0949   1418.16895     680.2840     413.0949
   1418.15369     680.9333     414.0603   1418.15369     680.9333     414.0603
   1418.13843     682.9451     414.2959   1418.13843     682.9451     414.2959
   1418.12317     683.0855     414.7191   1418.12317     683.0855     414.7191
   1418.10791     682.9885     415.4482   1418.10791     682.9885     415.4482
   1418.09265     684.5389     416.5133   1418.09265     684.5389     416.5133
   1418.07739     684.0754     416.4890   1418.07739     684.0754     416.4890
   1418.06213     686.0993     416.7221   1418.06213     686.0993     416.7221
   1418.04688     686.3816     417.4780   1418.04688     686.3816     417.4780
   1418.03162     687.2751     418.5399   1418.03162     687.2751     418.5399
   1418.01636     688.1500     418.3684   1418.01636     688.1500     418.3684
   1418.00110     688.6308     419.0726   1418.00110     688.6308     419.0726
   1417.98584     689.1792     419.7079   1417.98584     689.1792     419.7079
   1417.97058     691.8713     420.7852   1417.97058     691.8713     420.7852
   1417.95532     691.9219     421.0372   1417.95532     691.9219     421.0372
   1417.94006     692.8339     422.3557   1417.94006     692.8339     422.3557
   1417.92480     693.2392     422.7449   1417.92480     693.2392     422.7449
   1417.90955     693.9306     422.3340   1417.90955     693.9306     422.3340
   1417.89429     696.0090     424.2409   1417.89429     696.0090     424.2409
   1417.87903     695.6148     424.2565   1417.87903     695.6148     424.2565
   1417.86377     696.6071     424.7319   1417.86377     696.6071     424.7319
   1417.84851     697.2828     425.9821   1417.84851     697.2828     425.9821
   1417.83325     698.7432     426.2554   1417.83325     698.7432     426.2554
   1417.81799     698.4261     426.6038   1417.81799     698.4261     426.6038
   1417.80273     699.3329     427.0859   1417.80273     699.3329     427.0859
   1417.78748     701.6328     428.0127   1417.78748     701.6328     428.0127
   1417.77222     700.9579     428.1501   1417.77222     700.9579     428.1501
   1417.75696     702.5674     429.1007   1417.75696     702.5674     429.1007
   1417.74170     703.2689     429.2894   1417.74170     703.2689     429.2894
   1417.72644     704.5967     429.9134   1417.72644     704.5967     429.9134
   1417.71118     705.0508     430.8333   1417.71118     705.0508     430.8333
   1417.69592     705.8651     431.4974   1417.69592     705.8651     431.4974
   1417.68066     706.6207     431.3744   1417.68066     706.6207     431.3744
   1417.66541     708.3058     432.3877   1417.66541     708.3058     432.3877
   1417.65015     709.8218     433.2322   1417.65015     709.8218     433.2322
   1417.63489     708.9233     433.3533   1417.63489     708.9233     433.3533
   1417.61963     709.9138     433.6399   1417.61963     709.9138     433.6399
   1417.60437     711.0973     435.1602   1417.60437     711.0973     435.1602
   1417.58911     712.5228     435.8053   1417.58911     712.5228     435.8053
   1417.57385     713.4408     435.5937   1417.57385     713.4408     435.5937
   1417.55859     712.6549     437.1373   1417.55859     712.6549     437.1373
   1417.54333     715.9822     437.5276   1417.54333     715.9822     437.5276
   1417.52808     715.5902     438.0609   1417.52808     715.5902     438.0609
   1417.51282     716.8101     439.0019   1417.51282     716.8101     439.0019
   1417.49756     716.9573     439.4657   1417.49756     716.9573     439.4657
   1417.48230     717.8332     440.2880   1417.48230     717.8332     440.2880
   1417.46704     718.4351     441.0113   1417.46704     718.4351     441.0113
   1417.45178     719.3539     440.8894   1417.45178     719.3539     440.8894
   1417.43652     719.7343     442.5798   1417.43652     719.7343     442.5798
   1417.42126     722.3414     442.4548   1417.42126     722.3414     442.4548
   1417.40601     721.2404     442.8074   1417.40601     721.2404     442.8074
   1417.39075     722.7736     443.6427   1417.39075     722.7736     443.6427
   1417.37549     723.7180     444.7673   1417.37549     723.7180     444.7673
   1417.36023     724.9187     444.4289   1417.36023     724.9187     444.4289
   1417.34497     725.4415     446.6851   1417.34497     725.4415     446.6851
   1417.32971     724.9750     445.3601   1417.32971     724.9750     445.3601
   1417.31445     727.1109     446.4832   1417.31445     727.1109     446.4832
   1417.29919     728.4517     446.2636   1417.29919     728.4517     446.2636
   1417.28394     728.6036     448.2284   1417.28394     728.6036     448.2284
   1417.26868     729.3248     447.9118   1417.26868     729.3248     447.9118
   1417.25342     730.0317     448.7831   1417.25342     730.0317     448.7831
   1417.23816     731.3095     450.0223   1417.23816     731.3095     450.0223
   1417.22290     733.7750     450.8356   1417.22290     733.7750     450.8356
   1417.20764     732.1027     450.9037   1417.20764     732.1027     450.9037
   1417.19238     733.2458     451.3179   1417.19238     733.2458     451.3179
   1417.17712     734.0117     451.8893   1417.17712     734.0117     451.8893
   1417.16187     734.6230     451.6552   1417.16187     734.6230     451.6552
   1417.14661     735.7321     452.2547   1417.14661     735.7321     452.2547
   1417.13135     736.3266     453.3596   1417.13135     736.3266     453.3596
   1417.11609     736.2626     454.1688   1417.11609     736.2626     454.1688
   1417.10083     737.9907     454.2079   1417.10083     737.9907     454.2079
   1417.08557     737.3322     454.7835   1417.08557     737.3322     454.7835
   1417.07031     738.7151     455.2050   1417.07031     738.7151     455.2050
   1417.05505     740.0578     456.4027   1417.05505     740.0578     456.4027
   1417.03979     740.1132     457.1785   1417.03979     740.1132     457.1785
   1417.02454     740.8157     457.0756   1417.02454     740.8157     457.0756
   1417.00928     741.0454     457.5564   1417.00928     741.0454     457.5564
   1416.99402     742.6041     458.0651   1416.99402     742.6041     458.0651
   1416.97876     742.9210     458.6969   1416.97876     742.9210     458.6969
   1416.96350     744.5553     458.6000   1416.96350     744.5553     458.6000
   1416.94824     744.6615     459.2680   1416.94824     744.6615     459.2680
   1416.93298     744.9229     459.5641   1416.93298     744.9229     459.5641
   1416.91772     744.6497     460.7177   1416.91772     744.6497     460.7177
   1416.90247     745.7107     460.9740   1416.90247     745.7107     460.9740
   1416.88721     745.4151     461.4691   1416.88721     745.4151     461.4691
   1416.87195     745.6039     461.5326   1416.87195     745.6039     461.5326
   1416.85669     746.3051     462.1929   1416.85669     746.3051     462.1929
   1416.84143     746.8020     462.5944   1416.84143     746.8020     462.5944
   1416.82617     747.8552     463.5067   1416.82617     747.8552     463.5067
   1416.81091     748.3207     462.8403   1416.81091     748.3207     462.8403
   1416.79565     748.4700     462.9830   1416.79565     748.4700     462.9830
   1416.78040     749.2554     464.2553   1416.78040     749.2554     464.2553
   1416.76514     748.7325     463.8229   1416.76514     748.7325     463.8229
   1416.74988     749.6459     464.8314   1416.74988     749.6459     464.8314
   1416.73462     749.8162     464.9018   1416.73462     749.8162     464.9018
   1416.71936     750.7570     465.5133   1416.71936     750.7570     465.5133
   1416.70410     750.8911     465.9111   1416.70410     750.8911     465.9111
   1416.68884     751.5711     466.3552   1416.68884     751.5711     466.3552
   1416.67358     750.6170     466.3733   1416.67358     750.6170     466.3733
   1416.65833     750.6664     466.7498   1416.65833     750.6664     466.7498
   1416.64307     750.7336     466.3922   1416.64307     750.7336     466.3922
   1416.62781     750.9980     467.0804   1416.62781     750.9980     467.0804
   1416.61255     750.9251     466.9082   1416.61255     750.9251     466.9082
   1416.59729     751.7692     467.2837   1416.59729     751.7692     467.2837
   1416.58203     752.7945     467.3283   1416.58203     752.7945     467.3283
   1416.56677     753.4592     467.3608   1416.56677     753.4592     467.3608
   1416.55151     752.9731     468.3280   1416.55151     752.9731     468.3280
   1416.53625     752.0319     468.5007   1416.53625     752.0319     468.5007
   1416.52100     752.6715     468.4911   1416.52100     752.6715     468.4911
   1416.50574     753.3790     468.5460   1416.50574     753.3790     468.5460
   1416.49048     752.0941     468.7817   1416.49048     752.0941     468.7817
   1416.47522     752.7347     469.4463   1416.47522     752.7347     469.4463
   1416.45996     752.8369     468.7796   1416.45996     752.8369     468.7796
   1416.44470     752.8623     468.8577   1416.44470     752.8623     468.8577
   1416.42944     751.9146     469.4610   1416.42944     751.9146     469.4610
   1416.41418     752.1831     468.4171   1416.41418     752.1831     468.4171
   1416.39893     752.3404     468.9924   1416.39893     752.3404     468.9924
   1416.38367     752.7263     469.3939   1416.38367     752.7263     469.3939
   1416.36841     752.5986     469.7618   1416.36841     752.5986     469.7618
   1416.35315     752.3911     469.7036   1416.35315     752.3911     469.7036
   1416.33789     752.2750     469.5741   1416.33789     752.2750     469.5741
   1416.32263     751.9352     469.8122   1416.32263     751.9352     469.8122
   1416.30737     752.7292     469.1653   1416.30737     752.7292     469.1653
   1416.29211     750.5886     469.3175   1416.29211     750.5886     469.3175
   1416.27686     752.1708     468.9223   1416.27686     752.1708     468.9223
   1416.26160     750.8577     469.7515   1416.26160     750.8577     469.7515
   1416.24634     749.8721     469.3134   1416.24634     749.8721     469.3134
   1416.23108     751.2228     469.6422   1416.23108     751.2228     469.6422
   1416.21582     750.5980     469.2223   1416.21582     750.5980     469.2223
   1416.20056     750.5245     469.0347   1416.20056     750.5245     469.0347
   1416.18530     749.6282     469.9156   1416.18530     749.6282     469.9156
   1416.17004     748.7775     469.0079   1416.17004     748.7775     469.0079
   1416.15479     748.7857     468.6943   1416.15479     748.7857     468.6943
   1416.13953     748.4819     468.7496   1416.13953     748.4819     468.7496
   1416.12427     748.0869     468.5055   1416.12427     748.0869     468.5055
   1416.10901     747.0837     469.0259   1416.10901     747.0837     469.0259
   1416.09375     747.4839     469.4034   1416.09375     747.4839     469.4034
   1416.07849     747.0194     468.7680   1416.07849     747.0194     468.7680
   1416.06323     746.9227     468.2711   1416.06323     746.9227     468.2711
   1416.04797     745.7595     468.4090   1416.04797     745.7595     468.4090
   1416.03271     747.1573     468.8349   1416.03271     747.1573     468.8349
   1416.01746     746.0874     468.5037   1416.01746     746.0874     468.5037
   1416.00220     744.5051     467.6664   1416.00220     744.5051     467.6664
   1415.98694     745.3979     467.8178   1415.98694     745.3979     467.8178
   1415.97168     745.1494     468.0662   1415.97168     745.1494     468.0662
   1415.95642     742.8989     467.6120   1415.95642     742.8989     467.6120
   1415.94116     743.3978     467.0872   1415.94116     743.3978     467.0872
   1415.92590     742.2802     467.4660   1415.92590     742.2802     467.4660
   1415.91064     743.7204     467.2550   1415.91064     743.7204     467.2550
   1415.89539     740.5116     466.9449   1415.89539     740.5116     466.9449
   1415.88013     742.0202     466.6662   1415.88013     742.0202     466.6662
   1415.86487     739.7188     466.0414   1415.86487     739.7188     466.0414
   1415.84961     739.8651     466.3017   1415.84961     739.8651     466.3017
   1415.83435     739.0034     466.1984   1415.83435     739.0034     466.1984
   1415.81909     738.5872     466.2988   1415.81909     738.5872     466.2988
   1415.80383     738.2523     465.7380   1415.80383     738.2523     465.7380
   1415.78857     737.2187     465.8559   1415.78857     737.2187     465.8559
   1415.77332     737.2944     465.3417   1415.77332     737.2944     465.3417
   1415.75806     736.9179     464.8176   1415.75806     736.9179     464.8176
   1415.74280     735.1378     465.3092   1415.74280     735.1378     465.3092
   1415.72754     734.2806     465.1672   1415.72754     734.2806     465.1672
   1415.71228     733.8995     465.1385   1415.71228     733.8995     465.1385
   1415.69702     734.0262     464.4890   1415.69702     734.0262     464.4890
   1415.68176     731.3898     463.9673   1415.68176     731.3898     463.9673
   1415.66650     732.8074     463.1291   1415.66650     732.8074     463.1291
   1415.65125     730.0993     463.1933   1415.65125     730.0993     463.1933
   1415.63599     731.5715     463.6897   1415.63599     731.5715     463.6897
   1415.62073     730.1801     463.0598   1415.62073     730.1801     463.0598
   1415.60547     728.2559     462.2624   1415.60547     728.2559     462.2624
   1415.59021     727.5903     462.5512   1415.59021     727.5903     462.5512
   1415.57495     728.2711     462.6890   1415.57495     728.2711     462.6890
   1415.55969     725.3901     461.2969   1415.55969     725.3901     461.2969
   1415.54443     725.8108     461.2894   1415.54443     725.8108     461.2894
   1415.52917     724.2109     461.8289   1415.52917     724.2109     461.8289
   1415.51392     723.6981     460.9858   1415.51392     723.6981     460.9858
   1415.49866     722.9337     460.7789   1415.49866     722.9337     460.7789
   1415.48340     723.5503     460.9215   1415.48340     723.5503     460.9215
   1415.46814     720.7805     460.4314   1415.46814     720.7805     460.4314
   1415.45288     720.8851     460.8631   1415.45288     720.8851     460.8631
   1415.43762     719.1013     459.6420   1415.43762     719.1013     459.6420
   1415.42236     716.9962     459.3323   1415.42236     716.9962     459.3323
   1415.40710     718.2600     459.4053   1415.40710     718.2600     459.4053
   1415.39185     715.5206     459.1268   1415.39185     715.5206     459.1268
   1415.37659     716.3450     458.0940   1415.37659     716.3450     458.0940
   1415.36133     713.9039     457.9181   1415.36133     713.9039     457.9181
   1415.34607     713.4138     456.8526   1415.34607     713.4138     456.8526
   1415.33081     711.1766     456.9668   1415.33081     711.1766     456.9668
   1415.31555     712.0008     456.6133   1415.31555     712.0008     456.6133
   1415.30029     710.2487     456.7696   1415.30029     710.2487     456.7696
   1415.28503     709.2368     455.9510   1415.28503     709.2368     455.9510
   1415.26978     708.8074     455.9292   1415.26978     708.8074     455.9292
   1415.25452     706.9290     455.4278   1415.25452     706.9290     455.4278
   1415.23926     704.9656     454.6525   1415.23926     704.9656     454.6525
   1415.22400     704.0680     454.5508   1415.22400     704.0680     454.5508
   1415.20874     703.5787     454.1660   1415.20874     703.5787     454.1660
   1415.19348     701.8068     453.5545   1415.19348     701.8068     453.5545
   1415.17822     702.3245     453.9763   1415.17822     702.3245     453.9763
   1415.16296     699.5262     453.4814   1415.16296     699.5262     453.4814
   1415.14771     697.3181     452.1979   1415.14771     697.3181     452.1979
   1415.13245     697.4152     451.9558   1415.13245     697.4152     451.9558
   1415.11719     694.6705     451.3307   1415.11719     694.6705     451.3307
   1415.10193     693.4038     451.1874   1415.10193     693.4038     451.1874
   1415.08667     692.1047     450.7066   1415.08667     692.1047     450.7066
   1415.07141     690.6952     450.6031   1415.07141     690.6952     450.6031
   1415.05615     689.2683     449.1705   1415.05615     689.2683     449.1705
   1415.04089     688.7729     449.0737   1415.04089     688.7729     449.0737
   1415.02563     686.5345     448.8538   1415.02563     686.5345     448.8538
   1415.01038     685.3030     448.0850   1415.01038     685.3030     448.0850
   1414.99512     683.1345     447.8989   1414.99512     683.1345     447.8989
   1414.97986     683.9922     446.9055   1414.97986     683.9922     446.9055
   1414.96460     681.5920     446.0318   1414.96460     681.5920     446.0318
   1414.94934     679.2426     445.5853   1414.94934     679.2426     445.5853
   1414.93408     677.4919     445.8327   1414.93408     677.4919     445.8327
   1414.91882     675.7387     444.3621   1414.91882     675.7387     444.3621
   1414.90356     674.7925     444.2796   1414.90356     674.7925     444.2796
   1414.88831     673.3833     443.7375   1414.88831     673.3833     443.7375
   1414.87305     670.9902     442.6868   1414.87305     670.9902     442.6868
   1414.85779     670.4659     442.4157   1414.85779     670.4659     442.4157
   1414.84253     667.3064     441.5045   1414.84253     667.3064     441.5045
   1414.82727     665.7879     441.8577   1414.82727     665.7879     441.8577
   1414.81201     663.7908     440.0020   1414.81201     663.7908     440.0020
   1414.79675     663.4352     439.5055   1414.79675     663.4352     439.5055
   1414.78149     659.3940     439.1795   1414.78149     659.3940     439.1795
   1414.76624     658.8015     438.3191   1414.76624     658.8015     438.3191
   1414.75098     657.8210     437.6648   1414.75098     657.8210     437.6648
   1414.73572     654.9049     436.3564   1414.73572     654.9049     436.3564
   1414.72046     652.8265     435.9359   1414.72046     652.8265     435.9359
   1414.70520     651.1294     435.0745   1414.70520     651.1294     435.0745
   1414.68994     649.1649     434.2856   1414.68994     649.1649     434.2856
   1414.67468     647.5805     433.6232   1414.67468     647.5805     433.6232
   1414.65942     645.3665     433.5357   1414.65942     645.3665     433.5357
   1414.64417     643.8824     431.7535   1414.64417     643.8824     431.7535
   1414.62891     641.1211     431.6936   1414.62891     641.1211     431.6936
   1414.61365     639.6174     430.7107   1414.61365     639.6174     430.7107
   1414.59839     636.4130     429.8088   1414.59839     636.4130     429.8088
   1414.58313     635.1782     428.6765   1414.58313     635.1782     428.6765
   1414.56787     632.7865     427.8625   1414.56787     632.7865     427.8625
   1414.55261     630.8557     427.5316   1414.55261     630.8557     427.5316
   1414.53735     628.8210     425.8462   1414.53735     628.8210     425.8462
   1414.52209     626.4865     425.5821   1414.52209     626.4865     425.5821
   1414.50684     623.4719     424.6556   1414.50684     623.4719     424.6556
   1414.49158     621.5650     423.4250   1414.49158     621.5650     423.4250
   1414.47632     619.6807     422.1901   1414.47632     619.6807     422.1901
   1414.46106     617.7991     422.2185   1414.46106     617.7991     422.2185
   1414.44580     615.4739     421.0407   1414.44580     615.4739     421.0407
   1414.43054     612.0766     419.9385   1414.43054     612.0766     419.9385
   1414.41528     610.2803     419.2565   1414.41528     610.2803     419.2565
   1414.40002     608.8835     417.9670   1414.40002     608.8835     417.9670
   1414.38477     605.8682     417.3752   1414.38477     605.8682     417.3752
   1414.36951     604.9586     415.4387   1414.36951     604.9586     415.4387
   1414.35425     600.5684     414.7745   1414.35425     600.5684     414.7745
   1414.33899     598.8174     414.2877   1414.33899     598.8174     414.2877
   1414.32373     596.3293     412.7392   1414.32373     596.3293     412.7392
   1414.30847     593.1686     411.6670   1414.30847     593.1686     411.6670
   1414.29321     591.5248     409.9487   1414.29321     591.5248     409.9487
   1414.27795     587.8818     409.5275   1414.27795     587.8818     409.5275
   1414.26270     586.0031     408.3201   1414.26270     586.0031     408.3201
   1414.24744     584.3359     407.0631   1414.24744     584.3359     407.0631
   1414.23218     581.1917     405.4060   1414.23218     581.1917     405.4060
   1414.21692     578.2233     404.9293   1414.21692     578.2233     404.9293
   1414.20166     575.5345     403.4576   1414.20166     575.5345     403.4576
   1414.18640     573.4767     402.0932   1414.18640     573.4767     402.0932
   1414.17114     571.2191     400.9108   1414.17114     571.2191     400.9108
   1414.15588     567.0549     400.0617   1414.15588     567.0549     400.0617
   1414.14062     565.0427     398.9042   1414.14062     565.0427     398.9042
   1414.12537     562.6476     397.6291   1414.12537     562.6476     397.6291
   1414.11011     560.2796     396.9268   1414.11011     560.2796     396.9268
   1414.09485     557.0247     394.9676   1414.09485     557.0247     394.9676
   1414.07959     554.5187     394.1069   1414.07959     554.5187     394.1069
   1414.06433     552.1257     392.6283   1414.06433     552.1257     392.6283
   1414.04907     549.3376     391.4260   1414.04907     549.3376     391.4260
   1414.03381     545.9885     389.9417   1414.03381     545.9885     389.9417
   1414.01855     544.3585     389.5003   1414.01855     544.3585     389.5003
   1414.00330     568.0592     397.0372   1414.00330     568.0592     397.0372
   1413.98804     541.0912     386.8449   1413.98804     541.0912     386.8449
   1413.97278     536.1229     384.5155   1413.97278     536.1229     384.5155
   1413.95752     532.6197     383.7186   1413.95752     532.6197     383.7186
   1413.94226     529.6624     381.9612   1413.94226     529.6624     381.9612
   1413.92700     526.7861     380.7551   1413.92700     526.7861     380.7551
   1413.91174     525.0521     378.8700   1413.91174     525.0521     378.8700
   1413.89648     521.4497     377.6297   1413.89648     521.4497     377.6297
   1413.88123     518.5927     376.9744   1413.88123     518.5927     376.9744
   1413.86597     516.0858     375.0379   1413.86597     516.0858     375.0379
   1413.85071     513.0290     373.5687   1413.85071     513.0290     373.5687
   1413.83545     510.3860     372.5981   1413.83545     510.3860     372.5981
   1413.82019     507.6525     370.5928   1413.82019     507.6525     370.5928
   1413.80493     504.4152     369.5517   1413.80493     504.4152     369.5517
   1413.78967     501.5193     368.3258   1413.78967     501.5193     368.3258
   1413.77441     498.9186     366.1608   1413.77441     498.9186     366.1608
   1413.75916     495.3280     365.3746   1413.75916     495.3280     365.3746
   1413.74390     493.3775     363.5220   1413.74390     493.3775     363.5220
   1413.72864     490.1225     362.3938   1413.72864     490.1225     362.3938
   1413.71338     486.8913     360.8413   1413.71338     486.8913     360.8413
   1413.69812     484.5384     359.0448   1413.69812     484.5384     359.0448
   1413.68286     481.9146     358.1283   1413.68286     481.9146     358.1283
   1413.66760     479.3307     356.4853   1413.66760     479.3307     356.4853
   1413.65234     476.5544     354.7871   1413.65234     476.5544     354.7871
   1413.63708     473.6039     353.8732   1413.63708     473.6039     353.8732
   1413.62183     469.6269     351.6509   1413.62183     469.6269     351.6509
   1413.60657     467.0510     350.3886   1413.60657     467.0510     350.3886
   1413.59131     465.2750     348.6164   1413.59131     465.2750     348.6164
   1413.57605     461.9520     347.3894   1413.57605     461.9520     347.3894
   1413.56079     459.0283     345.5989   1413.56079     459.0283     345.5989
   1413.54553     456.3929     344.7918   1413.54553     456.3929     344.7918
   1413.53027     454.1994     342.8532   1413.53027     454.1994     342.8532
   1413.51501     450.3594     341.5378   1413.51501     450.3594     341.5378
   1413.49976     447.4519     339.7898   1413.49976     447.4519     339.7898
   1413.48450     445.0832     338.7143   1413.48450     445.0832     338.7143
   1413.46924     442.5263     337.4297   1413.46924     442.5263     337.4297
   1413.45398     439.3432     335.6305   1413.45398     439.3432     335.6305
   1413.43872     436.6642     333.9502   1413.43872     436.6642     333.9502
   1413.42346     434.7121     332.5376   1413.42346     434.7121     332.5376
   1413.40820     431.4482     331.2132   1413.40820     431.4482     331.2132
   1413.39294     429.3854     329.7061   1413.39294     429.3854     329.7061
   1413.37769     426.1874     327.8493   1413.37769     426.1874     327.8493
   1413.36243     423.5022     327.2515   1413.36243     423.5022     327.2515
   1413.34717     421.2545     325.8694   1413.34717     421.2545     325.8694
   1413.33191     418.6772     323.7592   1413.33191     418.6772     323.7592
   1413.31665     416.5871     322.3213   1413.31665     416.5871     322.3213
   1413.30139     413.2822     320.7554   1413.30139     413.2822     320.7554
   1413.28613     410.7655     319.4855   1413.28613     410.7655     319.4855
   1413.27087     407.8539     318.1403   1413.27087     407.8539     318.1403
   1413.25562     405.9811     317.0550   1413.25562     405.9811     317.0550
   1413.24036     403.6442     314.9910   1413.24036     403.6442     314.9910
   1413.22510     400.7300     313.5050   1413.22510     400.7300     313.5050
   1413.20984     398.4827     312.2170   1413.20984     398.4827     312.2170
   1413.19458     396.3033     310.8567   1413.19458     396.3033     310.8567
   1413.17932     393.4044     309.8175   1413.17932     393.4044     309.8175
   1413.16406     391.2590     308.0285   1413.16406     391.2590     308.0285
   1413.14880     389.1344     306.5559   1413.14880     389.1344     306.5559
   1413.13354     387.5103     305.1892   1413.13354     387.5103     305.1892
   1413.11829     384.1238     304.1552   1413.11829     384.1238     304.1552
   1413.10303     382.2484     302.7581   1413.10303     382.2484     302.7581
   1413.08777     380.0729     301.4127   1413.08777     380.0729     301.4127
   1413.07251     378.0781     300.3272   1413.07251     378.0781     300.3272
   1413.05725     375.7865     298.8217   1413.05725     375.7865     298.8217
   1413.04199     374.4718     297.3415   1413.04199     374.4718     297.3415
   1413.02673     371.7200     296.4491   1413.02673     371.7200     296.4491
   1413.01147     370.0597     294.8526   1413.01147     370.0597     294.8526
   1412.99622     367.8844     293.6223   1412.99622     367.8844     293.6223
   1412.98096     365.6401     292.5517   1412.98096     365.6401     292.5517
   1412.96570     364.1043     291.8275   1412.96570     364.1043     291.8275
   1412.95044     361.9734     290.7346   1412.95044     361.9734     290.7346
   1412.93518     359.9731     288.9723   1412.93518     359.9731     288.9723
   1412.91992     358.4330     288.0221   1412.91992     358.4330     288.0221
   1412.90466     356.6658     287.1571   1412.90466     356.6658     287.1571
   1412.88940     355.1544     285.9191   1412.88940     355.1544     285.9191
   1412.87415     353.1521     285.2681   1412.87415     353.1521     285.2681
   1412.85889     351.5154     283.7537   1412.85889     351.5154     283.7537
   1412.84363     350.0961     283.2740   1412.84363     350.0961     283.2740
   1412.82837     348.8057     282.0186   1412.82837     348.8057     282.0186
   1412.81311     347.2649     280.7704   1412.81311     347.2649     280.7704
   1412.79785     345.4473     280.2769   1412.79785     345.4473     280.2769
   1412.78259     343.9928     279.2512   1412.78259     343.9928     279.2512
   1412.76733     343.0974     278.1667   1412.76733     343.0974     278.1667
   1412.75208     341.1881     277.4504   1412.75208     341.1881     277.4504
   1412.73682     340.2682     276.8582   1412.73682     340.2682     276.8582
   1412.72156     339.3466     276.1084   1412.72156     339.3466     276.1084
   1412.70630     337.7614     275.4017   1412.70630     337.7614     275.4017
   1412.69104     336.9334     274.6447   1412.69104     336.9334     274.6447
   1412.67578     335.7674     273.7447   1412.67578     335.7674     273.7447
   1412.66052     334.4720     273.7568   1412.66052     334.4720     273.7568
   1412.64526     333.4828     272.6267   1412.64526     333.4828     272.6267
   1412.63000     332.4174     272.0575   1412.63000     332.4174     272.0575
   1412.61475     331.4820     271.6344   1412.61475     331.4820     271.6344
   1412.59949     330.7188     270.9420   1412.59949     330.7188     270.9420
   1412.58423     329.8435     270.5850   1412.58423     329.8435     270.5850
   1412.56897     329.2289     270.2733   1412.56897     329.2289     270.2733
   1412.55371     328.3723     269.5797   1412.55371     328.3723     269.5797
   1412.53845     327.7328     269.0217   1412.53845     327.7328     269.0217
   1412.52319     326.5694     269.0476   1412.52319     326.5694     269.0476
   1412.50793     326.2367     268.3766   1412.50793     326.2367     268.3766
   1412.49268     325.8301     268.5886   1412.49268     325.8301     268.5886
   1412.47742     325.3665     268.0984   1412.47742     325.3665     268.0984
   1412.46216     324.6220     267.7722   1412.46216     324.6220     267.7722
   1412.44690     324.8148     267.7791   1412.44690     324.8148     267.7791
   1412.43164     324.2622     267.6309   1412.43164     324.2622     267.6309
   1412.41638     323.8029     266.9737   1412.41638     323.8029     266.9737
   1412.40112     323.8614     267.1773   1412.40112     323.8614     267.1773
   1412.38586     323.4786     267.2838   1412.38586     323.4786     267.2838
   1412.37061     323.6245     267.2577   1412.37061     323.6245     267.2577
   1412.35535     322.9892     267.5931   1412.35535     322.9892     267.5931
   1412.34009     323.0946     267.0876   1412.34009     323.0946     267.0876
   1412.32483     323.4868     267.3459   1412.32483     323.4868     267.3459
   1412.30957     323.6958     267.8228   1412.30957     323.6958     267.8228
   1412.29431     323.6368     267.9224   1412.29431     323.6368     267.9224
   1412.27905     323.8215     268.2726   1412.27905     323.8215     268.2726
   1412.26379     323.7963     268.0516   1412.26379     323.7963     268.0516
   1412.24854     324.5393     268.6552   1412.24854     324.5393     268.6552
   1412.23328     324.8621     269.3103   1412.23328     324.8621     269.3103
   1412.21802     324.6959     269.3542   1412.21802     324.6959     269.3542
   1412.20276     325.7043     270.1438   1412.20276     325.7043     270.1438