#     FILENAME=!Skynet_57528_lach-hhg-120_20401_20944.cyb.fits
#     BASENAME=Skynet_57528_lach-hhg-120_20401_20944
#     SRC_NAME=lach-hhg-120
#     OBSERVER=hhgmadison16_9500
#     DATE_OBS=2016-05-20T16:37:39.250
#        OBSID=20401
#      SCANNUM=20944
#          MJD=57528.6939
#          UTC=59948
#     SCANTYPE=track
#     DATAMODE=HIRES
#     TUNEFREQ=1420.0000
# Actual_FREQ1=1420.0000
# Actual_FREQ2=1420.0000
#    LO1Tuning=6870.000
#     RFFILTER=1355_1435
#        OBSBW=-15.6250
#        NCHAN=1024 
#        FOCUS=37.0709
#           RA=00:25:47.85
#          DEC=62:43:33.35
#      RA(hrs)=0.430400
#     DEC(deg)=62.725900
#    AZIM(deg)=327.391
#    ELEV(deg)=55.004
#     IFattens=10.00, 10.00
#      WARNING=None
#    TCAL_XL1=7.9635
#    TCAL_YR1=9.1340
#    TCAL_XL2=7.9635
#    TCAL_YR2=9.1340
#     TRX_XL1=11.7060
#     TRX_YR1=11.7060
#     TRX_XL2=11.7060
#     TRX_YR2=11.7060
#        TAVE=1.0000
#Freq1(MHz)          XL1          YR1  Freq2(MHz)          XL2          YR2 

   1427.81250     295.7718     277.4468   1427.81250     295.7718     277.4468
   1427.79724     296.2810     277.5203   1427.79724     296.2810     277.5203
   1427.78198     296.9238     278.6582   1427.78198     296.9238     278.6582
   1427.76672     297.4963     279.6343   1427.76672     297.4963     279.6343
   1427.75146     297.9969     280.5342   1427.75146     297.9969     280.5342
   1427.73621     298.8772     281.5882   1427.73621     298.8772     281.5882
   1427.72095     299.5992     282.5303   1427.72095     299.5992     282.5303
   1427.70569     300.5834     283.4662   1427.70569     300.5834     283.4662
   1427.69043     301.2041     284.5769   1427.69043     301.2041     284.5769
   1427.67517     301.5237     285.5093   1427.67517     301.5237     285.5093
   1427.65991     303.5495     286.8596   1427.65991     303.5495     286.8596
   1427.64465     303.6411     288.4846   1427.64465     303.6411     288.4846
   1427.62939     304.9885     288.9835   1427.62939     304.9885     288.9835
   1427.61414     305.4859     290.2292   1427.61414     305.4859     290.2292
   1427.59888     307.0952     291.6743   1427.59888     307.0952     291.6743
   1427.58362     308.1484     293.1359   1427.58362     308.1484     293.1359
   1427.56836     308.8675     293.9777   1427.56836     308.8675     293.9777
   1427.55310     310.8358     295.3225   1427.55310     310.8358     295.3225
   1427.53784     311.7222     297.2269   1427.53784     311.7222     297.2269
   1427.52258     312.9002     298.4057   1427.52258     312.9002     298.4057
   1427.50732     314.5875     299.9525   1427.50732     314.5875     299.9525
   1427.49207     315.7217     301.5435   1427.49207     315.7217     301.5435
   1427.47681     316.8315     303.3823   1427.47681     316.8315     303.3823
   1427.46155     318.4301     304.8744   1427.46155     318.4301     304.8744
   1427.44629     319.7032     305.9016   1427.44629     319.7032     305.9016
   1427.43103     321.7495     307.9565   1427.43103     321.7495     307.9565
   1427.41577     322.4875     309.6778   1427.41577     322.4875     309.6778
   1427.40051     323.9961     311.3572   1427.40051     323.9961     311.3572
   1427.38525     325.8000     313.1380   1427.38525     325.8000     313.1380
   1427.37000     327.0909     315.1537   1427.37000     327.0909     315.1537
   1427.35474     329.4891     316.9944   1427.35474     329.4891     316.9944
   1427.33948     330.8563     318.5591   1427.33948     330.8563     318.5591
   1427.32422     332.5961     320.5416   1427.32422     332.5961     320.5416
   1427.30896     334.9088     322.3659   1427.30896     334.9088     322.3659
   1427.29370     336.3217     324.1827   1427.29370     336.3217     324.1827
   1427.27844     338.2555     326.5189   1427.27844     338.2555     326.5189
   1427.26318     340.4647     328.7538   1427.26318     340.4647     328.7538
   1427.24792     342.0271     330.3008   1427.24792     342.0271     330.3008
   1427.23267     344.0077     332.4375   1427.23267     344.0077     332.4375
   1427.21741     346.3435     334.0075   1427.21741     346.3435     334.0075
   1427.20215     347.9555     336.5948   1427.20215     347.9555     336.5948
   1427.18689     349.5973     338.6886   1427.18689     349.5973     338.6886
   1427.17163     351.5429     340.5970   1427.17163     351.5429     340.5970
   1427.15637     354.5037     343.1398   1427.15637     354.5037     343.1398
   1427.14111     355.9287     344.9106   1427.14111     355.9287     344.9106
   1427.12585     358.0257     347.6760   1427.12585     358.0257     347.6760
   1427.11060     360.0106     349.2546   1427.11060     360.0106     349.2546
   1427.09534     363.0228     352.0045   1427.09534     363.0228     352.0045
   1427.08008     365.0193     354.0115   1427.08008     365.0193     354.0115
   1427.06482     366.8415     356.0896   1427.06482     366.8415     356.0896
   1427.04956     368.7407     358.6263   1427.04956     368.7407     358.6263
   1427.03430     371.8234     361.0944   1427.03430     371.8234     361.0944
   1427.01904     373.6694     362.8389   1427.01904     373.6694     362.8389
   1427.00378     375.0980     366.3015   1427.00378     375.0980     366.3015
   1426.98853     377.4323     367.5997   1426.98853     377.4323     367.5997
   1426.97327     380.4828     370.5807   1426.97327     380.4828     370.5807
   1426.95801     382.5414     372.7330   1426.95801     382.5414     372.7330
   1426.94275     385.5256     375.9891   1426.94275     385.5256     375.9891
   1426.92749     387.4618     378.0172   1426.92749     387.4618     378.0172
   1426.91223     389.3904     380.0267   1426.91223     389.3904     380.0267
   1426.89697     391.9600     382.7510   1426.89697     391.9600     382.7510
   1426.88171     394.4677     384.9565   1426.88171     394.4677     384.9565
   1426.86646     396.9505     387.9509   1426.86646     396.9505     387.9509
   1426.85120     399.5633     389.8853   1426.85120     399.5633     389.8853
   1426.83594     402.0800     392.7673   1426.83594     402.0800     392.7673
   1426.82068     403.5630     394.8241   1426.82068     403.5630     394.8241
   1426.80542     405.3562     398.0934   1426.80542     405.3562     398.0934
   1426.79016     408.8393     400.7132   1426.79016     408.8393     400.7132
   1426.77490     411.0014     402.5135   1426.77490     411.0014     402.5135
   1426.75964     413.8470     404.1990   1426.75964     413.8470     404.1990
   1426.74438     415.6796     407.2322   1426.74438     415.6796     407.2322
   1426.72913     418.4170     409.5639   1426.72913     418.4170     409.5639
   1426.71387     421.2829     412.4013   1426.71387     421.2829     412.4013
   1426.69861     424.0767     415.2401   1426.69861     424.0767     415.2401
   1426.68335     426.3081     418.2155   1426.68335     426.3081     418.2155
   1426.66809     428.2630     419.7940   1426.66809     428.2630     419.7940
   1426.65283     431.7353     423.5690   1426.65283     431.7353     423.5690
   1426.63757     434.3874     426.1508   1426.63757     434.3874     426.1508
   1426.62231     450.6772     442.2418   1426.62231     450.6772     442.2418
   1426.60706     443.6756     435.3319   1426.60706     443.6756     435.3319
   1426.59180     441.2824     433.4081   1426.59180     441.2824     433.4081
   1426.57654     444.4296     435.0375   1426.57654     444.4296     435.0375
   1426.56128     446.1132     437.7982   1426.56128     446.1132     437.7982
   1426.54602     448.0205     440.5074   1426.54602     448.0205     440.5074
   1426.53076     450.3381     442.8227   1426.53076     450.3381     442.8227
   1426.51550     453.6462     445.0468   1426.51550     453.6462     445.0468
   1426.50024     455.6604     447.8313   1426.50024     455.6604     447.8313
   1426.48499     458.0102     450.5686   1426.48499     458.0102     450.5686
   1426.46973     459.9420     452.7206   1426.46973     459.9420     452.7206
   1426.45447     462.3103     455.5811   1426.45447     462.3103     455.5811
   1426.43921     464.8439     457.4531   1426.43921     464.8439     457.4531
   1426.42395     467.1873     459.4160   1426.42395     467.1873     459.4160
   1426.40869     470.4107     461.7669   1426.40869     470.4107     461.7669
   1426.39343     472.3823     465.0975   1426.39343     472.3823     465.0975
   1426.37817     473.9275     467.7379   1426.37817     473.9275     467.7379
   1426.36292     476.6959     469.5393   1426.36292     476.6959     469.5393
   1426.34766     478.5922     472.2788   1426.34766     478.5922     472.2788
   1426.33240     480.8248     473.9586   1426.33240     480.8248     473.9586
   1426.31714     483.2717     476.5544   1426.31714     483.2717     476.5544
   1426.30188     485.9323     478.5976   1426.30188     485.9323     478.5976
   1426.28662     487.5483     481.6348   1426.28662     487.5483     481.6348
   1426.27136     490.4231     483.5064   1426.27136     490.4231     483.5064
   1426.25610     492.8746     486.0081   1426.25610     492.8746     486.0081
   1426.24084     494.4668     488.3815   1426.24084     494.4668     488.3815
   1426.22559     496.2223     490.5027   1426.22559     496.2223     490.5027
   1426.21033     499.3161     492.9521   1426.21033     499.3161     492.9521
   1426.19507     501.6176     495.5759   1426.19507     501.6176     495.5759
   1426.17981     503.7906     496.9715   1426.17981     503.7906     496.9715
   1426.16455     506.2824     499.4752   1426.16455     506.2824     499.4752
   1426.14929     507.5805     501.7468   1426.14929     507.5805     501.7468
   1426.13403     508.9216     504.1777   1426.13403     508.9216     504.1777
   1426.11877     512.2999     506.0964   1426.11877     512.2999     506.0964
   1426.10352     513.8558     507.6723   1426.10352     513.8558     507.6723
   1426.08826     516.0812     510.9179   1426.08826     516.0812     510.9179
   1426.07300     517.8510     511.9397   1426.07300     517.8510     511.9397
   1426.05774     520.6870     514.1966   1426.05774     520.6870     514.1966
   1426.04248     521.2390     516.1960   1426.04248     521.2390     516.1960
   1426.02722     523.4881     519.2776   1426.02722     523.4881     519.2776
   1426.01196     524.9727     520.7332   1426.01196     524.9727     520.7332
   1425.99670     527.3343     523.7549   1425.99670     527.3343     523.7549
   1425.98145     528.8495     524.4796   1425.98145     528.8495     524.4796
   1425.96619     531.1960     526.2567   1425.96619     531.1960     526.2567
   1425.95093     533.0194     528.3179   1425.95093     533.0194     528.3179
   1425.93567     534.9987     531.1789   1425.93567     534.9987     531.1789
   1425.92041     536.2354     532.5300   1425.92041     536.2354     532.5300
   1425.90515     537.8499     534.4252   1425.90515     537.8499     534.4252
   1425.88989     539.4970     536.0476   1425.88989     539.4970     536.0476
   1425.87463     542.0880     538.4013   1425.87463     542.0880     538.4013
   1425.85938     543.7578     540.3445   1425.85938     543.7578     540.3445
   1425.84412     545.2192     542.4601   1425.84412     545.2192     542.4601
   1425.82886     546.4457     544.4067   1425.82886     546.4457     544.4067
   1425.81360     548.2502     544.7913   1425.81360     548.2502     544.7913
   1425.79834     549.6770     548.1721   1425.79834     549.6770     548.1721
   1425.78308     551.7122     548.4460   1425.78308     551.7122     548.4460
   1425.76782     552.6996     550.6811   1425.76782     552.6996     550.6811
   1425.75256     554.0965     552.9012   1425.75256     554.0965     552.9012
   1425.73730     556.2767     554.1557   1425.73730     556.2767     554.1557
   1425.72205     556.7107     556.3148   1425.72205     556.7107     556.3148
   1425.70679     557.8112     556.9339   1425.70679     557.8112     556.9339
   1425.69153     559.9118     559.4441   1425.69153     559.9118     559.4441
   1425.67627     560.3338     561.1627   1425.67627     560.3338     561.1627
   1425.66101     562.5709     562.3691   1425.66101     562.5709     562.3691
   1425.64575     563.5537     564.1046   1425.64575     563.5537     564.1046
   1425.63049     564.8911     565.6050   1425.63049     564.8911     565.6050
   1425.61523     567.0775     567.6435   1425.61523     567.0775     567.6435
   1425.59998     567.5765     568.8248   1425.59998     567.5765     568.8248
   1425.58472     568.9475     570.8951   1425.58472     568.9475     570.8951
   1425.56946     569.7223     571.6972   1425.56946     569.7223     571.6972
   1425.55420     572.3011     573.8140   1425.55420     572.3011     573.8140
   1425.53894     572.4867     574.3739   1425.53894     572.4867     574.3739
   1425.52368     573.4628     576.9744   1425.52368     573.4628     576.9744
   1425.50842     574.7294     577.9238   1425.50842     574.7294     577.9238
   1425.49316     575.7640     579.4286   1425.49316     575.7640     579.4286
   1425.47791     576.4263     580.4937   1425.47791     576.4263     580.4937
   1425.46265     577.1228     582.0247   1425.46265     577.1228     582.0247
   1425.44739     578.8253     583.5283   1425.44739     578.8253     583.5283
   1425.43213     580.0652     584.7943   1425.43213     580.0652     584.7943
   1425.41687     580.5612     586.5374   1425.41687     580.5612     586.5374
   1425.40161     582.2096     587.7300   1425.40161     582.2096     587.7300
   1425.38635     581.8231     588.7753   1425.38635     581.8231     588.7753
   1425.37109     582.9139     590.2984   1425.37109     582.9139     590.2984
   1425.35583     584.6661     591.1338   1425.35583     584.6661     591.1338
   1425.34058     585.0403     592.9929   1425.34058     585.0403     592.9929
   1425.32532     586.1608     594.8357   1425.32532     586.1608     594.8357
   1425.31006     586.3767     594.9446   1425.31006     586.3767     594.9446
   1425.29480     586.2855     596.4348   1425.29480     586.2855     596.4348
   1425.27954     588.4125     596.8538   1425.27954     588.4125     596.8538
   1425.26428     588.5049     598.4379   1425.26428     588.5049     598.4379
   1425.24902     589.3314     599.1964   1425.24902     589.3314     599.1964
   1425.23376     589.3659     601.1806   1425.23376     589.3659     601.1806
   1425.21851     591.0947     603.3340   1425.21851     591.0947     603.3340
   1425.20325     591.1121     603.0424   1425.20325     591.1121     603.0424
   1425.18799     592.6030     603.6041   1425.18799     592.6030     603.6041
   1425.17273     591.5389     605.5103   1425.17273     591.5389     605.5103
   1425.15747     593.2553     606.4505   1425.15747     593.2553     606.4505
   1425.14221     593.5687     607.4203   1425.14221     593.5687     607.4203
   1425.12695     594.6346     607.9758   1425.12695     594.6346     607.9758
   1425.11169     593.8285     608.5535   1425.11169     593.8285     608.5535
   1425.09644     595.1665     610.4769   1425.09644     595.1665     610.4769
   1425.08118     594.4636     611.0620   1425.08118     594.4636     611.0620
   1425.06592     595.3654     612.5843   1425.06592     595.3654     612.5843
   1425.05066     596.3139     613.9745   1425.05066     596.3139     613.9745
   1425.03540     596.2827     613.1969   1425.03540     596.2827     613.1969
   1425.02014     597.1741     615.1524   1425.02014     597.1741     615.1524
   1425.00488     597.5687     616.4793   1425.00488     597.5687     616.4793
   1424.98962     596.8624     617.1948   1424.98962     596.8624     617.1948
   1424.97437     597.4912     616.8884   1424.97437     597.4912     616.8884
   1424.95911     598.0333     619.5170   1424.95911     598.0333     619.5170
   1424.94385     598.0327     619.3812   1424.94385     598.0327     619.3812
   1424.92859     598.4594     620.5701   1424.92859     598.4594     620.5701
   1424.91333     598.0820     622.2552   1424.91333     598.0820     622.2552
   1424.89807     598.0106     622.7335   1424.89807     598.0106     622.7335
   1424.88281     598.5220     623.5297   1424.88281     598.5220     623.5297
   1424.86755     599.4326     624.2463   1424.86755     599.4326     624.2463
   1424.85229     599.8951     625.4290   1424.85229     599.8951     625.4290
   1424.83704     599.8176     625.0456   1424.83704     599.8176     625.0456
   1424.82178     599.6465     626.0029   1424.82178     599.6465     626.0029
   1424.80652     599.6445     626.1444   1424.80652     599.6445     626.1444
   1424.79126     600.3240     626.5369   1424.79126     600.3240     626.5369
   1424.77600     600.2021     627.7985   1424.77600     600.2021     627.7985
   1424.76074     600.7621     628.4716   1424.76074     600.7621     628.4716
   1424.74548     600.0002     629.4018   1424.74548     600.0002     629.4018
   1424.73022     599.7383     629.9706   1424.73022     599.7383     629.9706
   1424.71497     599.8963     630.6345   1424.71497     599.8963     630.6345
   1424.69971     599.9380     631.1327   1424.69971     599.9380     631.1327
   1424.68445     600.4702     631.4840   1424.68445     600.4702     631.4840
   1424.66919     601.2032     632.1339   1424.66919     601.2032     632.1339
   1424.65393     600.0208     633.2171   1424.65393     600.0208     633.2171
   1424.63867     600.5810     633.6786   1424.63867     600.5810     633.6786
   1424.62341     599.8658     634.4340   1424.62341     599.8658     634.4340
   1424.60815     599.5251     634.4501   1424.60815     599.5251     634.4501
   1424.59290     600.1727     635.2133   1424.59290     600.1727     635.2133
   1424.57764     600.6417     635.3259   1424.57764     600.6417     635.3259
   1424.56238     599.9103     636.4377   1424.56238     599.9103     636.4377
   1424.54712     600.2415     636.6162   1424.54712     600.2415     636.6162
   1424.53186     600.2054     638.1950   1424.53186     600.2054     638.1950
   1424.51660     600.0246     637.7448   1424.51660     600.0246     637.7448
   1424.50134     599.8204     637.8483   1424.50134     599.8204     637.8483
   1424.48608     599.8878     639.1545   1424.48608     599.8878     639.1545
   1424.47083     599.6489     638.7787   1424.47083     599.6489     638.7787
   1424.45557     599.7734     640.3547   1424.45557     599.7734     640.3547
   1424.44031     599.1357     641.2003   1424.44031     599.1357     641.2003
   1424.42505     599.1745     639.4320   1424.42505     599.1745     639.4320
   1424.40979     598.5610     640.8989   1424.40979     598.5610     640.8989
   1424.39453     598.5818     641.1203   1424.39453     598.5818     641.1203
   1424.37927     598.3480     642.0374   1424.37927     598.3480     642.0374
   1424.36401     596.9801     641.3429   1424.36401     596.9801     641.3429
   1424.34875     597.6863     642.2966   1424.34875     597.6863     642.2966
   1424.33350     598.2570     642.5444   1424.33350     598.2570     642.5444
   1424.31824     597.2094     642.7564   1424.31824     597.2094     642.7564
   1424.30298     597.6755     643.6264   1424.30298     597.6755     643.6264
   1424.28772     597.8344     642.9363   1424.28772     597.8344     642.9363
   1424.27246     595.8923     644.0146   1424.27246     595.8923     644.0146
   1424.25720     596.9717     645.0600   1424.25720     596.9717     645.0600
   1424.24194     595.8088     645.6819   1424.24194     595.8088     645.6819
   1424.22668     596.0065     645.1697   1424.22668     596.0065     645.1697
   1424.21143     595.1599     644.4818   1424.21143     595.1599     644.4818
   1424.19617     596.7236     644.8770   1424.19617     596.7236     644.8770
   1424.18091     595.3653     644.7729   1424.18091     595.3653     644.7729
   1424.16565     594.9635     645.4332   1424.16565     594.9635     645.4332
   1424.15039     594.7646     646.3385   1424.15039     594.7646     646.3385
   1424.13513     594.8304     646.1434   1424.13513     594.8304     646.1434
   1424.11987     594.7742     645.6241   1424.11987     594.7742     645.6241
   1424.10461     594.0268     647.4910   1424.10461     594.0268     647.4910
   1424.08936     593.6024     646.6417   1424.08936     593.6024     646.6417
   1424.07410     592.4388     646.9901   1424.07410     592.4388     646.9901
   1424.05884     593.8123     646.2499   1424.05884     593.8123     646.2499
   1424.04358     593.6172     647.9130   1424.04358     593.6172     647.9130
   1424.02832     591.9752     647.1053   1424.02832     591.9752     647.1053
   1424.01306     592.5394     647.3616   1424.01306     592.5394     647.3616
   1423.99780     592.0507     647.5660   1423.99780     592.0507     647.5660
   1423.98254     592.2159     647.9990   1423.98254     592.2159     647.9990
   1423.96729     591.1512     647.4150   1423.96729     591.1512     647.4150
   1423.95203     590.9117     647.4203   1423.95203     590.9117     647.4203
   1423.93677     590.6436     647.3516   1423.93677     590.6436     647.3516
   1423.92151     591.1439     648.1389   1423.92151     591.1439     648.1389
   1423.90625     590.4831     648.3782   1423.90625     590.4831     648.3782
   1423.89099     589.7965     648.3978   1423.89099     589.7965     648.3978
   1423.87573     589.6105     647.9935   1423.87573     589.6105     647.9935
   1423.86047     589.3389     648.3420   1423.86047     589.3389     648.3420
   1423.84521     588.5057     647.5706   1423.84521     588.5057     647.5706
   1423.82996     588.8168     647.8112   1423.82996     588.8168     647.8112
   1423.81470     588.3463     648.0675   1423.81470     588.3463     648.0675
   1423.79944     588.7094     648.4591   1423.79944     588.7094     648.4591
   1423.78418     588.7878     648.1168   1423.78418     588.7878     648.1168
   1423.76892     587.5865     647.2015   1423.76892     587.5865     647.2015
   1423.75366     587.6523     647.6771   1423.75366     587.6523     647.6771
   1423.73840     587.0245     648.1633   1423.73840     587.0245     648.1633
   1423.72314     587.6286     647.4385   1423.72314     587.6286     647.4385
   1423.70789     586.5641     645.7379   1423.70789     586.5641     645.7379
   1423.69263     585.4970     647.2831   1423.69263     585.4970     647.2831
   1423.67737     587.6998     647.5455   1423.67737     587.6998     647.5455
   1423.66211     585.6949     647.5084   1423.66211     585.6949     647.5084
   1423.64685     585.6023     647.0271   1423.64685     585.6023     647.0271
   1423.63159     584.8016     646.9362   1423.63159     584.8016     646.9362
   1423.61633     585.0098     646.4426   1423.61633     585.0098     646.4426
   1423.60107     583.4201     646.3839   1423.60107     583.4201     646.3839
   1423.58582     585.0438     645.6245   1423.58582     585.0438     645.6245
   1423.57056     583.8430     646.0765   1423.57056     583.8430     646.0765
   1423.55530     583.5846     645.5493   1423.55530     583.5846     645.5493
   1423.54004     582.6777     645.7788   1423.54004     582.6777     645.7788
   1423.52478     583.1137     646.3871   1423.52478     583.1137     646.3871
   1423.50952     582.1494     645.1430   1423.50952     582.1494     645.1430
   1423.49426     582.0533     645.3217   1423.49426     582.0533     645.3217
   1423.47900     581.4548     645.0748   1423.47900     581.4548     645.0748
   1423.46375     581.0162     643.5965   1423.46375     581.0162     643.5965
   1423.44849     581.4665     644.3058   1423.44849     581.4665     644.3058
   1423.43323     580.9792     644.4594   1423.43323     580.9792     644.4594
   1423.41797     579.4760     642.9573   1423.41797     579.4760     642.9573
   1423.40271     580.3277     642.6959   1423.40271     580.3277     642.6959
   1423.38745     579.3994     643.2507   1423.38745     579.3994     643.2507
   1423.37219     579.6072     642.9614   1423.37219     579.6072     642.9614
   1423.35693     579.3845     642.7462   1423.35693     579.3845     642.7462
   1423.34167     579.7511     641.7371   1423.34167     579.7511     641.7371
   1423.32642     578.2706     640.9117   1423.32642     578.2706     640.9117
   1423.31116     578.6102     640.8948   1423.31116     578.6102     640.8948
   1423.29590     578.7833     640.1362   1423.29590     578.7833     640.1362
   1423.28064     577.9774     640.1677   1423.28064     577.9774     640.1677
   1423.26538     577.2906     640.0778   1423.26538     577.2906     640.0778
   1423.25012     577.6972     639.4050   1423.25012     577.6972     639.4050
   1423.23486     577.1310     639.1639   1423.23486     577.1310     639.1639
   1423.21960     576.5543     638.8627   1423.21960     576.5543     638.8627
   1423.20435     576.9250     637.6030   1423.20435     576.9250     637.6030
   1423.18909     576.5603     637.9995   1423.18909     576.5603     637.9995
   1423.17383     575.6157     636.3381   1423.17383     575.6157     636.3381
   1423.15857     575.4073     636.4507   1423.15857     575.4073     636.4507
   1423.14331     575.2415     635.7738   1423.14331     575.2415     635.7738
   1423.12805     574.7948     635.1638   1423.12805     574.7948     635.1638
   1423.11279     575.6686     634.3771   1423.11279     575.6686     634.3771
   1423.09753     574.5275     634.7390   1423.09753     574.5275     634.7390
   1423.08228     575.0761     633.7339   1423.08228     575.0761     633.7339
   1423.06702     573.7767     633.4355   1423.06702     573.7767     633.4355
   1423.05176     574.3603     633.0441   1423.05176     574.3603     633.0441
   1423.03650     573.3383     632.3502   1423.03650     573.3383     632.3502
   1423.02124     573.7191     630.3088   1423.02124     573.7191     630.3088
   1423.00598     573.7184     632.1410   1423.00598     573.7184     632.1410
   1422.99072     572.4180     630.0703   1422.99072     572.4180     630.0703
   1422.97546     573.7995     629.9774   1422.97546     573.7995     629.9774
   1422.96021     573.1183     629.3747   1422.96021     573.1183     629.3747
   1422.94495     572.8726     628.3177   1422.94495     572.8726     628.3177
   1422.92969     572.1536     628.3626   1422.92969     572.1536     628.3626
   1422.91443     571.6396     627.3505   1422.91443     571.6396     627.3505
   1422.89917     572.0237     626.6508   1422.89917     572.0237     626.6508
   1422.88391     570.9442     625.7690   1422.88391     570.9442     625.7690
   1422.86865     571.2101     624.9286   1422.86865     571.2101     624.9286
   1422.85339     571.4482     625.1302   1422.85339     571.4482     625.1302
   1422.83813     570.9659     623.8988   1422.83813     570.9659     623.8988
   1422.82288     570.9190     623.3951   1422.82288     570.9190     623.3951
   1422.80762     570.9696     622.2510   1422.80762     570.9696     622.2510
   1422.79236     569.9615     621.2411   1422.79236     569.9615     621.2411
   1422.77710     570.1805     620.8445   1422.77710     570.1805     620.8445
   1422.76184     569.8044     620.2399   1422.76184     569.8044     620.2399
   1422.74658     569.6740     619.1374   1422.74658     569.6740     619.1374
   1422.73132     570.0040     618.8951   1422.73132     570.0040     618.8951
   1422.71606     568.4249     618.1235   1422.71606     568.4249     618.1235
   1422.70081     568.2556     618.0142   1422.70081     568.2556     618.0142
   1422.68555     569.5366     616.9272   1422.68555     569.5366     616.9272
   1422.67029     569.1630     615.1551   1422.67029     569.1630     615.1551
   1422.65503     568.0010     614.5612   1422.65503     568.0010     614.5612
   1422.63977     568.0111     614.1002   1422.63977     568.0111     614.1002
   1422.62451     568.2477     612.7960   1422.62451     568.2477     612.7960
   1422.60925     568.2224     612.7045   1422.60925     568.2224     612.7045
   1422.59399     567.7869     611.1032   1422.59399     567.7869     611.1032
   1422.57874     567.3600     609.8860   1422.57874     567.3600     609.8860
   1422.56348     567.9788     610.0466   1422.56348     567.9788     610.0466
   1422.54822     566.7184     607.8851   1422.54822     566.7184     607.8851
   1422.53296     567.6485     606.9604   1422.53296     567.6485     606.9604
   1422.51770     567.3925     607.8966   1422.51770     567.3925     607.8966
   1422.50244     566.5184     605.9846   1422.50244     566.5184     605.9846
   1422.48718     566.6811     604.2540   1422.48718     566.6811     604.2540
   1422.47192     565.7949     603.9084   1422.47192     565.7949     603.9084
   1422.45667     567.4454     602.6454   1422.45667     567.4454     602.6454
   1422.44141     564.9885     601.5781   1422.44141     564.9885     601.5781
   1422.42615     566.2213     601.0516   1422.42615     566.2213     601.0516
   1422.41089     566.2946     599.5950   1422.41089     566.2946     599.5950
   1422.39563     566.1432     599.6246   1422.39563     566.1432     599.6246
   1422.38037     565.6208     597.2698   1422.38037     565.6208     597.2698
   1422.36511     565.6586     597.6655   1422.36511     565.6586     597.6655
   1422.34985     565.2428     596.6064   1422.34985     565.2428     596.6064
   1422.33459     564.6979     595.7688   1422.33459     564.6979     595.7688
   1422.31934     565.1869     594.5048   1422.31934     565.1869     594.5048
   1422.30408     564.8907     592.0687   1422.30408     564.8907     592.0687
   1422.28882     564.1607     591.5922   1422.28882     564.1607     591.5922
   1422.27356     565.9933     591.1877   1422.27356     565.9933     591.1877
   1422.25830     564.9589     589.2587   1422.25830     564.9589     589.2587
   1422.24304     565.0453     589.3392   1422.24304     565.0453     589.3392
   1422.22778     564.1523     588.4138   1422.22778     564.1523     588.4138
   1422.21252     563.5548     587.2800   1422.21252     563.5548     587.2800
   1422.19727     564.1547     585.6271   1422.19727     564.1547     585.6271
   1422.18201     564.1498     584.1025   1422.18201     564.1498     584.1025
   1422.16675     564.4955     583.8979   1422.16675     564.4955     583.8979
   1422.15149     564.4089     581.8527   1422.15149     564.4089     581.8527
   1422.13623     564.2385     580.6610   1422.13623     564.2385     580.6610
   1422.12097     563.7811     580.5778   1422.12097     563.7811     580.5778
   1422.10571     563.2980     578.7460   1422.10571     563.2980     578.7460
   1422.09045     562.8126     577.5669   1422.09045     562.8126     577.5669
   1422.07520     562.7646     576.7743   1422.07520     562.7646     576.7743
   1422.05994     563.6736     576.8484   1422.05994     563.6736     576.8484
   1422.04468     561.9017     575.4453   1422.04468     561.9017     575.4453
   1422.02942     562.5037     572.6107   1422.02942     562.5037     572.6107
   1422.01416     562.3930     572.4448   1422.01416     562.3930     572.4448
   1421.99890     561.8844     572.4351   1421.99890     561.8844     572.4351
   1421.98364     561.3646     569.0918   1421.98364     561.3646     569.0918
   1421.96838     561.9106     568.4027   1421.96838     561.9106     568.4027
   1421.95312     562.9634     567.4142   1421.95312     562.9634     567.4142
   1421.93787     561.9818     566.6487   1421.93787     561.9818     566.6487
   1421.92261     561.4052     565.7120   1421.92261     561.4052     565.7120
   1421.90735     561.8217     565.0181   1421.90735     561.8217     565.0181
   1421.89209     560.7353     563.6251   1421.89209     560.7353     563.6251
   1421.87683     561.2242     562.1102   1421.87683     561.2242     562.1102
   1421.86157     561.2444     559.8957   1421.86157     561.2444     559.8957
   1421.84631     560.3958     559.2878   1421.84631     560.3958     559.2878
   1421.83105     560.5301     558.5079   1421.83105     560.5301     558.5079
   1421.81580     560.7298     557.7472   1421.81580     560.7298     557.7472
   1421.80054     560.6316     556.3764   1421.80054     560.6316     556.3764
   1421.78528     560.0145     555.2244   1421.78528     560.0145     555.2244
   1421.77002     559.6868     554.1121   1421.77002     559.6868     554.1121
   1421.75476     560.2023     552.4570   1421.75476     560.2023     552.4570
   1421.73950     560.2070     550.9800   1421.73950     560.2070     550.9800
   1421.72424     559.8468     550.3261   1421.72424     559.8468     550.3261
   1421.70898     560.8760     549.6532   1421.70898     560.8760     549.6532
   1421.69373     559.6199     547.6942   1421.69373     559.6199     547.6942
   1421.67847     559.3298     546.6343   1421.67847     559.3298     546.6343
   1421.66321     559.4758     545.2415   1421.66321     559.4758     545.2415
   1421.64795     559.5920     544.4455   1421.64795     559.5920     544.4455
   1421.63269     558.5801     542.9122   1421.63269     558.5801     542.9122
   1421.61743     559.4814     541.5985   1421.61743     559.4814     541.5985
   1421.60217     558.4865     540.9023   1421.60217     558.4865     540.9023
   1421.58691     559.1816     540.1640   1421.58691     559.1816     540.1640
   1421.57166     559.4186     537.9027   1421.57166     559.4186     537.9027
   1421.55640     558.7006     537.2768   1421.55640     558.7006     537.2768
   1421.54114     558.3892     536.3347   1421.54114     558.3892     536.3347
   1421.52588     558.2271     534.0769   1421.52588     558.2271     534.0769
   1421.51062     558.3555     533.0632   1421.51062     558.3555     533.0632
   1421.49536     558.9652     532.2659   1421.49536     558.9652     532.2659
   1421.48010     557.3561     530.4771   1421.48010     557.3561     530.4771
   1421.46484     558.0886     530.0397   1421.46484     558.0886     530.0397
   1421.44958     558.0603     528.6503   1421.44958     558.0603     528.6503
   1421.43433     558.7885     527.9625   1421.43433     558.7885     527.9625
   1421.41907     558.1516     527.2712   1421.41907     558.1516     527.2712
   1421.40381     558.4824     526.0165   1421.40381     558.4824     526.0165
   1421.38855     558.5084     524.4742   1421.38855     558.5084     524.4742
   1421.37329     558.3940     523.5862   1421.37329     558.3940     523.5862
   1421.35803     557.7338     522.0354   1421.35803     557.7338     522.0354
   1421.34277     558.6144     521.5777   1421.34277     558.6144     521.5777
   1421.32751     558.5154     520.9451   1421.32751     558.5154     520.9451
   1421.31226     557.6903     519.0488   1421.31226     557.6903     519.0488
   1421.29700     557.5388     518.0956   1421.29700     557.5388     518.0956
   1421.28174     557.3754     517.3344   1421.28174     557.3754     517.3344
   1421.26648     556.8182     515.1910   1421.26648     556.8182     515.1910
   1421.25122     557.4483     515.4497   1421.25122     557.4483     515.4497
   1421.23596     558.2681     514.9556   1421.23596     558.2681     514.9556
   1421.22070     558.4277     511.8595   1421.22070     558.4277     511.8595
   1421.20544     557.9011     512.3553   1421.20544     557.9011     512.3553
   1421.19019     558.5999     511.0794   1421.19019     558.5999     511.0794
   1421.17493     559.9966     511.3120   1421.17493     559.9966     511.3120
   1421.15967     561.4983     511.0404   1421.15967     561.4983     511.0404
   1421.14441     562.7826     512.0109   1421.14441     562.7826     512.0109
   1421.12915     565.2348     514.6562   1421.12915     565.2348     514.6562
   1421.11389     572.9780     516.9532   1421.11389     572.9780     516.9532
   1421.09863     578.8746     523.3656   1421.09863     578.8746     523.3656
   1421.08337     586.0029     527.8864   1421.08337     586.0029     527.8864
   1421.06812     592.8560     532.2452   1421.06812     592.8560     532.2452
   1421.05286     595.5034     534.2322   1421.05286     595.5034     534.2322
   1421.03760     598.5004     535.3523   1421.03760     598.5004     535.3523
   1421.02234     602.8722     538.7128   1421.02234     602.8722     538.7128
   1421.00708     613.4320     546.4489   1421.00708     613.4320     546.4489
   1420.99182     631.9047     560.8727   1420.99182     631.9047     560.8727
   1420.97656     652.5363     579.0557   1420.97656     652.5363     579.0557
   1420.96130     699.5515     617.4141   1420.96130     699.5515     617.4141
   1420.94604     798.1415     701.9487   1420.94604     798.1415     701.9487
   1420.93079     923.3738     806.8255   1420.93079     923.3738     806.8255
   1420.91553     916.1509     800.0393   1420.91553     916.1509     800.0393
   1420.90027     788.4431     689.8389   1420.90027     788.4431     689.8389
   1420.88501     725.4109     634.8193   1420.88501     725.4109     634.8193
   1420.86975     664.5927     582.4736   1420.86975     664.5927     582.4736
   1420.85449     644.4805     562.0485   1420.85449     644.4805     562.0485
   1420.83923     658.6752     573.6660   1420.83923     658.6752     573.6660
   1420.82397     703.5057     610.0457   1420.82397     703.5057     610.0457
   1420.80872     803.1427     692.7626   1420.80872     803.1427     692.7626
   1420.79346     949.9891     815.8458   1420.79346     949.9891     815.8458
   1420.77820    1153.9758     989.4810   1420.77820    1153.9758     989.4810
   1420.76294    1439.9374    1228.2433   1420.76294    1439.9374    1228.2433
   1420.74768    1688.2821    1434.4436   1420.74768    1688.2821    1434.4436
   1420.73242    1781.1682    1507.8479   1420.73242    1781.1682    1507.8479
   1420.71716    1802.8060    1523.5946   1420.71716    1802.8060    1523.5946
   1420.70190    1741.9531    1469.9174   1420.70190    1741.9531    1469.9174
   1420.68665    1552.9050    1305.8073   1420.68665    1552.9050    1305.8073
   1420.67139    1237.6173    1047.2019   1420.67139    1237.6173    1047.2019
   1420.65613    1077.1146     910.0045   1420.65613    1077.1146     910.0045
   1420.64087    1103.4912     927.5059   1420.64087    1103.4912     927.5059
   1420.62561    1248.7909    1046.0509   1420.62561    1248.7909    1046.0509
   1420.61035    1259.8999    1054.2896   1420.61035    1259.8999    1054.2896
   1420.59509    1062.2528     887.8454   1420.59509    1062.2528     887.8454
   1420.57983     965.5923     807.5073   1420.57983     965.5923     807.5073
   1420.56458     933.1401     781.9375   1420.56458     933.1401     781.9375
   1420.54932     977.2137     814.6159   1420.54932     977.2137     814.6159
   1420.53406    1067.0095     884.7866   1420.53406    1067.0095     884.7866
   1420.51880    1080.2139     899.2308   1420.51880    1080.2139     899.2308
   1420.50354    1093.3030     906.5245   1420.50354    1093.3030     906.5245
   1420.48828    1091.5912     901.6863   1420.48828    1091.5912     901.6863
   1420.47302    1180.7449     973.0831   1420.47302    1180.7449     973.0831
   1420.45776    1367.3652    1120.3163   1420.45776    1367.3652    1120.3163
   1420.44250     955.7776     788.7477   1420.44250     955.7776     788.7477
   1420.42725     682.8975     564.8589   1420.42725     682.8975     564.8589
   1420.41199     612.3593     505.6787   1420.41199     612.3593     505.6787
   1420.39673     584.3825     483.3421   1420.39673     584.3825     483.3421
   1420.38147     571.0305     470.3761   1420.38147     571.0305     470.3761
   1420.36621     563.2405     464.7425   1420.36621     563.2405     464.7425
   1420.35095     559.3763     460.7816   1420.35095     559.3763     460.7816
   1420.33569     557.0283     458.9550   1420.33569     557.0283     458.9550
   1420.32043     555.8957     457.2368   1420.32043     555.8957     457.2368
   1420.30518     554.6416     455.8987   1420.30518     554.6416     455.8987
   1420.28992     554.8237     453.9459   1420.28992     554.8237     453.9459
   1420.27466     554.0244     453.3741   1420.27466     554.0244     453.3741
   1420.25940     553.8488     452.4951   1420.25940     553.8488     452.4951
   1420.24414     554.1865     451.4954   1420.24414     554.1865     451.4954
   1420.22888     553.4092     450.1418   1420.22888     553.4092     450.1418
   1420.21362     553.1811     449.3750   1420.21362     553.1811     449.3750
   1420.19836     551.9497     447.7863   1420.19836     551.9497     447.7863
   1420.18311     551.7206     446.3309   1420.18311     551.7206     446.3309
   1420.16785     550.7219     445.1534   1420.16785     550.7219     445.1534
   1420.15259     550.3580     444.2431   1420.15259     550.3580     444.2431
   1420.13733     549.9180     444.4242   1420.13733     549.9180     444.4242
   1420.12207     549.7964     442.7321   1420.12207     549.7964     442.7321
   1420.10681     548.5068     442.0237   1420.10681     548.5068     442.0237
   1420.09155     548.3328     440.0927   1420.09155     548.3328     440.0927
   1420.07629     548.0234     440.5314   1420.07629     548.0234     440.5314
   1420.06104     547.8094     439.0432   1420.06104     547.8094     439.0432
   1420.04578     547.4343     438.1652   1420.04578     547.4343     438.1652
   1420.03052     548.0474     437.0742   1420.03052     548.0474     437.0742
   1420.01526     548.7941     437.5013   1420.01526     548.7941     437.5013
   1420.00000     549.3867     438.1647   1420.00000     549.3867     438.1647
   1419.98474     549.9794     438.8280   1419.98474     549.9794     438.8280
   1419.96948     549.9521     436.7383   1419.96948     549.9521     436.7383
   1419.95422     547.7798     435.0770   1419.95422     547.7798     435.0770
   1419.93896     546.8583     433.9923   1419.93896     546.8583     433.9923
   1419.92371     547.2164     433.3790   1419.92371     547.2164     433.3790
   1419.90845     546.8544     433.3611   1419.90845     546.8544     433.3611
   1419.89319     547.7344     433.3069   1419.89319     547.7344     433.3069
   1419.87793     547.1057     432.3015   1419.87793     547.1057     432.3015
   1419.86267     548.3247     432.5329   1419.86267     548.3247     432.5329
   1419.84741     547.3535     431.6939   1419.84741     547.3535     431.6939
   1419.83215     547.8541     430.7372   1419.83215     547.8541     430.7372
   1419.81689     548.0560     430.2086   1419.81689     548.0560     430.2086
   1419.80164     547.0498     429.9522   1419.80164     547.0498     429.9522
   1419.78638     547.9930     429.8608   1419.78638     547.9930     429.8608
   1419.77112     547.9886     429.2977   1419.77112     547.9886     429.2977
   1419.75586     547.2682     429.2488   1419.75586     547.2682     429.2488
   1419.74060     548.2072     428.5365   1419.74060     548.2072     428.5365
   1419.72534     548.4471     428.2213   1419.72534     548.4471     428.2213
   1419.71008     548.1991     428.2277   1419.71008     548.1991     428.2277
   1419.69482     547.6395     426.7508   1419.69482     547.6395     426.7508
   1419.67957     548.4141     427.2979   1419.67957     548.4141     427.2979
   1419.66431     548.7268     426.9951   1419.66431     548.7268     426.9951
   1419.64905     549.2037     426.8498   1419.64905     549.2037     426.8498
   1419.63379     550.0795     427.4673   1419.63379     550.0795     427.4673
   1419.61853     548.7081     426.2588   1419.61853     548.7081     426.2588
   1419.60327     549.9496     426.2356   1419.60327     549.9496     426.2356
   1419.58801     550.2151     425.9546   1419.58801     550.2151     425.9546
   1419.57275     549.8940     425.9312   1419.57275     549.8940     425.9312
   1419.55750     550.0838     426.0802   1419.55750     550.0838     426.0802
   1419.54224     550.9693     426.1034   1419.54224     550.9693     426.1034
   1419.52698     550.5411     425.8000   1419.52698     550.5411     425.8000
   1419.51172     551.5330     426.0121   1419.51172     551.5330     426.0121
   1419.49646     552.2014     425.1236   1419.49646     552.2014     425.1236
   1419.48120     550.8360     425.3842   1419.48120     550.8360     425.3842
   1419.46594     551.3569     425.0441   1419.46594     551.3569     425.0441
   1419.45068     551.0459     425.4354   1419.45068     551.0459     425.4354
   1419.43542     552.0975     425.2773   1419.43542     552.0975     425.2773
   1419.42017     552.4710     425.4046   1419.42017     552.4710     425.4046
   1419.40491     552.6067     425.4394   1419.40491     552.6067     425.4394
   1419.38965     553.4067     425.6244   1419.38965     553.4067     425.6244
   1419.37439     553.2393     425.6272   1419.37439     553.2393     425.6272
   1419.35913     553.3656     424.8579   1419.35913     553.3656     424.8579
   1419.34387     553.7880     424.9680   1419.34387     553.7880     424.9680
   1419.32861     554.0556     425.3072   1419.32861     554.0556     425.3072
   1419.31335     555.1884     425.4035   1419.31335     555.1884     425.4035
   1419.29810     554.8403     425.1353   1419.29810     554.8403     425.1353
   1419.28284     553.8516     426.4621   1419.28284     553.8516     426.4621
   1419.26758     555.0971     425.6808   1419.26758     555.0971     425.6808
   1419.25232     555.2394     425.0658   1419.25232     555.2394     425.0658
   1419.23706     555.4136     426.0268   1419.23706     555.4136     426.0268
   1419.22180     555.6525     425.4660   1419.22180     555.6525     425.4660
   1419.20654     557.1111     425.6799   1419.20654     557.1111     425.6799
   1419.19128     556.6875     425.4874   1419.19128     556.6875     425.4874
   1419.17603     557.3814     425.7969   1419.17603     557.3814     425.7969
   1419.16077     556.8749     426.1638   1419.16077     556.8749     426.1638
   1419.14551     557.4255     426.2987   1419.14551     557.4255     426.2987
   1419.13025     557.4304     426.5299   1419.13025     557.4304     426.5299
   1419.11499     558.8439     427.1431   1419.11499     558.8439     427.1431
   1419.09973     558.7675     427.7407   1419.09973     558.7675     427.7407
   1419.08447     559.8073     427.6148   1419.08447     559.8073     427.6148
   1419.06921     559.1255     427.6404   1419.06921     559.1255     427.6404
   1419.05396     559.7361     428.5334   1419.05396     559.7361     428.5334
   1419.03870     560.4713     428.7950   1419.03870     560.4713     428.7950
   1419.02344     560.6155     428.8622   1419.02344     560.6155     428.8622
   1419.00818     560.2705     428.5997   1419.00818     560.2705     428.5997
   1418.99292     561.3312     428.3529   1418.99292     561.3312     428.3529
   1418.97766     561.0671     429.6573   1418.97766     561.0671     429.6573
   1418.96240     562.0508     429.1014   1418.96240     562.0508     429.1014
   1418.94714     562.7478     430.5474   1418.94714     562.7478     430.5474
   1418.93188     563.9885     430.7892   1418.93188     563.9885     430.7892
   1418.91663     563.8871     430.6984   1418.91663     563.8871     430.6984
   1418.90137     562.8849     431.0473   1418.90137     562.8849     431.0473
   1418.88611     563.9688     431.6265   1418.88611     563.9688     431.6265
   1418.87085     564.7103     432.5456   1418.87085     564.7103     432.5456
   1418.85559     565.4546     432.2241   1418.85559     565.4546     432.2241
   1418.84033     565.6183     433.0840   1418.84033     565.6183     433.0840
   1418.82507     565.5215     433.8291   1418.82507     565.5215     433.8291
   1418.80981     566.9317     433.4792   1418.80981     566.9317     433.4792
   1418.79456     566.9096     434.0785   1418.79456     566.9096     434.0785
   1418.77930     567.3024     435.3038   1418.77930     567.3024     435.3038
   1418.76404     568.1030     435.1536   1418.76404     568.1030     435.1536
   1418.74878     567.8943     435.8416   1418.74878     567.8943     435.8416
   1418.73352     567.4626     435.7857   1418.73352     567.4626     435.7857
   1418.71826     568.8414     437.0093   1418.71826     568.8414     437.0093
   1418.70300     569.4662     437.6688   1418.70300     569.4662     437.6688
   1418.68774     570.5742     438.4095   1418.68774     570.5742     438.4095
   1418.67249     570.6526     437.6162   1418.67249     570.6526     437.6162
   1418.65723     571.4229     439.1658   1418.65723     571.4229     439.1658
   1418.64197     570.8893     439.6056   1418.64197     570.8893     439.6056
   1418.62671     572.9595     440.4582   1418.62671     572.9595     440.4582
   1418.61145     573.4965     440.0500   1418.61145     573.4965     440.0500
   1418.59619     572.9437     441.5177   1418.59619     572.9437     441.5177
   1418.58093     574.2709     442.3676   1418.58093     574.2709     442.3676
   1418.56567     574.1765     442.4166   1418.56567     574.1765     442.4166
   1418.55042     575.4692     443.7088   1418.55042     575.4692     443.7088
   1418.53516     575.7571     443.7469   1418.53516     575.7571     443.7469
   1418.51990     574.9807     445.0162   1418.51990     574.9807     445.0162
   1418.50464     576.7316     445.6941   1418.50464     576.7316     445.6941
   1418.48938     576.6539     445.9147   1418.48938     576.6539     445.9147
   1418.47412     577.1486     447.0330   1418.47412     577.1486     447.0330
   1418.45886     578.6810     448.1099   1418.45886     578.6810     448.1099
   1418.44360     579.3167     448.0081   1418.44360     579.3167     448.0081
   1418.42834     579.7980     448.9911   1418.42834     579.7980     448.9911
   1418.41309     580.4701     449.1924   1418.41309     580.4701     449.1924
   1418.39783     580.2704     449.7663   1418.39783     580.2704     449.7663
   1418.38257     581.6651     450.2326   1418.38257     581.6651     450.2326
   1418.36731     580.9608     451.7427   1418.36731     580.9608     451.7427
   1418.35205     582.2678     452.3152   1418.35205     582.2678     452.3152
   1418.33679     583.1674     453.3939   1418.33679     583.1674     453.3939
   1418.32153     584.3041     454.0007   1418.32153     584.3041     454.0007
   1418.30627     583.3970     453.9673   1418.30627     583.3970     453.9673
   1418.29102     585.2890     455.1644   1418.29102     585.2890     455.1644
   1418.27576     585.5573     456.2576   1418.27576     585.5573     456.2576
   1418.26050     585.9016     457.1122   1418.26050     585.9016     457.1122
   1418.24524     587.1326     458.3787   1418.24524     587.1326     458.3787
   1418.22998     587.6021     459.1779   1418.22998     587.6021     459.1779
   1418.21472     588.1417     460.0103   1418.21472     588.1417     460.0103
   1418.19946     589.0773     460.9861   1418.19946     589.0773     460.9861
   1418.18420     589.5453     461.7583   1418.18420     589.5453     461.7583
   1418.16895     590.3481     461.8721   1418.16895     590.3481     461.8721
   1418.15369     590.3956     463.7188   1418.15369     590.3956     463.7188
   1418.13843     591.9263     463.6911   1418.13843     591.9263     463.6911
   1418.12317     592.0953     465.2201   1418.12317     592.0953     465.2201
   1418.10791     592.1769     466.3265   1418.10791     592.1769     466.3265
   1418.09265     593.3076     467.0261   1418.09265     593.3076     467.0261
   1418.07739     594.1895     467.0221   1418.07739     594.1895     467.0221
   1418.06213     595.0294     468.9026   1418.06213     595.0294     468.9026
   1418.04688     595.9230     469.6138   1418.04688     595.9230     469.6138
   1418.03162     596.9998     470.4676   1418.03162     596.9998     470.4676
   1418.01636     596.2743     472.0433   1418.01636     596.2743     472.0433
   1418.00110     596.5375     472.8509   1418.00110     596.5375     472.8509
   1417.98584     599.2269     473.6314   1417.98584     599.2269     473.6314
   1417.97058     599.2148     473.4500   1417.97058     599.2148     473.4500
   1417.95532     600.5824     475.6271   1417.95532     600.5824     475.6271
   1417.94006     600.1467     476.8815   1417.94006     600.1467     476.8815
   1417.92480     601.3002     477.1811   1417.92480     601.3002     477.1811
   1417.90955     602.1710     478.4888   1417.90955     602.1710     478.4888
   1417.89429     602.3848     479.2280   1417.89429     602.3848     479.2280
   1417.87903     602.8864     479.9391   1417.87903     602.8864     479.9391
   1417.86377     605.1885     480.6062   1417.86377     605.1885     480.6062
   1417.84851     605.2531     482.2726   1417.84851     605.2531     482.2726
   1417.83325     605.1771     484.0942   1417.83325     605.1771     484.0942
   1417.81799     606.6185     483.9401   1417.81799     606.6185     483.9401
   1417.80273     607.1205     485.4546   1417.80273     607.1205     485.4546
   1417.78748     607.7073     486.0274   1417.78748     607.7073     486.0274
   1417.77222     609.2463     486.4536   1417.77222     609.2463     486.4536
   1417.75696     610.4261     488.2496   1417.75696     610.4261     488.2496
   1417.74170     609.4564     489.5324   1417.74170     609.4564     489.5324
   1417.72644     610.5310     490.0351   1417.72644     610.5310     490.0351
   1417.71118     612.2462     491.6287   1417.71118     612.2462     491.6287
   1417.69592     612.6116     492.0916   1417.69592     612.6116     492.0916
   1417.68066     613.9508     492.9378   1417.68066     613.9508     492.9378
   1417.66541     614.2584     494.7328   1417.66541     614.2584     494.7328
   1417.65015     614.9725     494.7893   1417.65015     614.9725     494.7893
   1417.63489     615.3401     496.5240   1417.63489     615.3401     496.5240
   1417.61963     615.4860     497.1025   1417.61963     615.4860     497.1025
   1417.60437     616.7848     497.9464   1417.60437     616.7848     497.9464
   1417.58911     617.7244     498.8569   1417.58911     617.7244     498.8569
   1417.57385     618.4349     500.4762   1417.57385     618.4349     500.4762
   1417.55859     619.1819     501.9434   1417.55859     619.1819     501.9434
   1417.54333     620.6957     502.2842   1417.54333     620.6957     502.2842
   1417.52808     620.5037     503.8444   1417.52808     620.5037     503.8444
   1417.51282     621.8916     504.6210   1417.51282     621.8916     504.6210
   1417.49756     621.6335     505.0799   1417.49756     621.6335     505.0799
   1417.48230     622.4943     506.9363   1417.48230     622.4943     506.9363
   1417.46704     624.8320     508.0531   1417.46704     624.8320     508.0531
   1417.45178     625.2340     508.4512   1417.45178     625.2340     508.4512
   1417.43652     625.4336     509.1279   1417.43652     625.4336     509.1279
   1417.42126     624.4955     511.4351   1417.42126     624.4955     511.4351
   1417.40601     626.9325     511.8891   1417.40601     626.9325     511.8891
   1417.39075     628.7991     512.3138   1417.39075     628.7991     512.3138
   1417.37549     627.3400     514.5139   1417.37549     627.3400     514.5139
   1417.36023     628.3818     515.0281   1417.36023     628.3818     515.0281
   1417.34497     628.6884     515.3517   1417.34497     628.6884     515.3517
   1417.32971     630.0194     515.7761   1417.32971     630.0194     515.7761
   1417.31445     630.3142     516.7477   1417.31445     630.3142     516.7477
   1417.29919     631.7436     518.1414   1417.29919     631.7436     518.1414
   1417.28394     632.6514     518.9814   1417.28394     632.6514     518.9814
   1417.26868     632.7193     520.4498   1417.26868     632.7193     520.4498
   1417.25342     634.1760     520.8072   1417.25342     634.1760     520.8072
   1417.23816     632.9944     522.5970   1417.23816     632.9944     522.5970
   1417.22290     635.4684     524.6210   1417.22290     635.4684     524.6210
   1417.20764     635.9874     524.2490   1417.20764     635.9874     524.2490
   1417.19238     634.7958     525.7442   1417.19238     634.7958     525.7442
   1417.17712     635.7278     525.3982   1417.17712     635.7278     525.3982
   1417.16187     637.3640     526.8682   1417.16187     637.3640     526.8682
   1417.14661     637.2441     527.5532   1417.14661     637.2441     527.5532
   1417.13135     638.7986     528.6199   1417.13135     638.7986     528.6199
   1417.11609     638.9533     529.3874   1417.11609     638.9533     529.3874
   1417.10083     640.5481     531.2966   1417.10083     640.5481     531.2966
   1417.08557     639.7577     530.9581   1417.08557     639.7577     530.9581
   1417.07031     640.1964     532.3688   1417.07031     640.1964     532.3688
   1417.05505     641.9039     532.8389   1417.05505     641.9039     532.8389
   1417.03979     641.8588     533.0308   1417.03979     641.8588     533.0308
   1417.02454     641.4207     534.8081   1417.02454     641.4207     534.8081
   1417.00928     642.4637     535.1409   1417.00928     642.4637     535.1409
   1416.99402     642.5859     536.1131   1416.99402     642.5859     536.1131
   1416.97876     644.0557     536.4646   1416.97876     644.0557     536.4646
   1416.96350     643.8865     537.3777   1416.96350     643.8865     537.3777
   1416.94824     644.2818     537.8488   1416.94824     644.2818     537.8488
   1416.93298     644.8646     537.9187   1416.93298     644.8646     537.9187
   1416.91772     645.7844     539.9027   1416.91772     645.7844     539.9027
   1416.90247     645.6578     539.6200   1416.90247     645.6578     539.6200
   1416.88721     646.2849     540.4614   1416.88721     646.2849     540.4614
   1416.87195     647.2167     540.8138   1416.87195     647.2167     540.8138
   1416.85669     647.5139     541.8259   1416.85669     647.5139     541.8259
   1416.84143     647.7803     541.5394   1416.84143     647.7803     541.5394
   1416.82617     647.6752     542.6638   1416.82617     647.6752     542.6638
   1416.81091     649.6349     543.7409   1416.81091     649.6349     543.7409
   1416.79565     650.5110     543.9064   1416.79565     650.5110     543.9064
   1416.78040     649.7642     543.7394   1416.78040     649.7642     543.7394
   1416.76514     650.0280     544.5169   1416.76514     650.0280     544.5169
   1416.74988     649.3063     545.2693   1416.74988     649.3063     545.2693
   1416.73462     650.7533     545.2413   1416.73462     650.7533     545.2413
   1416.71936     650.7717     546.0019   1416.71936     650.7717     546.0019
   1416.70410     651.7397     546.5243   1416.70410     651.7397     546.5243
   1416.68884     650.6937     546.1340   1416.68884     650.6937     546.1340
   1416.67358     651.0568     545.9538   1416.67358     651.0568     545.9538
   1416.65833     651.4499     546.7425   1416.65833     651.4499     546.7425
   1416.64307     652.6530     546.2444   1416.64307     652.6530     546.2444
   1416.62781     651.6278     547.6196   1416.62781     651.6278     547.6196
   1416.61255     653.0844     547.4649   1416.61255     653.0844     547.4649
   1416.59729     652.7960     548.3801   1416.59729     652.7960     548.3801
   1416.58203     653.6267     546.6682   1416.58203     653.6267     546.6682
   1416.56677     653.5934     547.7344   1416.56677     653.5934     547.7344
   1416.55151     654.3065     548.6011   1416.55151     654.3065     548.6011
   1416.53625     653.9445     548.8419   1416.53625     653.9445     548.8419
   1416.52100     653.4553     548.8698   1416.52100     653.4553     548.8698
   1416.50574     653.3228     547.6879   1416.50574     653.3228     547.6879
   1416.49048     653.4473     548.4893   1416.49048     653.4473     548.4893
   1416.47522     652.5385     548.6536   1416.47522     652.5385     548.6536
   1416.45996     654.0683     548.1619   1416.45996     654.0683     548.1619
   1416.44470     654.0243     548.1045   1416.44470     654.0243     548.1045
   1416.42944     653.4347     547.4737   1416.42944     653.4347     547.4737
   1416.41418     653.9848     548.1271   1416.41418     653.9848     548.1271
   1416.39893     653.3875     547.6603   1416.39893     653.3875     547.6603
   1416.38367     654.3868     548.9072   1416.38367     654.3868     548.9072
   1416.36841     653.3122     546.7719   1416.36841     653.3122     546.7719
   1416.35315     654.8698     547.4827   1416.35315     654.8698     547.4827
   1416.33789     653.5562     547.4752   1416.33789     653.5562     547.4752
   1416.32263     654.0814     546.8506   1416.32263     654.0814     546.8506
   1416.30737     653.7466     546.7505   1416.30737     653.7466     546.7505
   1416.29211     654.1268     546.6434   1416.29211     654.1268     546.6434
   1416.27686     653.0667     546.5374   1416.27686     653.0667     546.5374
   1416.26160     653.9780     545.9864   1416.26160     653.9780     545.9864
   1416.24634     652.9613     545.7612   1416.24634     652.9613     545.7612
   1416.23108     652.9924     544.3764   1416.23108     652.9924     544.3764
   1416.21582     653.4902     545.1263   1416.21582     653.4902     545.1263
   1416.20056     652.6857     544.0967   1416.20056     652.6857     544.0967
   1416.18530     651.9813     545.0872   1416.18530     651.9813     545.0872
   1416.17004     652.2944     543.7359   1416.17004     652.2944     543.7359
   1416.15479     651.9158     543.6702   1416.15479     651.9158     543.6702
   1416.13953     650.7578     542.2498   1416.13953     650.7578     542.2498
   1416.12427     651.8104     542.4214   1416.12427     651.8104     542.4214
   1416.10901     651.6581     542.2415   1416.10901     651.6581     542.2415
   1416.09375     651.0970     541.3404   1416.09375     651.0970     541.3404
   1416.07849     650.8880     542.0114   1416.07849     650.8880     542.0114
   1416.06323     650.3473     540.3600   1416.06323     650.3473     540.3600
   1416.04797     650.7690     540.4510   1416.04797     650.7690     540.4510
   1416.03271     649.4736     539.4377   1416.03271     649.4736     539.4377
   1416.01746     649.8619     539.2172   1416.01746     649.8619     539.2172
   1416.00220     648.9211     538.4172   1416.00220     648.9211     538.4172
   1415.98694     649.3987     537.8442   1415.98694     649.3987     537.8442
   1415.97168     648.6176     536.7305   1415.97168     648.6176     536.7305
   1415.95642     649.5287     536.4340   1415.95642     649.5287     536.4340
   1415.94116     647.4837     536.0608   1415.94116     647.4837     536.0608
   1415.92590     647.1652     534.8806   1415.92590     647.1652     534.8806
   1415.91064     647.5476     535.6071   1415.91064     647.5476     535.6071
   1415.89539     646.9224     533.5321   1415.89539     646.9224     533.5321
   1415.88013     646.1466     533.7208   1415.88013     646.1466     533.7208
   1415.86487     645.7737     533.2073   1415.86487     645.7737     533.2073
   1415.84961     646.0964     532.5842   1415.84961     646.0964     532.5842
   1415.83435     644.9965     531.6865   1415.83435     644.9965     531.6865
   1415.81909     645.2838     531.3443   1415.81909     645.2838     531.3443
   1415.80383     643.5869     530.3412   1415.80383     643.5869     530.3412
   1415.78857     643.6440     529.6071   1415.78857     643.6440     529.6071
   1415.77332     643.3127     529.3564   1415.77332     643.3127     529.3564
   1415.75806     642.1991     529.2047   1415.75806     642.1991     529.2047
   1415.74280     642.1501     527.9521   1415.74280     642.1501     527.9521
   1415.72754     641.8974     527.0237   1415.72754     641.8974     527.0237
   1415.71228     641.4276     526.3588   1415.71228     641.4276     526.3588
   1415.69702     641.6583     526.0154   1415.69702     641.6583     526.0154
   1415.68176     639.2973     524.9319   1415.68176     639.2973     524.9319
   1415.66650     639.2418     523.9122   1415.66650     639.2418     523.9122
   1415.65125     638.3578     524.4618   1415.65125     638.3578     524.4618
   1415.63599     638.9330     523.8409   1415.63599     638.9330     523.8409
   1415.62073     638.5549     522.0226   1415.62073     638.5549     522.0226
   1415.60547     637.1601     520.4310   1415.60547     637.1601     520.4310
   1415.59021     636.8583     520.6871   1415.59021     636.8583     520.6871
   1415.57495     635.8339     520.5369   1415.57495     635.8339     520.5369
   1415.55969     635.3387     519.4140   1415.55969     635.3387     519.4140
   1415.54443     634.4932     517.7326   1415.54443     634.4932     517.7326
   1415.52917     633.3695     518.1815   1415.52917     633.3695     518.1815
   1415.51392     632.0260     517.1923   1415.51392     632.0260     517.1923
   1415.49866     632.4155     516.7211   1415.49866     632.4155     516.7211
   1415.48340     631.6571     515.8212   1415.48340     631.6571     515.8212
   1415.46814     630.9786     514.2614   1415.46814     630.9786     514.2614
   1415.45288     630.3011     514.4978   1415.45288     630.3011     514.4978
   1415.43762     628.8359     513.0845   1415.43762     628.8359     513.0845
   1415.42236     628.2606     511.8134   1415.42236     628.2606     511.8134
   1415.40710     626.7876     511.2538   1415.40710     626.7876     511.2538
   1415.39185     626.6550     510.8172   1415.39185     626.6550     510.8172
   1415.37659     626.1493     509.5928   1415.37659     626.1493     509.5928
   1415.36133     625.1321     509.0892   1415.36133     625.1321     509.0892
   1415.34607     624.9553     508.1329   1415.34607     624.9553     508.1329
   1415.33081     623.0198     507.4901   1415.33081     623.0198     507.4901
   1415.31555     623.3311     505.9436   1415.31555     623.3311     505.9436
   1415.30029     621.9720     505.8922   1415.30029     621.9720     505.8922
   1415.28503     620.9493     504.9320   1415.28503     620.9493     504.9320
   1415.26978     619.8131     503.5467   1415.26978     619.8131     503.5467
   1415.25452     618.5417     502.4689   1415.25452     618.5417     502.4689
   1415.23926     616.9200     501.9541   1415.23926     616.9200     501.9541
   1415.22400     616.6158     500.3329   1415.22400     616.6158     500.3329
   1415.20874     615.3832     499.7317   1415.20874     615.3832     499.7317
   1415.19348     614.3112     499.4065   1415.19348     614.3112     499.4065
   1415.17822     614.5110     497.9492   1415.17822     614.5110     497.9492
   1415.16296     612.2510     497.1211   1415.16296     612.2510     497.1211
   1415.14771     612.1825     496.3658   1415.14771     612.1825     496.3658
   1415.13245     610.5724     495.9211   1415.13245     610.5724     495.9211
   1415.11719     609.1172     494.3074   1415.11719     609.1172     494.3074
   1415.10193     607.6222     492.8061   1415.10193     607.6222     492.8061
   1415.08667     606.6627     492.3970   1415.08667     606.6627     492.3970
   1415.07141     605.8428     490.4078   1415.07141     605.8428     490.4078
   1415.05615     604.2230     490.3910   1415.05615     604.2230     490.3910
   1415.04089     603.7067     489.3250   1415.04089     603.7067     489.3250
   1415.02563     601.8792     488.2676   1415.02563     601.8792     488.2676
   1415.01038     601.3821     487.2383   1415.01038     601.3821     487.2383
   1414.99512     600.2149     486.2008   1414.99512     600.2149     486.2008
   1414.97986     598.1589     485.5009   1414.97986     598.1589     485.5009
   1414.96460     595.6632     484.1649   1414.96460     595.6632     484.1649
   1414.94934     595.0714     483.0029   1414.94934     595.0714     483.0029
   1414.93408     594.6349     481.5917   1414.93408     594.6349     481.5917
   1414.91882     592.3222     480.4937   1414.91882     592.3222     480.4937
   1414.90356     591.7073     479.5307   1414.90356     591.7073     479.5307
   1414.88831     590.8713     478.4336   1414.88831     590.8713     478.4336
   1414.87305     589.0839     477.3532   1414.87305     589.0839     477.3532
   1414.85779     587.0913     475.7113   1414.85779     587.0913     475.7113
   1414.84253     585.9409     475.2206   1414.84253     585.9409     475.2206
   1414.82727     583.4724     473.6862   1414.82727     583.4724     473.6862
   1414.81201     582.7260     472.0005   1414.81201     582.7260     472.0005
   1414.79675     581.3312     471.4168   1414.79675     581.3312     471.4168
   1414.78149     580.0553     470.0537   1414.78149     580.0553     470.0537
   1414.76624     576.8542     469.3038   1414.76624     576.8542     469.3038
   1414.75098     576.5462     467.2392   1414.75098     576.5462     467.2392
   1414.73572     574.2893     465.9938   1414.73572     574.2893     465.9938
   1414.72046     574.5128     464.5725   1414.72046     574.5128     464.5725
   1414.70520     571.1248     463.6563   1414.70520     571.1248     463.6563
   1414.68994     570.7034     462.2825   1414.68994     570.7034     462.2825
   1414.67468     568.9427     460.7663   1414.67468     568.9427     460.7663
   1414.65942     566.5129     459.3406   1414.65942     566.5129     459.3406
   1414.64417     565.4174     459.4295   1414.64417     565.4174     459.4295
   1414.62891     563.7933     458.0389   1414.62891     563.7933     458.0389
   1414.61365     562.5380     455.7198   1414.61365     562.5380     455.7198
   1414.59839     561.0341     453.9408   1414.59839     561.0341     453.9408
   1414.58313     558.5231     453.5012   1414.58313     558.5231     453.5012
   1414.56787     557.0435     451.9103   1414.56787     557.0435     451.9103
   1414.55261     554.9589     450.3601   1414.55261     554.9589     450.3601
   1414.53735     552.0397     448.9386   1414.53735     552.0397     448.9386
   1414.52209     551.2050     447.7041   1414.52209     551.2050     447.7041
   1414.50684     549.1407     445.9762   1414.50684     549.1407     445.9762
   1414.49158     547.0310     444.5744   1414.49158     547.0310     444.5744
   1414.47632     545.1835     443.4827   1414.47632     545.1835     443.4827
   1414.46106     543.3775     441.5417   1414.46106     543.3775     441.5417
   1414.44580     541.7708     440.1833   1414.44580     541.7708     440.1833
   1414.43054     539.5963     439.3015   1414.43054     539.5963     439.3015
   1414.41528     538.0942     437.2060   1414.41528     538.0942     437.2060
   1414.40002     535.1544     436.4152   1414.40002     535.1544     436.4152
   1414.38477     534.1589     434.8961   1414.38477     534.1589     434.8961
   1414.36951     531.8859     433.5371   1414.36951     531.8859     433.5371
   1414.35425     528.9420     430.9474   1414.35425     528.9420     430.9474
   1414.33899     527.6272     429.5206   1414.33899     527.6272     429.5206
   1414.32373     525.6530     428.8741   1414.32373     525.6530     428.8741
   1414.30847     523.3027     426.9539   1414.30847     523.3027     426.9539
   1414.29321     520.7192     425.2507   1414.29321     520.7192     425.2507
   1414.27795     519.4410     424.2152   1414.27795     519.4410     424.2152
   1414.26270     516.8765     421.9853   1414.26270     516.8765     421.9853
   1414.24744     514.3962     420.8817   1414.24744     514.3962     420.8817
   1414.23218     512.7366     418.9374   1414.23218     512.7366     418.9374
   1414.21692     510.0336     417.7140   1414.21692     510.0336     417.7140
   1414.20166     508.1320     416.6330   1414.20166     508.1320     416.6330
   1414.18640     505.8892     413.8283   1414.18640     505.8892     413.8283
   1414.17114     503.8700     413.0025   1414.17114     503.8700     413.0025
   1414.15588     502.2659     410.9320   1414.15588     502.2659     410.9320
   1414.14062     500.2213     409.4166   1414.14062     500.2213     409.4166
   1414.12537     497.6468     408.3349   1414.12537     497.6468     408.3349
   1414.11011     494.7690     405.8065   1414.11011     494.7690     405.8065
   1414.09485     492.2676     404.8379   1414.09485     492.2676     404.8379
   1414.07959     491.0861     402.9626   1414.07959     491.0861     402.9626
   1414.06433     488.9812     401.3788   1414.06433     488.9812     401.3788
   1414.04907     486.7290     399.7421   1414.04907     486.7290     399.7421
   1414.03381     484.0188     397.6697   1414.03381     484.0188     397.6697
   1414.01855     482.3967     396.9160   1414.01855     482.3967     396.9160
   1414.00330     504.7745     403.3253   1414.00330     504.7745     403.3253
   1413.98804     479.3564     393.2405   1413.98804     479.3564     393.2405
   1413.97278     474.2333     391.1441   1413.97278     474.2333     391.1441
   1413.95752     472.2497     389.6225   1413.95752     472.2497     389.6225
   1413.94226     469.8354     387.8466   1413.94226     469.8354     387.8466
   1413.92700     467.7905     386.2767   1413.92700     467.7905     386.2767
   1413.91174     464.7866     384.5386   1413.91174     464.7866     384.5386
   1413.89648     461.7745     382.3598   1413.89648     461.7745     382.3598
   1413.88123     459.8609     381.9333   1413.88123     459.8609     381.9333
   1413.86597     457.6757     378.8442   1413.86597     457.6757     378.8442
   1413.85071     454.3669     377.6329   1413.85071     454.3669     377.6329
   1413.83545     453.3581     375.6398   1413.83545     453.3581     375.6398
   1413.82019     450.7223     374.5526   1413.82019     450.7223     374.5526
   1413.80493     448.3589     372.4028   1413.80493     448.3589     372.4028
   1413.78967     445.1492     370.6341   1413.78967     445.1492     370.6341
   1413.77441     443.6306     369.0194   1413.77441     443.6306     369.0194
   1413.75916     440.6653     367.5847   1413.75916     440.6653     367.5847
   1413.74390     438.4069     365.8499   1413.74390     438.4069     365.8499
   1413.72864     435.9722     363.9287   1413.72864     435.9722     363.9287
   1413.71338     433.2554     362.3280   1413.71338     433.2554     362.3280
   1413.69812     430.6349     360.3615   1413.69812     430.6349     360.3615
   1413.68286     427.8862     358.3184   1413.68286     427.8862     358.3184
   1413.66760     425.7040     357.3163   1413.66760     425.7040     357.3163
   1413.65234     423.8449     355.4452   1413.65234     423.8449     355.4452
   1413.63708     421.5666     353.5837   1413.63708     421.5666     353.5837
   1413.62183     418.7636     351.8366   1413.62183     418.7636     351.8366
   1413.60657     416.6442     349.9433   1413.60657     416.6442     349.9433
   1413.59131     414.3915     348.8508   1413.59131     414.3915     348.8508
   1413.57605     412.1674     346.8499   1413.57605     412.1674     346.8499
   1413.56079     409.6989     345.4719   1413.56079     409.6989     345.4719
   1413.54553     407.8012     343.5872   1413.54553     407.8012     343.5872
   1413.53027     404.9621     341.7483   1413.53027     404.9621     341.7483
   1413.51501     402.2661     340.5250   1413.51501     402.2661     340.5250
   1413.49976     399.2499     338.6888   1413.49976     399.2499     338.6888
   1413.48450     397.7495     336.8036   1413.48450     397.7495     336.8036
   1413.46924     395.5947     335.2720   1413.46924     395.5947     335.2720
   1413.45398     392.1194     333.4748   1413.45398     392.1194     333.4748
   1413.43872     390.6540     331.5439   1413.43872     390.6540     331.5439
   1413.42346     388.2627     330.3700   1413.42346     388.2627     330.3700
   1413.40820     386.1163     328.6920   1413.40820     386.1163     328.6920
   1413.39294     384.0930     327.3497   1413.39294     384.0930     327.3497
   1413.37769     381.9104     325.5058   1413.37769     381.9104     325.5058
   1413.36243     378.8328     324.0741   1413.36243     378.8328     324.0741
   1413.34717     377.3762     322.3901   1413.34717     377.3762     322.3901
   1413.33191     374.4201     320.9775   1413.33191     374.4201     320.9775
   1413.31665     372.1535     318.9867   1413.31665     372.1535     318.9867
   1413.30139     370.7850     317.6761   1413.30139     370.7850     317.6761
   1413.28613     368.4841     316.7669   1413.28613     368.4841     316.7669
   1413.27087     366.5944     314.3970   1413.27087     366.5944     314.3970
   1413.25562     363.8602     313.2779   1413.25562     363.8602     313.2779
   1413.24036     361.8363     311.1451   1413.24036     361.8363     311.1451
   1413.22510     359.8951     310.6635   1413.22510     359.8951     310.6635
   1413.20984     357.7635     309.2729   1413.20984     357.7635     309.2729
   1413.19458     354.9060     307.8151   1413.19458     354.9060     307.8151
   1413.17932     353.6069     305.7917   1413.17932     353.6069     305.7917
   1413.16406     351.4653     304.9840   1413.16406     351.4653     304.9840
   1413.14880     349.7200     303.1530   1413.14880     349.7200     303.1530
   1413.13354     347.7220     301.8050   1413.13354     347.7220     301.8050
   1413.11829     344.7861     300.6847   1413.11829     344.7861     300.6847
   1413.10303     344.0945     299.5412   1413.10303     344.0945     299.5412
   1413.08777     341.5189     297.8891   1413.08777     341.5189     297.8891
   1413.07251     339.6846     296.9838   1413.07251     339.6846     296.9838
   1413.05725     338.0061     295.6103   1413.05725     338.0061     295.6103
   1413.04199     335.7561     294.0548   1413.04199     335.7561     294.0548
   1413.02673     334.4835     293.5143   1413.02673     334.4835     293.5143
   1413.01147     332.8440     291.9454   1413.01147     332.8440     291.9454
   1412.99622     330.9675     290.8104   1412.99622     330.9675     290.8104
   1412.98096     329.5903     290.0396   1412.98096     329.5903     290.0396
   1412.96570     328.5840     288.1913   1412.96570     328.5840     288.1913
   1412.95044     326.3492     288.3366   1412.95044     326.3492     288.3366
   1412.93518     324.3964     286.7919   1412.93518     324.3964     286.7919
   1412.91992     322.7607     285.9783   1412.91992     322.7607     285.9783
   1412.90466     321.8627     284.6964   1412.90466     321.8627     284.6964
   1412.88940     320.2788     283.6841   1412.88940     320.2788     283.6841
   1412.87415     318.5754     282.8394   1412.87415     318.5754     282.8394
   1412.85889     317.5643     282.1533   1412.85889     317.5643     282.1533
   1412.84363     315.9428     281.6455   1412.84363     315.9428     281.6455
   1412.82837     314.7822     280.4936   1412.82837     314.7822     280.4936
   1412.81311     313.2598     279.7991   1412.81311     313.2598     279.7991
   1412.79785     312.2787     279.0433   1412.79785     312.2787     279.0433
   1412.78259     310.6186     278.0378   1412.78259     310.6186     278.0378
   1412.76733     309.7814     277.1441   1412.76733     309.7814     277.1441
   1412.75208     308.5255     276.8557   1412.75208     308.5255     276.8557
   1412.73682     307.4043     275.7719   1412.73682     307.4043     275.7719
   1412.72156     306.3813     275.4064   1412.72156     306.3813     275.4064
   1412.70630     305.1793     274.2793   1412.70630     305.1793     274.2793
   1412.69104     304.0255     274.2686   1412.69104     304.0255     274.2686
   1412.67578     303.5928     273.8767   1412.67578     303.5928     273.8767
   1412.66052     302.5642     273.1154   1412.66052     302.5642     273.1154
   1412.64526     301.4023     272.5177   1412.64526     301.4023     272.5177
   1412.63000     300.3669     272.0200   1412.63000     300.3669     272.0200
   1412.61475     300.0981     271.9007   1412.61475     300.0981     271.9007
   1412.59949     299.2253     271.6198   1412.59949     299.2253     271.6198
   1412.58423     298.4857     271.4720   1412.58423     298.4857     271.4720
   1412.56897     297.6174     270.9973   1412.56897     297.6174     270.9973
   1412.55371     297.7622     270.7759   1412.55371     297.7622     270.7759
   1412.53845     296.0846     270.5929   1412.53845     296.0846     270.5929
   1412.52319     296.3776     270.3680   1412.52319     296.3776     270.3680
   1412.50793     296.0313     270.3826   1412.50793     296.0313     270.3826
   1412.49268     294.6792     269.8951   1412.49268     294.6792     269.8951
   1412.47742     295.0533     270.2050   1412.47742     295.0533     270.2050
   1412.46216     294.4305     270.1027   1412.46216     294.4305     270.1027
   1412.44690     293.9501     270.3810   1412.44690     293.9501     270.3810
   1412.43164     293.9928     270.0324   1412.43164     293.9928     270.0324
   1412.41638     293.7438     270.0975   1412.41638     293.7438     270.0975
   1412.40112     292.9763     270.8067   1412.40112     292.9763     270.8067
   1412.38586     293.4541     270.7396   1412.38586     293.4541     270.7396
   1412.37061     293.6452     271.0920   1412.37061     293.6452     271.0920
   1412.35535     293.6880     271.4032   1412.35535     293.6880     271.4032
   1412.34009     292.9815     271.6503   1412.34009     292.9815     271.6503
   1412.32483     293.4879     272.0264   1412.32483     293.4879     272.0264
   1412.30957     293.0659     272.2893   1412.30957     293.0659     272.2893
   1412.29431     293.5009     273.4669   1412.29431     293.5009     273.4669
   1412.27905     293.5933     273.2830   1412.27905     293.5933     273.2830
   1412.26379     293.8098     274.3395   1412.26379     293.8098     274.3395
   1412.24854     294.1432     274.9508   1412.24854     294.1432     274.9508
   1412.23328     294.4565     275.2502   1412.23328     294.4565     275.2502
   1412.21802     295.2191     275.7501   1412.21802     295.2191     275.7501
   1412.20276     295.4042     276.4018   1412.20276     295.4042     276.4018