#     FILENAME=!Skynet_57528_lach-cc-235_20651_21021.cyb.fits
#     BASENAME=Skynet_57528_lach-cc-235_20651_21021
#     SRC_NAME=lach-cc-235
#     OBSERVER=ccmadison16_9505
#     DATE_OBS=2016-05-20T19:17:55.250
#        OBSID=20651
#      SCANNUM=21021
#          MJD=57528.8052
#          UTC=69565
#     SCANTYPE=track
#     DATAMODE=HIRES
#     TUNEFREQ=1420.0000
# Actual_FREQ1=1420.0000
# Actual_FREQ2=1420.0000
#    LO1Tuning=6870.000
#     RFFILTER=1355_1435
#        OBSBW=-15.6250
#        NCHAN=1024 
#        FOCUS=37.0709
#           RA=07:33:22.80
#          DEC=-19:32:00.35
#      RA(hrs)=7.556300
#     DEC(deg)=-19.533400
#    AZIM(deg)=152.823
#    ELEV(deg)=27.270
#     IFattens=10.00, 9.00
#      WARNING=None
#    TCAL_XL1=7.9635
#    TCAL_YR1=9.1340
#    TCAL_XL2=7.9635
#    TCAL_YR2=9.1340
#     TRX_XL1=11.7060
#     TRX_YR1=11.7060
#     TRX_XL2=11.7060
#     TRX_YR2=11.7060
#        TAVE=1.0000
#Freq1(MHz)          XL1          YR1  Freq2(MHz)          XL2          YR2 

   1427.81250     367.6117     287.8457   1427.81250     367.6117     287.8457
   1427.79724     368.6705     288.1156   1427.79724     368.6705     288.1156
   1427.78198     368.9702     288.8551   1427.78198     368.9702     288.8551
   1427.76672     370.0763     289.6783   1427.76672     370.0763     289.6783
   1427.75146     370.4978     290.2333   1427.75146     370.4978     290.2333
   1427.73621     371.3277     290.6365   1427.73621     371.3277     290.6365
   1427.72095     373.2585     291.6604   1427.72095     373.2585     291.6604
   1427.70569     373.5983     292.0340   1427.70569     373.5983     292.0340
   1427.69043     374.5840     292.6520   1427.69043     374.5840     292.6520
   1427.67517     375.4465     293.4153   1427.67517     375.4465     293.4153
   1427.65991     376.6617     294.5121   1427.65991     376.6617     294.5121
   1427.64465     377.8189     295.3558   1427.64465     377.8189     295.3558
   1427.62939     379.7540     296.6637   1427.62939     379.7540     296.6637
   1427.61414     380.4065     297.2127   1427.61414     380.4065     297.2127
   1427.59888     381.0320     298.4650   1427.59888     381.0320     298.4650
   1427.58362     383.2175     299.1864   1427.58362     383.2175     299.1864
   1427.56836     384.9622     300.4419   1427.56836     384.9622     300.4419
   1427.55310     386.4664     301.5051   1427.55310     386.4664     301.5051
   1427.53784     388.0134     302.9069   1427.53784     388.0134     302.9069
   1427.52258     389.4052     303.7736   1427.52258     389.4052     303.7736
   1427.50732     390.7860     305.1139   1427.50732     390.7860     305.1139
   1427.49207     392.3028     306.4665   1427.49207     392.3028     306.4665
   1427.47681     394.3288     307.7702   1427.47681     394.3288     307.7702
   1427.46155     396.2220     309.2735   1427.46155     396.2220     309.2735
   1427.44629     397.8205     310.7606   1427.44629     397.8205     310.7606
   1427.43103     400.1732     311.8746   1427.43103     400.1732     311.8746
   1427.41577     401.8750     313.7173   1427.41577     401.8750     313.7173
   1427.40051     403.8555     315.2153   1427.40051     403.8555     315.2153
   1427.38525     405.8840     316.4197   1427.38525     405.8840     316.4197
   1427.37000     407.3046     318.1989   1427.37000     407.3046     318.1989
   1427.35474     409.4246     319.7569   1427.35474     409.4246     319.7569
   1427.33948     412.2515     321.0372   1427.33948     412.2515     321.0372
   1427.32422     414.2567     322.2369   1427.32422     414.2567     322.2369
   1427.30896     416.9035     324.8969   1427.30896     416.9035     324.8969
   1427.29370     418.2013     326.3801   1427.29370     418.2013     326.3801
   1427.27844     420.1854     327.5377   1427.27844     420.1854     327.5377
   1427.26318     423.3690     330.0572   1427.26318     423.3690     330.0572
   1427.24792     425.8973     331.9137   1427.24792     425.8973     331.9137
   1427.23267     427.5483     333.1882   1427.23267     427.5483     333.1882
   1427.21741     429.6724     335.6056   1427.21741     429.6724     335.6056
   1427.20215     432.1745     337.1745   1427.20215     432.1745     337.1745
   1427.18689     434.5504     339.4020   1427.18689     434.5504     339.4020
   1427.17163     438.0876     341.2270   1427.17163     438.0876     341.2270
   1427.15637     439.7805     343.0551   1427.15637     439.7805     343.0551
   1427.14111     443.1061     345.0255   1427.14111     443.1061     345.0255
   1427.12585     445.1820     347.2650   1427.12585     445.1820     347.2650
   1427.11060     448.2289     349.3639   1427.11060     448.2289     349.3639
   1427.09534     451.0893     351.2446   1427.09534     451.0893     351.2446
   1427.08008     452.9020     353.1979   1427.08008     452.9020     353.1979
   1427.06482     455.5938     355.0547   1427.06482     455.5938     355.0547
   1427.04956     458.6847     357.7390   1427.04956     458.6847     357.7390
   1427.03430     461.3814     359.9404   1427.03430     461.3814     359.9404
   1427.01904     463.8286     362.0702   1427.01904     463.8286     362.0702
   1427.00378     466.5919     363.7489   1427.00378     466.5919     363.7489
   1426.98853     469.6747     366.2797   1426.98853     469.6747     366.2797
   1426.97327     472.6867     368.4007   1426.97327     472.6867     368.4007
   1426.95801     474.7109     370.8462   1426.95801     474.7109     370.8462
   1426.94275     477.8175     373.3312   1426.94275     477.8175     373.3312
   1426.92749     480.1306     375.9445   1426.92749     480.1306     375.9445
   1426.91223     483.2029     377.4604   1426.91223     483.2029     377.4604
   1426.89697     486.6711     379.8326   1426.89697     486.6711     379.8326
   1426.88171     489.9845     382.8840   1426.88171     489.9845     382.8840
   1426.86646     492.6544     385.5038   1426.86646     492.6544     385.5038
   1426.85120     495.6451     387.4919   1426.85120     495.6451     387.4919
   1426.83594     497.6419     389.1005   1426.83594     497.6419     389.1005
   1426.82068     501.3167     391.6691   1426.82068     501.3167     391.6691
   1426.80542     504.1776     394.3482   1426.80542     504.1776     394.3482
   1426.79016     507.6381     397.0270   1426.79016     507.6381     397.0270
   1426.77490     509.3675     398.7701   1426.77490     509.3675     398.7701
   1426.75964     512.3267     401.5662   1426.75964     512.3267     401.5662
   1426.74438     516.2702     404.5033   1426.74438     516.2702     404.5033
   1426.72913     519.4794     405.7651   1426.72913     519.4794     405.7651
   1426.71387     522.1279     409.2239   1426.71387     522.1279     409.2239
   1426.69861     524.9788     411.5370   1426.69861     524.9788     411.5370
   1426.68335     527.7186     413.5863   1426.68335     527.7186     413.5863
   1426.66809     530.5024     416.4176   1426.66809     530.5024     416.4176
   1426.65283     533.7371     418.5665   1426.65283     533.7371     418.5665
   1426.63757     537.3214     421.2830   1426.63757     537.3214     421.2830
   1426.62231     544.2621     425.6640   1426.62231     544.2621     425.6640
   1426.60706     543.0119     425.9600   1426.60706     543.0119     425.9600
   1426.59180     545.6357     428.6713   1426.59180     545.6357     428.6713
   1426.57654     548.8506     430.8362   1426.57654     548.8506     430.8362
   1426.56128     552.2185     433.4370   1426.56128     552.2185     433.4370
   1426.54602     554.4592     435.9385   1426.54602     554.4592     435.9385
   1426.53076     557.7850     438.4819   1426.53076     557.7850     438.4819
   1426.51550     559.9008     441.1170   1426.51550     559.9008     441.1170
   1426.50024     563.2617     443.5619   1426.50024     563.2617     443.5619
   1426.48499     566.1588     445.6505   1426.48499     566.1588     445.6505
   1426.46973     568.5862     447.9641   1426.46973     568.5862     447.9641
   1426.45447     571.9462     450.9246   1426.45447     571.9462     450.9246
   1426.43921     575.4802     453.4574   1426.43921     575.4802     453.4574
   1426.42395     577.9883     455.9878   1426.42395     577.9883     455.9878
   1426.40869     580.5876     458.9266   1426.40869     580.5876     458.9266
   1426.39343     583.4183     461.2737   1426.39343     583.4183     461.2737
   1426.37817     587.0981     463.7203   1426.37817     587.0981     463.7203
   1426.36292     589.8263     466.6142   1426.36292     589.8263     466.6142
   1426.34766     592.3658     467.8335   1426.34766     592.3658     467.8335
   1426.33240     594.4245     470.7016   1426.33240     594.4245     470.7016
   1426.31714     596.7656     472.8419   1426.31714     596.7656     472.8419
   1426.30188     600.1622     476.3358   1426.30188     600.1622     476.3358
   1426.28662     604.0984     479.1889   1426.28662     604.0984     479.1889
   1426.27136     606.0172     481.1972   1426.27136     606.0172     481.1972
   1426.25610     608.6154     483.4337   1426.25610     608.6154     483.4337
   1426.24084     611.2455     485.9082   1426.24084     611.2455     485.9082
   1426.22559     614.4529     489.1004   1426.22559     614.4529     489.1004
   1426.21033     617.1320     491.1713   1426.21033     617.1320     491.1713
   1426.19507     620.0798     493.4713   1426.19507     620.0798     493.4713
   1426.17981     622.6735     495.7364   1426.17981     622.6735     495.7364
   1426.16455     624.9175     497.7834   1426.16455     624.9175     497.7834
   1426.14929     627.6332     500.5506   1426.14929     627.6332     500.5506
   1426.13403     628.9427     503.0089   1426.13403     628.9427     503.0089
   1426.11877     631.1716     505.4196   1426.11877     631.1716     505.4196
   1426.10352     634.6754     507.3019   1426.10352     634.6754     507.3019
   1426.08826     636.7500     510.3268   1426.08826     636.7500     510.3268
   1426.07300     638.5914     511.6944   1426.07300     638.5914     511.6944
   1426.05774     641.2481     514.6388   1426.05774     641.2481     514.6388
   1426.04248     644.0601     517.1315   1426.04248     644.0601     517.1315
   1426.02722     645.2608     519.0145   1426.02722     645.2608     519.0145
   1426.01196     649.8330     521.5769   1426.01196     649.8330     521.5769
   1425.99670     650.9106     524.1206   1425.99670     650.9106     524.1206
   1425.98145     653.9545     525.9363   1425.98145     653.9545     525.9363
   1425.96619     655.7725     527.6639   1425.96619     655.7725     527.6639
   1425.95093     657.9645     530.3479   1425.95093     657.9645     530.3479
   1425.93567     660.2269     533.4042   1425.93567     660.2269     533.4042
   1425.92041     662.2586     535.9946   1425.92041     662.2586     535.9946
   1425.90515     664.4122     536.6953   1425.90515     664.4122     536.6953
   1425.88989     666.0941     539.4098   1425.88989     666.0941     539.4098
   1425.87463     669.3345     541.5623   1425.87463     669.3345     541.5623
   1425.85938     670.4880     544.3232   1425.85938     670.4880     544.3232
   1425.84412     672.3967     546.3788   1425.84412     672.3967     546.3788
   1425.82886     674.6469     548.3911   1425.82886     674.6469     548.3911
   1425.81360     676.6417     550.4595   1425.81360     676.6417     550.4595
   1425.79834     679.1768     552.5242   1425.79834     679.1768     552.5242
   1425.78308     681.7272     554.8379   1425.78308     681.7272     554.8379
   1425.76782     681.8642     555.8178   1425.76782     681.8642     555.8178
   1425.75256     684.2911     558.3830   1425.75256     684.2911     558.3830
   1425.73730     686.3917     560.9619   1425.73730     686.3917     560.9619
   1425.72205     687.6743     562.8674   1425.72205     687.6743     562.8674
   1425.70679     690.2417     564.4767   1425.70679     690.2417     564.4767
   1425.69153     691.0553     567.6310   1425.69153     691.0553     567.6310
   1425.67627     693.5018     568.5620   1425.67627     693.5018     568.5620
   1425.66101     695.7246     570.6871   1425.66101     695.7246     570.6871
   1425.64575     696.4004     572.6857   1425.64575     696.4004     572.6857
   1425.63049     697.2458     574.9130   1425.63049     697.2458     574.9130
   1425.61523     699.2963     576.2165   1425.61523     699.2963     576.2165
   1425.59998     700.7638     578.3072   1425.59998     700.7638     578.3072
   1425.58472     702.7667     580.6723   1425.58472     702.7667     580.6723
   1425.56946     703.9023     582.9032   1425.56946     703.9023     582.9032
   1425.55420     706.0655     584.2002   1425.55420     706.0655     584.2002
   1425.53894     707.3802     586.2693   1425.53894     707.3802     586.2693
   1425.52368     708.1613     588.0296   1425.52368     708.1613     588.0296
   1425.50842     710.1512     589.6207   1425.50842     710.1512     589.6207
   1425.49316     711.3906     592.3056   1425.49316     711.3906     592.3056
   1425.47791     712.3079     593.7581   1425.47791     712.3079     593.7581
   1425.46265     714.1940     595.5292   1425.46265     714.1940     595.5292
   1425.44739     714.8701     597.7787   1425.44739     714.8701     597.7787
   1425.43213     715.4578     599.1761   1425.43213     715.4578     599.1761
   1425.41687     717.3451     600.9412   1425.41687     717.3451     600.9412
   1425.40161     718.5144     602.5897   1425.40161     718.5144     602.5897
   1425.38635     720.3391     604.5134   1425.38635     720.3391     604.5134
   1425.37109     721.4913     606.2068   1425.37109     721.4913     606.2068
   1425.35583     721.9421     607.3423   1425.35583     721.9421     607.3423
   1425.34058     722.9816     609.5158   1425.34058     722.9816     609.5158
   1425.32532     724.1296     611.4627   1425.32532     724.1296     611.4627
   1425.31006     724.8623     613.8810   1425.31006     724.8623     613.8810
   1425.29480     726.1440     614.5516   1425.29480     726.1440     614.5516
   1425.27954     727.5020     616.1573   1425.27954     727.5020     616.1573
   1425.26428     728.0250     617.6048   1425.26428     728.0250     617.6048
   1425.24902     727.7033     619.4819   1425.24902     727.7033     619.4819
   1425.23376     728.9098     621.1345   1425.23376     728.9098     621.1345
   1425.21851     731.2133     621.4695   1425.21851     731.2133     621.4695
   1425.20325     731.1729     623.2187   1425.20325     731.1729     623.2187
   1425.18799     732.0359     625.2924   1425.18799     732.0359     625.2924
   1425.17273     732.3230     627.2028   1425.17273     732.3230     627.2028
   1425.15747     732.6041     627.9510   1425.15747     732.6041     627.9510
   1425.14221     734.7162     629.6072   1425.14221     734.7162     629.6072
   1425.12695     734.0963     630.2317   1425.12695     734.0963     630.2317
   1425.11169     735.0167     632.8281   1425.11169     735.0167     632.8281
   1425.09644     735.9026     632.6921   1425.09644     735.9026     632.6921
   1425.08118     736.9183     635.1085   1425.08118     736.9183     635.1085
   1425.06592     737.8055     636.2316   1425.06592     737.8055     636.2316
   1425.05066     738.2713     637.3265   1425.05066     738.2713     637.3265
   1425.03540     739.0472     638.8552   1425.03540     739.0472     638.8552
   1425.02014     739.3098     639.2241   1425.02014     739.3098     639.2241
   1425.00488     739.1594     642.1552   1425.00488     739.1594     642.1552
   1424.98962     740.3022     641.9567   1424.98962     740.3022     641.9567
   1424.97437     740.2325     643.2882   1424.97437     740.2325     643.2882
   1424.95911     740.8684     645.6382   1424.95911     740.8684     645.6382
   1424.94385     742.3510     646.0782   1424.94385     742.3510     646.0782
   1424.92859     741.7236     647.1246   1424.92859     741.7236     647.1246
   1424.91333     741.9429     649.1641   1424.91333     741.9429     649.1641
   1424.89807     742.9337     649.2433   1424.89807     742.9337     649.2433
   1424.88281     742.6795     650.1624   1424.88281     742.6795     650.1624
   1424.86755     742.4251     652.0829   1424.86755     742.4251     652.0829
   1424.85229     743.3381     653.8087   1424.85229     743.3381     653.8087
   1424.83704     743.3079     653.9926   1424.83704     743.3079     653.9926
   1424.82178     744.4664     654.2222   1424.82178     744.4664     654.2222
   1424.80652     744.1708     656.0154   1424.80652     744.1708     656.0154
   1424.79126     743.8452     657.4288   1424.79126     743.8452     657.4288
   1424.77600     744.5721     657.4669   1424.77600     744.5721     657.4669
   1424.76074     745.0899     659.6868   1424.76074     745.0899     659.6868
   1424.74548     745.7219     660.1656   1424.74548     745.7219     660.1656
   1424.73022     744.6954     660.3333   1424.73022     744.6954     660.3333
   1424.71497     745.1991     662.4916   1424.71497     745.1991     662.4916
   1424.69971     745.1411     663.0916   1424.69971     745.1411     663.0916
   1424.68445     746.6860     662.8555   1424.68445     746.6860     662.8555
   1424.66919     744.8792     665.3733   1424.66919     744.8792     665.3733
   1424.65393     745.9600     665.9710   1424.65393     745.9600     665.9710
   1424.63867     746.6871     666.1771   1424.63867     746.6871     666.1771
   1424.62341     745.1504     668.2493   1424.62341     745.1504     668.2493
   1424.60815     748.4147     668.5540   1424.60815     748.4147     668.5540
   1424.59290     747.0504     669.7342   1424.59290     747.0504     669.7342
   1424.57764     745.7832     668.7047   1424.57764     745.7832     668.7047
   1424.56238     745.4626     670.3659   1424.56238     745.4626     670.3659
   1424.54712     747.8066     671.6607   1424.54712     747.8066     671.6607
   1424.53186     747.3619     672.3534   1424.53186     747.3619     672.3534
   1424.51660     746.1011     672.8599   1424.51660     746.1011     672.8599
   1424.50134     746.7751     673.4729   1424.50134     746.7751     673.4729
   1424.48608     746.0748     673.8293   1424.48608     746.0748     673.8293
   1424.47083     745.4732     675.3604   1424.47083     745.4732     675.3604
   1424.45557     745.7654     675.3797   1424.45557     745.7654     675.3797
   1424.44031     746.4399     677.2407   1424.44031     746.4399     677.2407
   1424.42505     747.2485     676.7006   1424.42505     747.2485     676.7006
   1424.40979     746.6436     677.6714   1424.40979     746.6436     677.6714
   1424.39453     745.8129     679.2417   1424.39453     745.8129     679.2417
   1424.37927     745.7286     678.9954   1424.37927     745.7286     678.9954
   1424.36401     746.2999     678.2849   1424.36401     746.2999     678.2849
   1424.34875     746.3727     680.8382   1424.34875     746.3727     680.8382
   1424.33350     745.6443     680.7077   1424.33350     745.6443     680.7077
   1424.31824     747.2466     680.9053   1424.31824     747.2466     680.9053
   1424.30298     745.9622     682.3168   1424.30298     745.9622     682.3168
   1424.28772     746.3759     682.7027   1424.28772     746.3759     682.7027
   1424.27246     744.7643     682.6251   1424.27246     744.7643     682.6251
   1424.25720     744.5278     684.1331   1424.25720     744.5278     684.1331
   1424.24194     744.7379     683.6627   1424.24194     744.7379     683.6627
   1424.22668     744.8848     684.5416   1424.22668     744.8848     684.5416
   1424.21143     744.2639     683.9435   1424.21143     744.2639     683.9435
   1424.19617     742.8093     684.5579   1424.19617     742.8093     684.5579
   1424.18091     745.7534     685.8593   1424.18091     745.7534     685.8593
   1424.16565     745.0821     685.2095   1424.16565     745.0821     685.2095
   1424.15039     743.8608     686.4494   1424.15039     743.8608     686.4494
   1424.13513     742.7323     686.6672   1424.13513     742.7323     686.6672
   1424.11987     744.9142     687.2223   1424.11987     744.9142     687.2223
   1424.10461     743.7910     687.0060   1424.10461     743.7910     687.0060
   1424.08936     742.7230     687.7629   1424.08936     742.7230     687.7629
   1424.07410     742.5515     687.3943   1424.07410     742.5515     687.3943
   1424.05884     743.3513     688.5549   1424.05884     743.3513     688.5549
   1424.04358     742.2059     689.0067   1424.04358     742.2059     689.0067
   1424.02832     742.6729     688.1697   1424.02832     742.6729     688.1697
   1424.01306     742.5568     688.2493   1424.01306     742.5568     688.2493
   1423.99780     742.1073     688.8956   1423.99780     742.1073     688.8956
   1423.98254     740.8053     688.3051   1423.98254     740.8053     688.3051
   1423.96729     741.5812     688.7246   1423.96729     741.5812     688.7246
   1423.95203     741.2508     688.5239   1423.95203     741.2508     688.5239
   1423.93677     741.2310     690.1018   1423.93677     741.2310     690.1018
   1423.92151     740.6110     689.2977   1423.92151     740.6110     689.2977
   1423.90625     740.6483     689.2909   1423.90625     740.6483     689.2909
   1423.89099     740.4780     689.1391   1423.89099     740.4780     689.1391
   1423.87573     741.2589     689.6550   1423.87573     741.2589     689.6550
   1423.86047     739.9816     689.5809   1423.86047     739.9816     689.5809
   1423.84521     738.9728     689.2036   1423.84521     738.9728     689.2036
   1423.82996     738.7043     688.6824   1423.82996     738.7043     688.6824
   1423.81470     738.5131     688.2492   1423.81470     738.5131     688.2492
   1423.79944     738.7244     688.8604   1423.79944     738.7244     688.8604
   1423.78418     737.8849     689.1028   1423.78418     737.8849     689.1028
   1423.76892     738.1146     688.4681   1423.76892     738.1146     688.4681
   1423.75366     738.1674     688.3081   1423.75366     738.1674     688.3081
   1423.73840     738.8405     687.8408   1423.73840     738.8405     687.8408
   1423.72314     736.8541     686.8910   1423.72314     736.8541     686.8910
   1423.70789     737.6944     688.2832   1423.70789     737.6944     688.2832
   1423.69263     737.0892     687.9532   1423.69263     737.0892     687.9532
   1423.67737     736.4916     687.6728   1423.67737     736.4916     687.6728
   1423.66211     735.7509     686.7885   1423.66211     735.7509     686.7885
   1423.64685     736.1550     686.4850   1423.64685     736.1550     686.4850
   1423.63159     736.1316     686.2739   1423.63159     736.1316     686.2739
   1423.61633     735.6909     686.6284   1423.61633     735.6909     686.6284
   1423.60107     735.8345     685.4317   1423.60107     735.8345     685.4317
   1423.58582     734.8696     685.7987   1423.58582     734.8696     685.7987
   1423.57056     734.9888     682.9345   1423.57056     734.9888     682.9345
   1423.55530     733.9749     685.4481   1423.55530     733.9749     685.4481
   1423.54004     734.2015     684.5253   1423.54004     734.2015     684.5253
   1423.52478     733.7870     683.4730   1423.52478     733.7870     683.4730
   1423.50952     735.2665     683.6564   1423.50952     735.2665     683.6564
   1423.49426     733.2946     682.3704   1423.49426     733.2946     682.3704
   1423.47900     733.8320     682.6121   1423.47900     733.8320     682.6121
   1423.46375     733.1455     682.7989   1423.46375     733.1455     682.7989
   1423.44849     732.8466     680.8243   1423.44849     732.8466     680.8243
   1423.43323     732.7265     679.8777   1423.43323     732.7265     679.8777
   1423.41797     731.4799     680.4355   1423.41797     731.4799     680.4355
   1423.40271     731.2505     679.2612   1423.40271     731.2505     679.2612
   1423.38745     731.9719     680.0136   1423.38745     731.9719     680.0136
   1423.37219     731.3881     678.6609   1423.37219     731.3881     678.6609
   1423.35693     729.9146     678.0311   1423.35693     729.9146     678.0311
   1423.34167     729.6613     677.3981   1423.34167     729.6613     677.3981
   1423.32642     730.2148     677.6071   1423.32642     730.2148     677.6071
   1423.31116     730.5184     676.4961   1423.31116     730.5184     676.4961
   1423.29590     731.0748     676.3782   1423.29590     731.0748     676.3782
   1423.28064     729.5916     674.8823   1423.28064     729.5916     674.8823
   1423.26538     729.9249     674.2473   1423.26538     729.9249     674.2473
   1423.25012     728.6672     672.8378   1423.25012     728.6672     672.8378
   1423.23486     728.9299     672.2261   1423.23486     728.9299     672.2261
   1423.21960     729.0673     671.4117   1423.21960     729.0673     671.4117
   1423.20435     728.2593     670.6729   1423.20435     728.2593     670.6729
   1423.18909     727.3193     669.2636   1423.18909     727.3193     669.2636
   1423.17383     727.5184     668.6459   1423.17383     727.5184     668.6459
   1423.15857     726.8188     668.2062   1423.15857     726.8188     668.2062
   1423.14331     726.7077     667.1242   1423.14331     726.7077     667.1242
   1423.12805     727.0084     666.7097   1423.12805     727.0084     666.7097
   1423.11279     726.5566     664.8892   1423.11279     726.5566     664.8892
   1423.09753     726.8598     665.5252   1423.09753     726.8598     665.5252
   1423.08228     727.4235     663.5147   1423.08228     727.4235     663.5147
   1423.06702     726.1030     662.8275   1423.06702     726.1030     662.8275
   1423.05176     726.0147     663.0012   1423.05176     726.0147     663.0012
   1423.03650     725.8359     660.8689   1423.03650     725.8359     660.8689
   1423.02124     725.9899     660.3865   1423.02124     725.9899     660.3865
   1423.00598     724.9964     658.3411   1423.00598     724.9964     658.3411
   1422.99072     724.6170     658.2333   1422.99072     724.6170     658.2333
   1422.97546     723.6490     657.8495   1422.97546     723.6490     657.8495
   1422.96021     724.5634     656.2437   1422.96021     724.5634     656.2437
   1422.94495     723.2798     655.2744   1422.94495     723.2798     655.2744
   1422.92969     722.8834     654.6238   1422.92969     722.8834     654.6238
   1422.91443     723.4052     653.4790   1422.91443     723.4052     653.4790
   1422.89917     722.4356     651.8621   1422.89917     722.4356     651.8621
   1422.88391     722.6343     650.9622   1422.88391     722.6343     650.9622
   1422.86865     723.2529     651.2084   1422.86865     723.2529     651.2084
   1422.85339     721.8218     648.3028   1422.85339     721.8218     648.3028
   1422.83813     722.4727     647.4886   1422.83813     722.4727     647.4886
   1422.82288     721.1826     647.6358   1422.82288     721.1826     647.6358
   1422.80762     721.0314     645.7045   1422.80762     721.0314     645.7045
   1422.79236     720.9192     643.8342   1422.79236     720.9192     643.8342
   1422.77710     721.7411     642.7665   1422.77710     721.7411     642.7665
   1422.76184     720.8176     643.3823   1422.76184     720.8176     643.3823
   1422.74658     720.7910     640.8360   1422.74658     720.7910     640.8360
   1422.73132     721.5453     639.9789   1422.73132     721.5453     639.9789
   1422.71606     719.3567     638.9690   1422.71606     719.3567     638.9690
   1422.70081     720.5772     637.7170   1422.70081     720.5772     637.7170
   1422.68555     720.0244     636.3815   1422.68555     720.0244     636.3815
   1422.67029     720.3075     635.4402   1422.67029     720.3075     635.4402
   1422.65503     719.1556     634.5491   1422.65503     719.1556     634.5491
   1422.63977     719.2997     632.9584   1422.63977     719.2997     632.9584
   1422.62451     719.6368     632.4792   1422.62451     719.6368     632.4792
   1422.60925     718.1647     630.4228   1422.60925     718.1647     630.4228
   1422.59399     718.2366     629.3000   1422.59399     718.2366     629.3000
   1422.57874     718.3232     627.5181   1422.57874     718.3232     627.5181
   1422.56348     718.1860     626.8842   1422.56348     718.1860     626.8842
   1422.54822     717.8905     624.7733   1422.54822     717.8905     624.7733
   1422.53296     717.0887     624.1806   1422.53296     717.0887     624.1806
   1422.51770     716.7437     622.8615   1422.51770     716.7437     622.8615
   1422.50244     716.2410     622.1726   1422.50244     716.2410     622.1726
   1422.48718     716.2264     620.0279   1422.48718     716.2264     620.0279
   1422.47192     715.6707     618.4688   1422.47192     715.6707     618.4688
   1422.45667     715.6818     617.4076   1422.45667     715.6818     617.4076
   1422.44141     715.6296     614.7097   1422.44141     715.6296     614.7097
   1422.42615     715.7420     615.1008   1422.42615     715.7420     615.1008
   1422.41089     715.6507     613.8221   1422.41089     715.6507     613.8221
   1422.39563     715.7993     612.2400   1422.39563     715.7993     612.2400
   1422.38037     714.7025     610.7398   1422.38037     714.7025     610.7398
   1422.36511     715.8618     609.9998   1422.36511     715.8618     609.9998
   1422.34985     714.0129     608.0640   1422.34985     714.0129     608.0640
   1422.33459     714.6439     607.7753   1422.33459     714.6439     607.7753
   1422.31934     714.8234     606.3761   1422.31934     714.8234     606.3761
   1422.30408     713.6265     604.1912   1422.30408     713.6265     604.1912
   1422.28882     713.6405     604.0305   1422.28882     713.6405     604.0305
   1422.27356     713.6567     601.7058   1422.27356     713.6567     601.7058
   1422.25830     713.6970     600.6810   1422.25830     713.6970     600.6810
   1422.24304     712.9019     599.3784   1422.24304     712.9019     599.3784
   1422.22778     713.0114     597.6454   1422.22778     713.0114     597.6454
   1422.21252     713.1894     596.4633   1422.21252     713.1894     596.4633
   1422.19727     714.0556     595.3171   1422.19727     714.0556     595.3171
   1422.18201     711.9645     594.3873   1422.18201     711.9645     594.3873
   1422.16675     712.1264     592.3729   1422.16675     712.1264     592.3729
   1422.15149     711.1771     590.9590   1422.15149     711.1771     590.9590
   1422.13623     711.9669     589.6713   1422.13623     711.9669     589.6713
   1422.12097     710.3048     588.5742   1422.12097     710.3048     588.5742
   1422.10571     711.6407     586.5337   1422.10571     711.6407     586.5337
   1422.09045     711.3338     585.2455   1422.09045     711.3338     585.2455
   1422.07520     709.1520     584.7783   1422.07520     709.1520     584.7783
   1422.05994     710.4950     583.2074   1422.05994     710.4950     583.2074
   1422.04468     709.6755     580.7964   1422.04468     709.6755     580.7964
   1422.02942     708.7526     580.6349   1422.02942     708.7526     580.6349
   1422.01416     711.0364     578.6628   1422.01416     711.0364     578.6628
   1421.99890     709.9529     576.7136   1421.99890     709.9529     576.7136
   1421.98364     708.5853     576.1544   1421.98364     708.5853     576.1544
   1421.96838     709.8494     574.4175   1421.96838     709.8494     574.4175
   1421.95312     709.6412     573.6695   1421.95312     709.6412     573.6695
   1421.93787     709.2097     571.2892   1421.93787     709.2097     571.2892
   1421.92261     710.2141     570.2344   1421.92261     710.2141     570.2344
   1421.90735     708.1978     569.0363   1421.90735     708.1978     569.0363
   1421.89209     708.2062     567.6410   1421.89209     708.2062     567.6410
   1421.87683     707.6447     565.4114   1421.87683     707.6447     565.4114
   1421.86157     708.3046     564.4324   1421.86157     708.3046     564.4324
   1421.84631     708.5797     563.1439   1421.84631     708.5797     563.1439
   1421.83105     707.0746     562.2646   1421.83105     707.0746     562.2646
   1421.81580     706.9240     560.7608   1421.81580     706.9240     560.7608
   1421.80054     707.4974     559.1489   1421.80054     707.4974     559.1489
   1421.78528     706.5880     557.8869   1421.78528     706.5880     557.8869
   1421.77002     706.3783     556.7047   1421.77002     706.3783     556.7047
   1421.75476     706.4614     555.0814   1421.75476     706.4614     555.0814
   1421.73950     705.6977     553.3120   1421.73950     705.6977     553.3120
   1421.72424     704.8491     551.9559   1421.72424     704.8491     551.9559
   1421.70898     705.2103     551.3683   1421.70898     705.2103     551.3683
   1421.69373     705.7897     549.9577   1421.69373     705.7897     549.9577
   1421.67847     705.7394     549.4199   1421.67847     705.7394     549.4199
   1421.66321     705.6169     546.7216   1421.66321     705.6169     546.7216
   1421.64795     704.5345     545.4817   1421.64795     704.5345     545.4817
   1421.63269     703.9734     544.4434   1421.63269     703.9734     544.4434
   1421.61743     703.6332     542.6267   1421.61743     703.6332     542.6267
   1421.60217     703.4908     541.6041   1421.60217     703.4908     541.6041
   1421.58691     703.5837     540.3549   1421.58691     703.5837     540.3549
   1421.57166     703.5487     539.7415   1421.57166     703.5487     539.7415
   1421.55640     703.4344     537.6421   1421.55640     703.4344     537.6421
   1421.54114     703.0059     536.3747   1421.54114     703.0059     536.3747
   1421.52588     702.8181     535.2872   1421.52588     702.8181     535.2872
   1421.51062     702.0172     533.5788   1421.51062     702.0172     533.5788
   1421.49536     702.5316     533.1089   1421.49536     702.5316     533.1089
   1421.48010     702.0906     531.5427   1421.48010     702.0906     531.5427
   1421.46484     702.2665     530.0681   1421.46484     702.2665     530.0681
   1421.44958     701.2259     527.7650   1421.44958     701.2259     527.7650
   1421.43433     701.1706     527.3428   1421.43433     701.1706     527.3428
   1421.41907     701.0444     526.0515   1421.41907     701.0444     526.0515
   1421.40381     700.5471     524.6320   1421.40381     700.5471     524.6320
   1421.38855     700.8931     523.1148   1421.38855     700.8931     523.1148
   1421.37329     699.7929     521.9609   1421.37329     699.7929     521.9609
   1421.35803     699.2637     521.9683   1421.35803     699.2637     521.9683
   1421.34277     700.0404     520.1957   1421.34277     700.0404     520.1957
   1421.32751     699.7373     518.4286   1421.32751     699.7373     518.4286
   1421.31226     699.2717     517.2361   1421.31226     699.2717     517.2361
   1421.29700     699.1736     516.4656   1421.29700     699.1736     516.4656
   1421.28174     699.6037     514.2944   1421.28174     699.6037     514.2944
   1421.26648     698.9626     513.0595   1421.26648     698.9626     513.0595
   1421.25122     699.8660     512.0037   1421.25122     699.8660     512.0037
   1421.23596     699.4012     511.3668   1421.23596     699.4012     511.3668
   1421.22070     698.6482     509.8430   1421.22070     698.6482     509.8430
   1421.20544     698.2026     508.3985   1421.20544     698.2026     508.3985
   1421.19019     697.0830     506.9103   1421.19019     697.0830     506.9103
   1421.17493     696.8481     506.4781   1421.17493     696.8481     506.4781
   1421.15967     696.4498     506.1178   1421.15967     696.4498     506.1178
   1421.14441     696.1929     503.8293   1421.14441     696.1929     503.8293
   1421.12915     696.2534     502.9560   1421.12915     696.2534     502.9560
   1421.11389     695.9897     500.5127   1421.11389     695.9897     500.5127
   1421.09863     696.8003     499.5841   1421.09863     696.8003     499.5841
   1421.08337     694.5798     498.7039   1421.08337     694.5798     498.7039
   1421.06812     696.0304     497.1812   1421.06812     696.0304     497.1812
   1421.05286     694.4438     496.9950   1421.05286     694.4438     496.9950
   1421.03760     693.5994     495.9379   1421.03760     693.5994     495.9379
   1421.02234     694.9957     494.5438   1421.02234     694.9957     494.5438
   1421.00708     695.5728     492.8411   1421.00708     695.5728     492.8411
   1420.99182     693.8723     492.2647   1420.99182     693.8723     492.2647
   1420.97656     693.8837     491.2665   1420.97656     693.8837     491.2665
   1420.96130     694.1652     490.4465   1420.96130     694.1652     490.4465
   1420.94604     692.9127     488.9875   1420.94604     692.9127     488.9875
   1420.93079     693.1780     487.8107   1420.93079     693.1780     487.8107
   1420.91553     693.0118     486.3192   1420.91553     693.0118     486.3192
   1420.90027     693.2272     485.9686   1420.90027     693.2272     485.9686
   1420.88501     693.0899     485.1297   1420.88501     693.0899     485.1297
   1420.86975     692.4960     483.9304   1420.86975     692.4960     483.9304
   1420.85449     691.2180     482.7687   1420.85449     691.2180     482.7687
   1420.83923     692.7879     481.6499   1420.83923     692.7879     481.6499
   1420.82397     693.3385     480.7003   1420.82397     693.3385     480.7003
   1420.80872     692.9277     480.5433   1420.80872     692.9277     480.5433
   1420.79346     691.6047     479.9095   1420.79346     691.6047     479.9095
   1420.77820     692.6828     478.7926   1420.77820     692.6828     478.7926
   1420.76294     693.2754     478.1622   1420.76294     693.2754     478.1622
   1420.74768     692.1988     477.0105   1420.74768     692.1988     477.0105
   1420.73242     692.0641     475.4165   1420.73242     692.0641     475.4165
   1420.71716     692.1799     475.1606   1420.71716     692.1799     475.1606
   1420.70190     692.8716     474.6590   1420.70190     692.8716     474.6590
   1420.68665     691.7197     472.5407   1420.68665     691.7197     472.5407
   1420.67139     692.0125     471.9982   1420.67139     692.0125     471.9982
   1420.65613     691.8864     471.2793   1420.65613     691.8864     471.2793
   1420.64087     691.4333     470.6437   1420.64087     691.4333     470.6437
   1420.62561     691.5992     469.0543   1420.62561     691.5992     469.0543
   1420.61035     692.1033     467.6141   1420.61035     692.1033     467.6141
   1420.59509     690.2155     467.7133   1420.59509     690.2155     467.7133
   1420.57983     691.8378     466.6874   1420.57983     691.8378     466.6874
   1420.56458     692.6022     466.8343   1420.56458     692.6022     466.8343
   1420.54932     693.8184     466.7737   1420.54932     693.8184     466.7737
   1420.53406     695.0530     466.7748   1420.53406     695.0530     466.7748
   1420.51880     695.3376     466.6137   1420.51880     695.3376     466.6137
   1420.50354     694.7759     465.6689   1420.50354     694.7759     465.6689
   1420.48828     695.8845     465.0903   1420.48828     695.8845     465.0903
   1420.47302     695.8160     464.5637   1420.47302     695.8160     464.5637
   1420.45776     695.0465     463.0248   1420.45776     695.0465     463.0248
   1420.44250     693.8808     461.4624   1420.44250     693.8808     461.4624
   1420.42725     694.3302     459.9789   1420.42725     694.3302     459.9789
   1420.41199     693.5815     459.6635   1420.41199     693.5815     459.6635
   1420.39673     692.3933     458.4168   1420.39673     692.3933     458.4168
   1420.38147     693.8233     458.3864   1420.38147     693.8233     458.3864
   1420.36621     693.2728     457.7308   1420.36621     693.2728     457.7308
   1420.35095     693.7791     456.9619   1420.35095     693.7791     456.9619
   1420.33569     695.0439     456.6638   1420.33569     695.0439     456.6638
   1420.32043     696.0382     457.6818   1420.32043     696.0382     457.6818
   1420.30518     699.2361     458.3725   1420.30518     699.2361     458.3725
   1420.28992     703.9210     461.3210   1420.28992     703.9210     461.3210
   1420.27466     719.6611     469.0224   1420.27466     719.6611     469.0224
   1420.25940     765.2253     498.3180   1420.25940     765.2253     498.3180
   1420.24414     984.7597     634.0829   1420.24414     984.7597     634.0829
   1420.22888    1294.8741     825.1180   1420.22888    1294.8741     825.1180
   1420.21362    1036.5184     664.6881   1420.21362    1036.5184     664.6881
   1420.19836     950.3002     609.4498   1420.19836     950.3002     609.4498
   1420.18311    1010.8575     645.5403   1420.18311    1010.8575     645.5403
   1420.16785    1223.7275     776.8541   1420.16785    1223.7275     776.8541
   1420.15259    1526.3116     961.6970   1420.15259    1526.3116     961.6970
   1420.13733    1898.6749    1189.8016   1420.13733    1898.6749    1189.8016
   1420.12207    2013.2964    1259.5634   1420.12207    2013.2964    1259.5634
   1420.10681    1963.8027    1227.2375   1420.10681    1963.8027    1227.2375
   1420.09155    1804.2316    1130.1627   1420.09155    1804.2316    1130.1627
   1420.07629    1379.7385     869.1118   1420.07629    1379.7385     869.1118
   1420.06104    1060.7142     672.2013   1420.06104    1060.7142     672.2013
   1420.04578    1261.5813     792.4434   1420.04578    1261.5813     792.4434
   1420.03052    1661.9794    1039.4265   1420.03052    1661.9794    1039.4265
   1420.01526    1864.2186    1159.6394   1420.01526    1864.2186    1159.6394
   1420.00000    1834.8281    1140.8958   1420.00000    1834.8281    1140.8958
   1419.98474    1805.4385    1122.1523   1419.98474    1805.4385    1122.1523
   1419.96948    1813.1093    1125.2073   1419.96948    1813.1093    1125.2073
   1419.95422    1847.0898    1142.5872   1419.95422    1847.0898    1142.5872
   1419.93896    1863.7229    1150.2115   1419.93896    1863.7229    1150.2115
   1419.92371    1783.5786    1098.9995   1419.92371    1783.5786    1098.9995
   1419.90845    1707.0486    1055.2491   1419.90845    1707.0486    1055.2491
   1419.89319    1612.4559     996.3958   1419.89319    1612.4559     996.3958
   1419.87793    1508.3058     931.8152   1419.87793    1508.3058     931.8152
   1419.86267    1513.4857     936.3325   1419.86267    1513.4857     936.3325
   1419.84741    1398.7272     861.8478   1419.84741    1398.7272     861.8478
   1419.83215    1173.7842     726.9352   1419.83215    1173.7842     726.9352
   1419.81689    1066.5493     661.6374   1419.81689    1066.5493     661.6374
   1419.80164     977.2724     605.5458   1419.80164     977.2724     605.5458
   1419.78638     862.4016     536.0303   1419.78638     862.4016     536.0303
   1419.77112     799.0536     498.4255   1419.77112     799.0536     498.4255
   1419.75586     774.1586     482.2185   1419.75586     774.1586     482.2185
   1419.74060     757.3532     473.5037   1419.74060     757.3532     473.5037
   1419.72534     744.3461     465.3356   1419.72534     744.3461     465.3356
   1419.71008     733.4565     457.5561   1419.71008     733.4565     457.5561
   1419.69482     723.3093     450.6135   1419.69482     723.3093     450.6135
   1419.67957     714.6294     445.0175   1419.67957     714.6294     445.0175
   1419.66431     706.6122     439.5903   1419.66431     706.6122     439.5903
   1419.64905     700.0696     436.4803   1419.64905     700.0696     436.4803
   1419.63379     696.4300     432.6729   1419.63379     696.4300     432.6729
   1419.61853     692.6238     430.8199   1419.61853     692.6238     430.8199
   1419.60327     691.5012     429.5720   1419.60327     691.5012     429.5720
   1419.58801     689.8722     428.3449   1419.58801     689.8722     428.3449
   1419.57275     689.6559     427.2252   1419.57275     689.6559     427.2252
   1419.55750     689.0940     426.5457   1419.55750     689.0940     426.5457
   1419.54224     687.8333     426.1542   1419.54224     687.8333     426.1542
   1419.52698     688.0060     425.9594   1419.52698     688.0060     425.9594
   1419.51172     688.9183     425.3553   1419.51172     688.9183     425.3553
   1419.49646     688.6434     425.3695   1419.49646     688.6434     425.3695
   1419.48120     688.1713     425.9417   1419.48120     688.1713     425.9417
   1419.46594     688.5413     424.8508   1419.46594     688.5413     424.8508
   1419.45068     688.6065     423.7838   1419.45068     688.6065     423.7838
   1419.43542     689.1675     425.1533   1419.43542     689.1675     425.1533
   1419.42017     689.6938     424.1190   1419.42017     689.6938     424.1190
   1419.40491     688.5768     423.7461   1419.40491     688.5768     423.7461
   1419.38965     689.7022     424.0490   1419.38965     689.7022     424.0490
   1419.37439     689.2299     423.7587   1419.37439     689.2299     423.7587
   1419.35913     689.4400     423.1180   1419.35913     689.4400     423.1180
   1419.34387     690.3527     423.0407   1419.34387     690.3527     423.0407
   1419.32861     688.5786     422.9074   1419.32861     688.5786     422.9074
   1419.31335     690.3160     423.6751   1419.31335     690.3160     423.6751
   1419.29810     690.4817     422.2835   1419.29810     690.4817     422.2835
   1419.28284     692.8832     422.6683   1419.28284     692.8832     422.6683
   1419.26758     694.2517     422.8023   1419.26758     694.2517     422.8023
   1419.25232     692.4176     423.2145   1419.25232     692.4176     423.2145
   1419.23706     692.0269     422.9908   1419.23706     692.0269     422.9908
   1419.22180     692.0372     422.3862   1419.22180     692.0372     422.3862
   1419.20654     693.3102     422.7078   1419.20654     693.3102     422.7078
   1419.19128     693.5325     422.8643   1419.19128     693.5325     422.8643
   1419.17603     694.2540     423.1826   1419.17603     694.2540     423.1826
   1419.16077     694.5509     423.2434   1419.16077     694.5509     423.2434
   1419.14551     694.4529     422.4499   1419.14551     694.4529     422.4499
   1419.13025     695.4752     423.2505   1419.13025     695.4752     423.2505
   1419.11499     696.9615     423.0614   1419.11499     696.9615     423.0614
   1419.09973     695.7150     423.3492   1419.09973     695.7150     423.3492
   1419.08447     697.0886     423.2398   1419.08447     697.0886     423.2398
   1419.06921     696.9838     423.1502   1419.06921     696.9838     423.1502
   1419.05396     698.5338     424.1797   1419.05396     698.5338     424.1797
   1419.03870     699.0789     423.6439   1419.03870     699.0789     423.6439
   1419.02344     700.3032     424.6783   1419.02344     700.3032     424.6783
   1419.00818     699.9879     424.2213   1419.00818     699.9879     424.2213
   1418.99292     699.5563     424.0001   1418.99292     699.5563     424.0001
   1418.97766     700.9624     424.5682   1418.97766     700.9624     424.5682
   1418.96240     701.3293     424.8924   1418.96240     701.3293     424.8924
   1418.94714     701.9690     425.2767   1418.94714     701.9690     425.2767
   1418.93188     704.0646     424.9125   1418.93188     704.0646     424.9125
   1418.91663     703.2596     425.4914   1418.91663     703.2596     425.4914
   1418.90137     704.9091     425.6010   1418.90137     704.9091     425.6010
   1418.88611     705.1868     426.0425   1418.88611     705.1868     426.0425
   1418.87085     705.4354     425.9259   1418.87085     705.4354     425.9259
   1418.85559     705.6281     426.5306   1418.85559     705.6281     426.5306
   1418.84033     708.1903     426.8141   1418.84033     708.1903     426.8141
   1418.82507     708.2411     427.1794   1418.82507     708.2411     427.1794
   1418.80981     708.2959     426.9572   1418.80981     708.2959     426.9572
   1418.79456     709.1304     427.2346   1418.79456     709.1304     427.2346
   1418.77930     710.6949     428.2147   1418.77930     710.6949     428.2147
   1418.76404     710.6247     428.6519   1418.76404     710.6247     428.6519
   1418.74878     710.4075     428.1781   1418.74878     710.4075     428.1781
   1418.73352     713.1716     429.2158   1418.73352     713.1716     429.2158
   1418.71826     712.5354     428.7554   1418.71826     712.5354     428.7554
   1418.70300     713.6686     429.1511   1418.70300     713.6686     429.1511
   1418.68774     715.1194     430.2527   1418.68774     715.1194     430.2527
   1418.67249     715.5604     430.2181   1418.67249     715.5604     430.2181
   1418.65723     716.7634     430.5001   1418.65723     716.7634     430.5001
   1418.64197     717.4183     431.5054   1418.64197     717.4183     431.5054
   1418.62671     717.6854     431.0882   1418.62671     717.6854     431.0882
   1418.61145     719.3329     431.6522   1418.61145     719.3329     431.6522
   1418.59619     720.5878     432.3253   1418.59619     720.5878     432.3253
   1418.58093     721.0405     432.6805   1418.58093     721.0405     432.6805
   1418.56567     721.3931     432.9436   1418.56567     721.3931     432.9436
   1418.55042     722.5400     433.6690   1418.55042     722.5400     433.6690
   1418.53516     723.2884     434.4211   1418.53516     723.2884     434.4211
   1418.51990     723.0921     434.6872   1418.51990     723.0921     434.6872
   1418.50464     725.7778     434.8878   1418.50464     725.7778     434.8878
   1418.48938     725.8307     435.7206   1418.48938     725.8307     435.7206
   1418.47412     727.2884     435.6957   1418.47412     727.2884     435.6957
   1418.45886     727.9331     436.6180   1418.45886     727.9331     436.6180
   1418.44360     728.5819     436.8128   1418.44360     728.5819     436.8128
   1418.42834     729.9897     437.3887   1418.42834     729.9897     437.3887
   1418.41309     730.5438     438.6924   1418.41309     730.5438     438.6924
   1418.39783     731.8266     437.9821   1418.39783     731.8266     437.9821
   1418.38257     731.6849     438.6732   1418.38257     731.6849     438.6732
   1418.36731     732.9924     439.7168   1418.36731     732.9924     439.7168
   1418.35205     735.3751     440.0623   1418.35205     735.3751     440.0623
   1418.33679     735.1848     440.5660   1418.33679     735.1848     440.5660
   1418.32153     737.1324     441.1742   1418.32153     737.1324     441.1742
   1418.30627     737.7213     442.4142   1418.30627     737.7213     442.4142
   1418.29102     738.8250     442.2658   1418.29102     738.8250     442.2658
   1418.27576     741.5042     441.9092   1418.27576     741.5042     441.9092
   1418.26050     740.6113     443.1750   1418.26050     740.6113     443.1750
   1418.24524     742.5148     443.6958   1418.24524     742.5148     443.6958
   1418.22998     742.9632     443.9594   1418.22998     742.9632     443.9594
   1418.21472     745.3519     445.2551   1418.21472     745.3519     445.2551
   1418.19946     745.5454     445.3607   1418.19946     745.5454     445.3607
   1418.18420     747.3736     446.3391   1418.18420     747.3736     446.3391
   1418.16895     746.9208     446.8702   1418.16895     746.9208     446.8702
   1418.15369     749.0457     447.2881   1418.15369     749.0457     447.2881
   1418.13843     750.2659     448.1830   1418.13843     750.2659     448.1830
   1418.12317     751.0283     449.0081   1418.12317     751.0283     449.0081
   1418.10791     752.2257     449.0594   1418.10791     752.2257     449.0594
   1418.09265     754.8617     449.9545   1418.09265     754.8617     449.9545
   1418.07739     755.4277     450.1059   1418.07739     755.4277     450.1059
   1418.06213     756.6486     451.6463   1418.06213     756.6486     451.6463
   1418.04688     756.0698     451.7763   1418.04688     756.0698     451.7763
   1418.03162     757.6130     452.5561   1418.03162     757.6130     452.5561
   1418.01636     760.6702     452.8871   1418.01636     760.6702     452.8871
   1418.00110     760.7647     454.2084   1418.00110     760.7647     454.2084
   1417.98584     760.3878     454.4782   1417.98584     760.3878     454.4782
   1417.97058     762.3442     454.9858   1417.97058     762.3442     454.9858
   1417.95532     764.3126     455.6637   1417.95532     764.3126     455.6637
   1417.94006     765.7715     456.7310   1417.94006     765.7715     456.7310
   1417.92480     765.0917     456.4193   1417.92480     765.0917     456.4193
   1417.90955     768.1241     457.3523   1417.90955     768.1241     457.3523
   1417.89429     769.1222     458.2581   1417.89429     769.1222     458.2581
   1417.87903     769.1713     458.2394   1417.87903     769.1713     458.2394
   1417.86377     772.0947     458.9464   1417.86377     772.0947     458.9464
   1417.84851     773.9706     459.8990   1417.84851     773.9706     459.8990
   1417.83325     773.6157     460.4264   1417.83325     773.6157     460.4264
   1417.81799     775.2316     461.5128   1417.81799     775.2316     461.5128
   1417.80273     774.5059     461.3528   1417.80273     774.5059     461.3528
   1417.78748     777.5633     462.6794   1417.78748     777.5633     462.6794
   1417.77222     777.4039     462.9336   1417.77222     777.4039     462.9336
   1417.75696     780.5198     463.6429   1417.75696     780.5198     463.6429
   1417.74170     780.4578     464.3100   1417.74170     780.4578     464.3100
   1417.72644     782.1148     464.5374   1417.72644     782.1148     464.5374
   1417.71118     784.4995     465.8420   1417.71118     784.4995     465.8420
   1417.69592     785.0399     465.9372   1417.69592     785.0399     465.9372
   1417.68066     786.2844     466.8758   1417.68066     786.2844     466.8758
   1417.66541     788.0213     468.1190   1417.66541     788.0213     468.1190
   1417.65015     787.9367     468.4336   1417.65015     787.9367     468.4336
   1417.63489     790.8214     469.0154   1417.63489     790.8214     469.0154
   1417.61963     791.0956     470.2981   1417.61963     791.0956     470.2981
   1417.60437     791.1028     469.9740   1417.60437     791.1028     469.9740
   1417.58911     793.1343     471.3359   1417.58911     793.1343     471.3359
   1417.57385     794.8141     471.4705   1417.57385     794.8141     471.4705
   1417.55859     796.2158     472.4230   1417.55859     796.2158     472.4230
   1417.54333     797.8465     472.5395   1417.54333     797.8465     472.5395
   1417.52808     798.6663     473.8457   1417.52808     798.6663     473.8457
   1417.51282     799.7957     473.1698   1417.51282     799.7957     473.1698
   1417.49756     800.4974     474.6899   1417.49756     800.4974     474.6899
   1417.48230     802.9757     475.0367   1417.48230     802.9757     475.0367
   1417.46704     803.0196     476.6889   1417.46704     803.0196     476.6889
   1417.45178     804.2365     476.8624   1417.45178     804.2365     476.8624
   1417.43652     805.7624     478.2148   1417.43652     805.7624     478.2148
   1417.42126     807.8712     477.6145   1417.42126     807.8712     477.6145
   1417.40601     809.0450     479.0414   1417.40601     809.0450     479.0414
   1417.39075     809.2622     479.3064   1417.39075     809.2622     479.3064
   1417.37549     811.2978     479.5475   1417.37549     811.2978     479.5475
   1417.36023     811.6094     480.6248   1417.36023     811.6094     480.6248
   1417.34497     813.9428     481.3371   1417.34497     813.9428     481.3371
   1417.32971     814.3856     481.4010   1417.32971     814.3856     481.4010
   1417.31445     816.2168     482.0952   1417.31445     816.2168     482.0952
   1417.29919     816.8043     483.0939   1417.29919     816.8043     483.0939
   1417.28394     817.3983     482.8827   1417.28394     817.3983     482.8827
   1417.26868     819.3279     483.8362   1417.26868     819.3279     483.8362
   1417.25342     820.0243     484.4218   1417.25342     820.0243     484.4218
   1417.23816     821.8461     485.2603   1417.23816     821.8461     485.2603
   1417.22290     824.1425     486.2126   1417.22290     824.1425     486.2126
   1417.20764     824.4500     486.2857   1417.20764     824.4500     486.2857
   1417.19238     825.1035     487.1010   1417.19238     825.1035     487.1010
   1417.17712     824.7555     487.5096   1417.17712     824.7555     487.5096
   1417.16187     825.7091     487.6346   1417.16187     825.7091     487.6346
   1417.14661     827.2686     488.4671   1417.14661     827.2686     488.4671
   1417.13135     829.8055     488.8775   1417.13135     829.8055     488.8775
   1417.11609     830.9177     489.6432   1417.11609     830.9177     489.6432
   1417.10083     830.2858     489.6806   1417.10083     830.2858     489.6806
   1417.08557     832.2333     490.9445   1417.08557     832.2333     490.9445
   1417.07031     831.5017     490.9338   1417.07031     831.5017     490.9338
   1417.05505     832.5885     491.5131   1417.05505     832.5885     491.5131
   1417.03979     834.6360     491.8211   1417.03979     834.6360     491.8211
   1417.02454     834.1725     491.7178   1417.02454     834.1725     491.7178
   1417.00928     835.4525     493.0300   1417.00928     835.4525     493.0300
   1416.99402     837.5421     493.6654   1416.99402     837.5421     493.6654
   1416.97876     837.2069     492.9737   1416.97876     837.2069     492.9737
   1416.96350     839.0798     493.4188   1416.96350     839.0798     493.4188
   1416.94824     840.5923     493.9803   1416.94824     840.5923     493.9803
   1416.93298     840.7844     494.7297   1416.93298     840.7844     494.7297
   1416.91772     840.6961     495.4114   1416.91772     840.6961     495.4114
   1416.90247     841.5568     495.4067   1416.90247     841.5568     495.4067
   1416.88721     841.7495     495.3823   1416.88721     841.7495     495.3823
   1416.87195     843.4086     496.0431   1416.87195     843.4086     496.0431
   1416.85669     843.5134     495.7994   1416.85669     843.5134     495.7994
   1416.84143     843.4897     496.6238   1416.84143     843.4897     496.6238
   1416.82617     843.4905     496.9646   1416.82617     843.4905     496.9646
   1416.81091     843.7404     497.6844   1416.81091     843.7404     497.6844
   1416.79565     846.7971     497.3182   1416.79565     846.7971     497.3182
   1416.78040     846.0795     497.6599   1416.78040     846.0795     497.6599
   1416.76514     846.6508     497.7849   1416.76514     846.6508     497.7849
   1416.74988     847.2614     498.3655   1416.74988     847.2614     498.3655
   1416.73462     848.7524     497.7638   1416.73462     848.7524     497.7638
   1416.71936     847.9273     498.7000   1416.71936     847.9273     498.7000
   1416.70410     848.9559     498.3956   1416.70410     848.9559     498.3956
   1416.68884     849.6816     498.5322   1416.68884     849.6816     498.5322
   1416.67358     850.7502     498.7425   1416.67358     850.7502     498.7425
   1416.65833     849.6458     499.1382   1416.65833     849.6458     499.1382
   1416.64307     850.0120     499.1820   1416.64307     850.0120     499.1820
   1416.62781     850.4719     499.0298   1416.62781     850.4719     499.0298
   1416.61255     850.5405     499.2650   1416.61255     850.5405     499.2650
   1416.59729     850.6992     499.1877   1416.59729     850.6992     499.1877
   1416.58203     851.9894     499.7235   1416.58203     851.9894     499.7235
   1416.56677     851.5464     498.9691   1416.56677     851.5464     498.9691
   1416.55151     851.9134     499.6592   1416.55151     851.9134     499.6592
   1416.53625     851.7730     499.1363   1416.53625     851.7730     499.1363
   1416.52100     851.1609     499.3751   1416.52100     851.1609     499.3751
   1416.50574     852.5446     500.1910   1416.50574     852.5446     500.1910
   1416.49048     851.5147     498.7036   1416.49048     851.5147     498.7036
   1416.47522     850.2376     499.3879   1416.47522     850.2376     499.3879
   1416.45996     851.9438     499.5025   1416.45996     851.9438     499.5025
   1416.44470     850.9117     499.4095   1416.44470     850.9117     499.4095
   1416.42944     852.4495     499.4988   1416.42944     852.4495     499.4988
   1416.41418     850.0988     498.7918   1416.41418     850.0988     498.7918
   1416.39893     851.4346     499.3347   1416.39893     851.4346     499.3347
   1416.38367     849.3450     498.9870   1416.38367     849.3450     498.9870
   1416.36841     851.3437     499.0845   1416.36841     851.3437     499.0845
   1416.35315     851.3258     498.9442   1416.35315     851.3258     498.9442
   1416.33789     852.3678     498.8537   1416.33789     852.3678     498.8537
   1416.32263     850.9801     498.2365   1416.32263     850.9801     498.2365
   1416.30737     849.0317     497.9555   1416.30737     849.0317     497.9555
   1416.29211     849.8168     498.1141   1416.29211     849.8168     498.1141
   1416.27686     849.5670     497.9223   1416.27686     849.5670     497.9223
   1416.26160     848.3398     497.8743   1416.26160     848.3398     497.8743
   1416.24634     848.0790     497.4005   1416.24634     848.0790     497.4005
   1416.23108     849.3545     497.6912   1416.23108     849.3545     497.6912
   1416.21582     848.6646     497.7591   1416.21582     848.6646     497.7591
   1416.20056     848.2760     496.8904   1416.20056     848.2760     496.8904
   1416.18530     847.4711     496.3889   1416.18530     847.4711     496.3889
   1416.17004     848.2626     496.2618   1416.17004     848.2626     496.2618
   1416.15479     845.5350     496.1249   1416.15479     845.5350     496.1249
   1416.13953     846.9680     496.1519   1416.13953     846.9680     496.1519
   1416.12427     846.5764     496.2307   1416.12427     846.5764     496.2307
   1416.10901     845.4719     495.5895   1416.10901     845.4719     495.5895
   1416.09375     845.3573     495.5369   1416.09375     845.3573     495.5369
   1416.07849     843.5589     494.8233   1416.07849     843.5589     494.8233
   1416.06323     843.1390     493.8073   1416.06323     843.1390     493.8073
   1416.04797     841.0381     494.6587   1416.04797     841.0381     494.6587
   1416.03271     842.2028     494.9457   1416.03271     842.2028     494.9457
   1416.01746     840.7009     494.6935   1416.01746     840.7009     494.6935
   1416.00220     839.7379     492.8210   1416.00220     839.7379     492.8210
   1415.98694     839.2654     492.4107   1415.98694     839.2654     492.4107
   1415.97168     839.4162     493.0713   1415.97168     839.4162     493.0713
   1415.95642     838.9276     492.9951   1415.95642     838.9276     492.9951
   1415.94116     837.6966     492.0367   1415.94116     837.6966     492.0367
   1415.92590     837.9141     492.3115   1415.92590     837.9141     492.3115
   1415.91064     836.8403     491.8749   1415.91064     836.8403     491.8749
   1415.89539     834.8573     491.7065   1415.89539     834.8573     491.7065
   1415.88013     835.3558     492.0689   1415.88013     835.3558     492.0689
   1415.86487     833.7171     491.0839   1415.86487     833.7171     491.0839
   1415.84961     833.6229     490.6186   1415.84961     833.6229     490.6186
   1415.83435     833.8564     491.0185   1415.83435     833.8564     491.0185
   1415.81909     832.3676     490.1891   1415.81909     832.3676     490.1891
   1415.80383     831.6473     490.8042   1415.80383     831.6473     490.8042
   1415.78857     830.2413     489.4488   1415.78857     830.2413     489.4488
   1415.77332     829.9253     489.0336   1415.77332     829.9253     489.0336
   1415.75806     828.4844     489.6741   1415.75806     828.4844     489.6741
   1415.74280     827.5602     488.7430   1415.74280     827.5602     488.7430
   1415.72754     826.7916     488.0303   1415.72754     826.7916     488.0303
   1415.71228     827.1451     487.6678   1415.71228     827.1451     487.6678
   1415.69702     825.3315     487.5524   1415.69702     825.3315     487.5524
   1415.68176     824.2715     487.9427   1415.68176     824.2715     487.9427
   1415.66650     823.9576     488.6256   1415.66650     823.9576     488.6256
   1415.65125     821.2122     486.4948   1415.65125     821.2122     486.4948
   1415.63599     821.8636     487.1104   1415.63599     821.8636     487.1104
   1415.62073     819.6689     486.4649   1415.62073     819.6689     486.4649
   1415.60547     818.8940     486.3748   1415.60547     818.8940     486.3748
   1415.59021     817.8188     485.2888   1415.59021     817.8188     485.2888
   1415.57495     817.8382     484.6859   1415.57495     817.8382     484.6859
   1415.55969     816.3518     485.2143   1415.55969     816.3518     485.2143
   1415.54443     814.7796     484.7236   1415.54443     814.7796     484.7236
   1415.52917     813.5400     483.9092   1415.52917     813.5400     483.9092
   1415.51392     812.0505     484.6055   1415.51392     812.0505     484.6055
   1415.49866     811.5963     483.8732   1415.49866     811.5963     483.8732
   1415.48340     810.8552     482.9516   1415.48340     810.8552     482.9516
   1415.46814     808.3705     482.5405   1415.46814     808.3705     482.5405
   1415.45288     808.0065     482.0795   1415.45288     808.0065     482.0795
   1415.43762     806.5188     482.6245   1415.43762     806.5188     482.6245
   1415.42236     804.4492     482.4269   1415.42236     804.4492     482.4269
   1415.40710     804.0749     481.6883   1415.40710     804.0749     481.6883
   1415.39185     802.6475     481.3811   1415.39185     802.6475     481.3811
   1415.37659     801.8374     480.7710   1415.37659     801.8374     480.7710
   1415.36133     800.0293     480.6282   1415.36133     800.0293     480.6282
   1415.34607     798.4677     480.1791   1415.34607     798.4677     480.1791
   1415.33081     796.9466     480.3145   1415.33081     796.9466     480.3145
   1415.31555     796.4265     479.1498   1415.31555     796.4265     479.1498
   1415.30029     794.5590     478.3234   1415.30029     794.5590     478.3234
   1415.28503     794.5295     478.0336   1415.28503     794.5295     478.0336
   1415.26978     791.6403     477.6640   1415.26978     791.6403     477.6640
   1415.25452     790.8903     477.5606   1415.25452     790.8903     477.5606
   1415.23926     790.2814     476.9608   1415.23926     790.2814     476.9608
   1415.22400     787.6647     476.3839   1415.22400     787.6647     476.3839
   1415.20874     786.2004     476.1335   1415.20874     786.2004     476.1335
   1415.19348     785.2098     476.0215   1415.19348     785.2098     476.0215
   1415.17822     783.8734     475.6036   1415.17822     783.8734     475.6036
   1415.16296     781.6848     475.2875   1415.16296     781.6848     475.2875
   1415.14771     780.3759     474.7615   1415.14771     780.3759     474.7615
   1415.13245     778.9432     473.7687   1415.13245     778.9432     473.7687
   1415.11719     776.5864     472.7461   1415.11719     776.5864     472.7461
   1415.10193     775.7741     473.3918   1415.10193     775.7741     473.3918
   1415.08667     773.7192     472.2928   1415.08667     773.7192     472.2928
   1415.07141     771.5405     472.4740   1415.07141     771.5405     472.4740
   1415.05615     769.7336     472.4865   1415.05615     769.7336     472.4865
   1415.04089     768.5499     471.2241   1415.04089     768.5499     471.2241
   1415.02563     766.8141     470.6937   1415.02563     766.8141     470.6937
   1415.01038     765.2154     469.8231   1415.01038     765.2154     469.8231
   1414.99512     763.1656     469.4086   1414.99512     763.1656     469.4086
   1414.97986     761.9083     468.0377   1414.97986     761.9083     468.0377
   1414.96460     758.9217     468.5761   1414.96460     758.9217     468.5761
   1414.94934     758.0566     467.8940   1414.94934     758.0566     467.8940
   1414.93408     755.9006     466.9769   1414.93408     755.9006     466.9769
   1414.91882     754.1791     466.8605   1414.91882     754.1791     466.8605
   1414.90356     752.2323     465.7023   1414.90356     752.2323     465.7023
   1414.88831     749.3133     464.8057   1414.88831     749.3133     464.8057
   1414.87305     747.9037     464.3433   1414.87305     747.9037     464.3433
   1414.85779     746.7740     463.9221   1414.85779     746.7740     463.9221
   1414.84253     744.0439     463.1439   1414.84253     744.0439     463.1439
   1414.82727     742.1839     463.3457   1414.82727     742.1839     463.3457
   1414.81201     740.3684     461.8120   1414.81201     740.3684     461.8120
   1414.79675     737.9915     461.4694   1414.79675     737.9915     461.4694
   1414.78149     737.1627     460.5605   1414.78149     737.1627     460.5605
   1414.76624     734.3934     460.6489   1414.76624     734.3934     460.6489
   1414.75098     731.6993     459.3733   1414.75098     731.6993     459.3733
   1414.73572     730.4288     458.5062   1414.73572     730.4288     458.5062
   1414.72046     726.9048     457.8018   1414.72046     726.9048     457.8018
   1414.70520     725.3253     457.2602   1414.70520     725.3253     457.2602
   1414.68994     723.9464     456.2996   1414.68994     723.9464     456.2996
   1414.67468     720.3798     455.9288   1414.67468     720.3798     455.9288
   1414.65942     717.7573     455.4821   1414.65942     717.7573     455.4821
   1414.64417     715.9674     454.1803   1414.64417     715.9674     454.1803
   1414.62891     714.6807     453.4571   1414.62891     714.6807     453.4571
   1414.61365     712.4237     452.6940   1414.61365     712.4237     452.6940
   1414.59839     709.4542     451.4754   1414.59839     709.4542     451.4754
   1414.58313     707.7388     451.1202   1414.58313     707.7388     451.1202
   1414.56787     704.2050     449.7231   1414.56787     704.2050     449.7231
   1414.55261     701.9777     449.2938   1414.55261     701.9777     449.2938
   1414.53735     699.1695     447.8071   1414.53735     699.1695     447.8071
   1414.52209     697.4522     447.6121   1414.52209     697.4522     447.6121
   1414.50684     695.4214     447.4741   1414.50684     695.4214     447.4741
   1414.49158     692.2391     445.5908   1414.49158     692.2391     445.5908
   1414.47632     690.4853     443.8941   1414.47632     690.4853     443.8941
   1414.46106     687.2376     443.2088   1414.46106     687.2376     443.2088
   1414.44580     684.4240     442.5597   1414.44580     684.4240     442.5597
   1414.43054     682.0368     441.4619   1414.43054     682.0368     441.4619
   1414.41528     678.9398     441.1265   1414.41528     678.9398     441.1265
   1414.40002     675.9449     440.1472   1414.40002     675.9449     440.1472
   1414.38477     673.2676     439.1036   1414.38477     673.2676     439.1036
   1414.36951     671.3279     437.5707   1414.36951     671.3279     437.5707
   1414.35425     668.0680     436.0356   1414.35425     668.0680     436.0356
   1414.33899     665.7706     436.1574   1414.33899     665.7706     436.1574
   1414.32373     662.4382     434.5930   1414.32373     662.4382     434.5930
   1414.30847     660.0975     434.2893   1414.30847     660.0975     434.2893
   1414.29321     658.7740     432.4020   1414.29321     658.7740     432.4020
   1414.27795     654.4235     431.4634   1414.27795     654.4235     431.4634
   1414.26270     651.7997     430.0046   1414.26270     651.7997     430.0046
   1414.24744     648.9266     429.4878   1414.24744     648.9266     429.4878
   1414.23218     646.1220     427.7684   1414.23218     646.1220     427.7684
   1414.21692     643.1771     427.2822   1414.21692     643.1771     427.2822
   1414.20166     640.0404     425.9438   1414.20166     640.0404     425.9438
   1414.18640     637.1725     424.8727   1414.18640     637.1725     424.8727
   1414.17114     633.4502     423.4861   1414.17114     633.4502     423.4861
   1414.15588     630.2641     421.5512   1414.15588     630.2641     421.5512
   1414.14062     627.8373     421.0463   1414.14062     627.8373     421.0463
   1414.12537     625.1839     419.7007   1414.12537     625.1839     419.7007
   1414.11011     622.6837     418.5483   1414.11011     622.6837     418.5483
   1414.09485     620.0865     417.1299   1414.09485     620.0865     417.1299
   1414.07959     615.5947     415.8205   1414.07959     615.5947     415.8205
   1414.06433     613.4526     414.8841   1414.06433     613.4526     414.8841
   1414.04907     610.8781     413.6361   1414.04907     610.8781     413.6361
   1414.03381     607.9600     412.4265   1414.03381     607.9600     412.4265
   1414.01855     605.1465     410.4849   1414.01855     605.1465     410.4849
   1414.00330     623.0092     416.5535   1414.00330     623.0092     416.5535
   1413.98804     600.7256     408.7240   1413.98804     600.7256     408.7240
   1413.97278     595.2242     406.5672   1413.97278     595.2242     406.5672
   1413.95752     592.2146     405.9001   1413.95752     592.2146     405.9001
   1413.94226     588.8433     404.5560   1413.94226     588.8433     404.5560
   1413.92700     586.0739     402.4280   1413.92700     586.0739     402.4280
   1413.91174     582.1249     401.2641   1413.91174     582.1249     401.2641
   1413.89648     579.6655     399.5157   1413.89648     579.6655     399.5157
   1413.88123     575.7956     398.5802   1413.88123     575.7956     398.5802
   1413.86597     573.4535     397.0823   1413.86597     573.4535     397.0823
   1413.85071     569.7988     395.9902   1413.85071     569.7988     395.9902
   1413.83545     566.3396     394.8428   1413.83545     566.3396     394.8428
   1413.82019     563.1969     392.8612   1413.82019     563.1969     392.8612
   1413.80493     559.9194     391.7239   1413.80493     559.9194     391.7239
   1413.78967     557.0943     390.2138   1413.78967     557.0943     390.2138
   1413.77441     553.3987     388.4601   1413.77441     553.3987     388.4601
   1413.75916     551.1638     386.4971   1413.75916     551.1638     386.4971
   1413.74390     548.2936     385.7059   1413.74390     548.2936     385.7059
   1413.72864     544.7738     384.5742   1413.72864     544.7738     384.5742
   1413.71338     542.0676     382.1078   1413.71338     542.0676     382.1078
   1413.69812     537.7445     381.3116   1413.69812     537.7445     381.3116
   1413.68286     534.6451     379.6848   1413.68286     534.6451     379.6848
   1413.66760     531.8657     378.7129   1413.66760     531.8657     378.7129
   1413.65234     529.8917     377.0821   1413.65234     529.8917     377.0821
   1413.63708     526.0643     375.2312   1413.63708     526.0643     375.2312
   1413.62183     523.2199     373.5478   1413.62183     523.2199     373.5478
   1413.60657     519.9808     372.5457   1413.60657     519.9808     372.5457
   1413.59131     516.4422     370.1287   1413.59131     516.4422     370.1287
   1413.57605     512.9041     369.2734   1413.57605     512.9041     369.2734
   1413.56079     510.0715     367.7585   1413.56079     510.0715     367.7585
   1413.54553     507.1939     366.1047   1413.54553     507.1939     366.1047
   1413.53027     503.7099     364.2719   1413.53027     503.7099     364.2719
   1413.51501     501.0419     363.7301   1413.51501     501.0419     363.7301
   1413.49976     497.9432     361.7474   1413.49976     497.9432     361.7474
   1413.48450     494.6063     360.1071   1413.48450     494.6063     360.1071
   1413.46924     492.7677     358.0902   1413.46924     492.7677     358.0902
   1413.45398     489.2618     356.8822   1413.45398     489.2618     356.8822
   1413.43872     485.8123     355.4985   1413.43872     485.8123     355.4985
   1413.42346     482.6496     353.7892   1413.42346     482.6496     353.7892
   1413.40820     480.0883     352.1703   1413.40820     480.0883     352.1703
   1413.39294     477.0505     350.8406   1413.39294     477.0505     350.8406
   1413.37769     474.1833     349.7381   1413.37769     474.1833     349.7381
   1413.36243     471.1378     347.7970   1413.36243     471.1378     347.7970
   1413.34717     467.9142     346.6048   1413.34717     467.9142     346.6048
   1413.33191     465.7373     345.0872   1413.33191     465.7373     345.0872
   1413.31665     462.7265     343.1498   1413.31665     462.7265     343.1498
   1413.30139     459.7113     341.9821   1413.30139     459.7113     341.9821
   1413.28613     456.9836     340.6005   1413.28613     456.9836     340.6005
   1413.27087     453.9533     338.7147   1413.27087     453.9533     338.7147
   1413.25562     451.5402     337.3742   1413.25562     451.5402     337.3742
   1413.24036     449.4470     335.7721   1413.24036     449.4470     335.7721
   1413.22510     446.4510     334.7047   1413.22510     446.4510     334.7047
   1413.20984     443.8204     333.1174   1413.20984     443.8204     333.1174
   1413.19458     440.9764     331.7392   1413.19458     440.9764     331.7392
   1413.17932     438.9865     330.0093   1413.17932     438.9865     330.0093
   1413.16406     435.9880     328.7186   1413.16406     435.9880     328.7186
   1413.14880     433.0612     327.5728   1413.14880     433.0612     327.5728
   1413.13354     431.2406     326.1852   1413.13354     431.2406     326.1852
   1413.11829     428.7196     324.8191   1413.11829     428.7196     324.8191
   1413.10303     426.0272     323.1434   1413.10303     426.0272     323.1434
   1413.08777     423.4581     322.1818   1413.08777     423.4581     322.1818
   1413.07251     420.6977     320.2507   1413.07251     420.6977     320.2507
   1413.05725     419.5216     319.4101   1413.05725     419.5216     319.4101
   1413.04199     416.8306     317.9354   1413.04199     416.8306     317.9354
   1413.02673     413.7989     316.5989   1413.02673     413.7989     316.5989
   1413.01147     411.9011     315.1998   1413.01147     411.9011     315.1998
   1412.99622     409.9066     313.8881   1412.99622     409.9066     313.8881
   1412.98096     408.2462     313.1674   1412.98096     408.2462     313.1674
   1412.96570     406.2562     311.7660   1412.96570     406.2562     311.7660
   1412.95044     404.3511     310.2602   1412.95044     404.3511     310.2602
   1412.93518     401.9440     309.0912   1412.93518     401.9440     309.0912
   1412.91992     400.3701     307.9176   1412.91992     400.3701     307.9176
   1412.90466     398.4514     306.8971   1412.90466     398.4514     306.8971
   1412.88940     397.0269     305.9607   1412.88940     397.0269     305.9607
   1412.87415     394.4327     304.5179   1412.87415     394.4327     304.5179
   1412.85889     393.6931     303.4212   1412.85889     393.6931     303.4212
   1412.84363     391.0679     302.2928   1412.84363     391.0679     302.2928
   1412.82837     389.0882     301.4785   1412.82837     389.0882     301.4785
   1412.81311     388.3173     301.0649   1412.81311     388.3173     301.0649
   1412.79785     386.4492     299.9276   1412.79785     386.4492     299.9276
   1412.78259     385.5362     299.0357   1412.78259     385.5362     299.0357
   1412.76733     383.2695     297.7410   1412.76733     383.2695     297.7410
   1412.75208     381.6946     297.0154   1412.75208     381.6946     297.0154
   1412.73682     381.0676     296.2173   1412.73682     381.0676     296.2173
   1412.72156     379.9588     295.1719   1412.72156     379.9588     295.1719
   1412.70630     377.5342     294.8467   1412.70630     377.5342     294.8467
   1412.69104     377.0494     293.3642   1412.69104     377.0494     293.3642
   1412.67578     375.5015     293.0052   1412.67578     375.5015     293.0052
   1412.66052     374.5530     292.5900   1412.66052     374.5530     292.5900
   1412.64526     373.4826     291.4611   1412.64526     373.4826     291.4611
   1412.63000     372.7964     291.2866   1412.63000     372.7964     291.2866
   1412.61475     371.9044     290.2899   1412.61475     371.9044     290.2899
   1412.59949     370.6361     289.9576   1412.59949     370.6361     289.9576
   1412.58423     370.0176     288.9024   1412.58423     370.0176     288.9024
   1412.56897     369.5118     288.7343   1412.56897     369.5118     288.7343
   1412.55371     368.4147     288.7796   1412.55371     368.4147     288.7796
   1412.53845     367.5934     287.5189   1412.53845     367.5934     287.5189
   1412.52319     367.0730     287.1148   1412.52319     367.0730     287.1148
   1412.50793     366.6126     287.1660   1412.50793     366.6126     287.1660
   1412.49268     366.6445     286.5086   1412.49268     366.6445     286.5086
   1412.47742     365.4217     286.0118   1412.47742     365.4217     286.0118
   1412.46216     365.8121     286.3153   1412.46216     365.8121     286.3153
   1412.44690     364.9066     285.9278   1412.44690     364.9066     285.9278
   1412.43164     364.2622     285.5722   1412.43164     364.2622     285.5722
   1412.41638     364.9666     285.3226   1412.41638     364.9666     285.3226
   1412.40112     364.9142     285.2420   1412.40112     364.9142     285.2420
   1412.38586     364.0379     284.7426   1412.38586     364.0379     284.7426
   1412.37061     364.4925     285.2727   1412.37061     364.4925     285.2727
   1412.35535     363.9811     285.2386   1412.35535     363.9811     285.2386
   1412.34009     364.1471     285.7679   1412.34009     364.1471     285.7679
   1412.32483     364.3678     285.2664   1412.32483     364.3678     285.2664
   1412.30957     364.0563     285.2736   1412.30957     364.0563     285.2736
   1412.29431     365.0083     285.7392   1412.29431     365.0083     285.7392
   1412.27905     364.7824     285.8623   1412.27905     364.7824     285.8623
   1412.26379     364.9387     286.2366   1412.26379     364.9387     286.2366
   1412.24854     365.4370     286.4395   1412.24854     365.4370     286.4395
   1412.23328     365.9548     286.5989   1412.23328     365.9548     286.5989
   1412.21802     366.1991     287.1468   1412.21802     366.1991     287.1468
   1412.20276     366.6288     287.8772   1412.20276     366.6288     287.8772