#     FILENAME=!Skynet_57528_lach-hhg-164_20538_20988.cyb.fits
#     BASENAME=Skynet_57528_lach-hhg-164_20538_20988
#     SRC_NAME=lach-hhg-164
#     OBSERVER=hhgmadison16_9500
#     DATE_OBS=2016-05-20T18:06:21.120
#        OBSID=20538
#      SCANNUM=20988
#          MJD=57528.7555
#          UTC=65269
#     SCANTYPE=track
#     DATAMODE=HIRES
#     TUNEFREQ=1420.0000
# Actual_FREQ1=1420.0000
# Actual_FREQ2=1420.0000
#    LO1Tuning=6870.000
#     RFFILTER=1355_1435
#        OBSBW=-15.6250
#        NCHAN=1024 
#        FOCUS=37.0709
#           RA=05:00:53.82
#          DEC=42:08:35.51
#      RA(hrs)=5.014900
#     DEC(deg)=42.143200
#    AZIM(deg)=43.498
#    ELEV(deg)=84.646
#     IFattens=10.00, 9.00
#      WARNING=None
#    TCAL_XL1=7.9635
#    TCAL_YR1=9.1340
#    TCAL_XL2=7.9635
#    TCAL_YR2=9.1340
#     TRX_XL1=11.7060
#     TRX_YR1=11.7060
#     TRX_XL2=11.7060
#     TRX_YR2=11.7060
#        TAVE=1.0000
#Freq1(MHz)          XL1          YR1  Freq2(MHz)          XL2          YR2 

   1427.81250     374.8958     333.8127   1427.81250     374.8958     333.8127
   1427.79724     375.7725     335.5456   1427.79724     375.7725     335.5456
   1427.78198     376.3008     336.4524   1427.78198     376.3008     336.4524
   1427.76672     376.2551     338.4610   1427.76672     376.2551     338.4610
   1427.75146     377.7702     340.9129   1427.75146     377.7702     340.9129
   1427.73621     378.8347     342.0171   1427.73621     378.8347     342.0171
   1427.72095     379.7858     344.2233   1427.72095     379.7858     344.2233
   1427.70569     380.6404     345.1488   1427.70569     380.6404     345.1488
   1427.69043     381.2193     347.4236   1427.69043     381.2193     347.4236
   1427.67517     383.0343     349.3920   1427.67517     383.0343     349.3920
   1427.65991     383.6406     351.2240   1427.65991     383.6406     351.2240
   1427.64465     384.8297     352.9757   1427.64465     384.8297     352.9757
   1427.62939     385.6080     354.9526   1427.62939     385.6080     354.9526
   1427.61414     387.3761     357.7420   1427.61414     387.3761     357.7420
   1427.59888     388.3400     359.5865   1427.59888     388.3400     359.5865
   1427.58362     390.0928     361.8273   1427.58362     390.0928     361.8273
   1427.56836     390.9938     363.9445   1427.56836     390.9938     363.9445
   1427.55310     392.0335     366.0067   1427.55310     392.0335     366.0067
   1427.53784     394.0597     368.7822   1427.53784     394.0597     368.7822
   1427.52258     395.7839     371.3711   1427.52258     395.7839     371.3711
   1427.50732     397.4619     373.1277   1427.50732     397.4619     373.1277
   1427.49207     399.0453     375.5368   1427.49207     399.0453     375.5368
   1427.47681     400.2459     378.2418   1427.47681     400.2459     378.2418
   1427.46155     401.9052     380.4259   1427.46155     401.9052     380.4259
   1427.44629     404.2168     383.7093   1427.44629     404.2168     383.7093
   1427.43103     405.9803     385.4248   1427.43103     405.9803     385.4248
   1427.41577     407.4467     387.7516   1427.41577     407.4467     387.7516
   1427.40051     409.5125     390.8694   1427.40051     409.5125     390.8694
   1427.38525     411.4806     393.1576   1427.38525     411.4806     393.1576
   1427.37000     413.9507     395.8356   1427.37000     413.9507     395.8356
   1427.35474     416.0446     398.8742   1427.35474     416.0446     398.8742
   1427.33948     417.9214     401.0710   1427.33948     417.9214     401.0710
   1427.32422     419.4708     403.9046   1427.32422     419.4708     403.9046
   1427.30896     421.6150     407.8318   1427.30896     421.6150     407.8318
   1427.29370     424.3470     409.8433   1427.29370     424.3470     409.8433
   1427.27844     425.8362     413.3912   1427.27844     425.8362     413.3912
   1427.26318     428.9440     416.1081   1427.26318     428.9440     416.1081
   1427.24792     431.6302     418.4419   1427.24792     431.6302     418.4419
   1427.23267     433.1524     421.0819   1427.23267     433.1524     421.0819
   1427.21741     436.0376     423.6239   1427.21741     436.0376     423.6239
   1427.20215     438.2234     426.6981   1427.20215     438.2234     426.6981
   1427.18689     440.8100     430.3365   1427.18689     440.8100     430.3365
   1427.17163     443.0818     433.1614   1427.17163     443.0818     433.1614
   1427.15637     445.8024     435.9274   1427.15637     445.8024     435.9274
   1427.14111     448.7349     439.0159   1427.14111     448.7349     439.0159
   1427.12585     451.5184     441.7022   1427.12585     451.5184     441.7022
   1427.11060     453.6014     444.6191   1427.11060     453.6014     444.6191
   1427.09534     455.4043     448.2398   1427.09534     455.4043     448.2398
   1427.08008     459.6471     450.6308   1427.08008     459.6471     450.6308
   1427.06482     461.8083     454.0858   1427.06482     461.8083     454.0858
   1427.04956     464.6890     457.0830   1427.04956     464.6890     457.0830
   1427.03430     467.4355     459.9705   1427.03430     467.4355     459.9705
   1427.01904     470.0984     462.9466   1427.01904     470.0984     462.9466
   1427.00378     473.2776     466.2134   1427.00378     473.2776     466.2134
   1426.98853     476.4597     468.8731   1426.98853     476.4597     468.8731
   1426.97327     478.7109     472.6134   1426.97327     478.7109     472.6134
   1426.95801     481.7262     475.1890   1426.95801     481.7262     475.1890
   1426.94275     484.7224     478.0118   1426.94275     484.7224     478.0118
   1426.92749     488.0818     481.1405   1426.92749     488.0818     481.1405
   1426.91223     490.2211     483.5526   1426.91223     490.2211     483.5526
   1426.89697     492.5503     486.5945   1426.89697     492.5503     486.5945
   1426.88171     496.2224     489.4727   1426.88171     496.2224     489.4727
   1426.86646     498.8365     493.5188   1426.86646     498.8365     493.5188
   1426.85120     502.6054     495.3826   1426.85120     502.6054     495.3826
   1426.83594     505.6512     498.2462   1426.83594     505.6512     498.2462
   1426.82068     508.6326     501.5666   1426.82068     508.6326     501.5666
   1426.80542     512.1207     503.8022   1426.80542     512.1207     503.8022
   1426.79016     514.3966     507.1729   1426.79016     514.3966     507.1729
   1426.77490     518.2720     509.5247   1426.77490     518.2720     509.5247
   1426.75964     520.8989     512.7418   1426.75964     520.8989     512.7418
   1426.74438     524.4818     515.0173   1426.74438     524.4818     515.0173
   1426.72913     526.6650     518.3815   1426.72913     526.6650     518.3815
   1426.71387     530.0234     521.1638   1426.71387     530.0234     521.1638
   1426.69861     532.6797     523.4794   1426.69861     532.6797     523.4794
   1426.68335     537.4323     525.8438   1426.68335     537.4323     525.8438
   1426.66809     539.5105     528.9339   1426.66809     539.5105     528.9339
   1426.65283     542.4955     531.6924   1426.65283     542.4955     531.6924
   1426.63757     545.8845     534.4976   1426.63757     545.8845     534.4976
   1426.62231     554.8919     537.9039   1426.62231     554.8919     537.9039
   1426.60706     551.6309     540.4844   1426.60706     551.6309     540.4844
   1426.59180     554.6907     541.5068   1426.59180     554.6907     541.5068
   1426.57654     558.2372     544.8617   1426.57654     558.2372     544.8617
   1426.56128     561.4666     547.3757   1426.56128     561.4666     547.3757
   1426.54602     564.8495     550.3161   1426.54602     564.8495     550.3161
   1426.53076     567.6210     552.1022   1426.53076     567.6210     552.1022
   1426.51550     570.8204     554.9945   1426.51550     570.8204     554.9945
   1426.50024     574.2559     556.9578   1426.50024     574.2559     556.9578
   1426.48499     577.4213     559.8838   1426.48499     577.4213     559.8838
   1426.46973     580.5151     561.8705   1426.46973     580.5151     561.8705
   1426.45447     584.2447     565.0323   1426.45447     584.2447     565.0323
   1426.43921     586.3452     567.4625   1426.43921     586.3452     567.4625
   1426.42395     589.4572     569.5821   1426.42395     589.4572     569.5821
   1426.40869     591.7409     570.8341   1426.40869     591.7409     570.8341
   1426.39343     595.2945     573.1811   1426.39343     595.2945     573.1811
   1426.37817     599.2152     574.6909   1426.37817     599.2152     574.6909
   1426.36292     601.8459     577.5042   1426.36292     601.8459     577.5042
   1426.34766     605.5292     579.9069   1426.34766     605.5292     579.9069
   1426.33240     607.3975     580.5406   1426.33240     607.3975     580.5406
   1426.31714     611.0577     583.7809   1426.31714     611.0577     583.7809
   1426.30188     612.8635     585.5751   1426.30188     612.8635     585.5751
   1426.28662     615.4932     588.1218   1426.28662     615.4932     588.1218
   1426.27136     619.7858     589.0700   1426.27136     619.7858     589.0700
   1426.25610     621.8137     592.0306   1426.25610     621.8137     592.0306
   1426.24084     625.2457     593.4896   1426.24084     625.2457     593.4896
   1426.22559     627.7194     595.6201   1426.22559     627.7194     595.6201
   1426.21033     631.2586     598.0224   1426.21033     631.2586     598.0224
   1426.19507     634.5513     599.1608   1426.19507     634.5513     599.1608
   1426.17981     636.8740     599.0821   1426.17981     636.8740     599.0821
   1426.16455     639.1244     602.5303   1426.16455     639.1244     602.5303
   1426.14929     641.7595     603.7998   1426.14929     641.7595     603.7998
   1426.13403     645.1083     604.8063   1426.13403     645.1083     604.8063
   1426.11877     647.1530     606.9673   1426.11877     647.1530     606.9673
   1426.10352     649.9224     608.7024   1426.10352     649.9224     608.7024
   1426.08826     653.5934     609.9081   1426.08826     653.5934     609.9081
   1426.07300     655.3312     611.8646   1426.07300     655.3312     611.8646
   1426.05774     658.7208     614.0825   1426.05774     658.7208     614.0825
   1426.04248     661.5388     614.6973   1426.04248     661.5388     614.6973
   1426.02722     662.8102     616.3381   1426.02722     662.8102     616.3381
   1426.01196     665.4855     617.7968   1426.01196     665.4855     617.7968
   1425.99670     668.4622     619.2929   1425.99670     668.4622     619.2929
   1425.98145     672.2833     620.8584   1425.98145     672.2833     620.8584
   1425.96619     672.8447     620.4152   1425.96619     672.8447     620.4152
   1425.95093     675.6766     622.3061   1425.95093     675.6766     622.3061
   1425.93567     677.4167     623.4722   1425.93567     677.4167     623.4722
   1425.92041     680.0790     624.2996   1425.92041     680.0790     624.2996
   1425.90515     682.4362     626.4536   1425.90515     682.4362     626.4536
   1425.88989     684.3478     626.4236   1425.88989     684.3478     626.4236
   1425.87463     686.4821     628.0956   1425.87463     686.4821     628.0956
   1425.85938     689.6235     628.5414   1425.85938     689.6235     628.5414
   1425.84412     691.3634     630.6707   1425.84412     691.3634     630.6707
   1425.82886     693.7875     631.6060   1425.82886     693.7875     631.6060
   1425.81360     697.3834     632.3669   1425.81360     697.3834     632.3669
   1425.79834     698.7825     634.2930   1425.79834     698.7825     634.2930
   1425.78308     699.6541     633.7095   1425.78308     699.6541     633.7095
   1425.76782     702.6682     635.3500   1425.76782     702.6682     635.3500
   1425.75256     704.1796     635.5374   1425.75256     704.1796     635.5374
   1425.73730     706.5614     636.3390   1425.73730     706.5614     636.3390
   1425.72205     707.6782     637.2619   1425.72205     707.6782     637.2619
   1425.70679     710.6488     638.2913   1425.70679     710.6488     638.2913
   1425.69153     712.0165     639.0571   1425.69153     712.0165     639.0571
   1425.67627     713.8517     640.3676   1425.67627     713.8517     640.3676
   1425.66101     716.0716     640.8736   1425.66101     716.0716     640.8736
   1425.64575     717.5639     640.7056   1425.64575     717.5639     640.7056
   1425.63049     720.2589     641.1624   1425.63049     720.2589     641.1624
   1425.61523     721.3779     642.2031   1425.61523     721.3779     642.2031
   1425.59998     723.3626     642.3113   1425.59998     723.3626     642.3113
   1425.58472     725.4302     643.3303   1425.58472     725.4302     643.3303
   1425.56946     727.3069     643.6368   1425.56946     727.3069     643.6368
   1425.55420     729.5092     644.1285   1425.55420     729.5092     644.1285
   1425.53894     730.0907     643.9478   1425.53894     730.0907     643.9478
   1425.52368     731.9431     645.9064   1425.52368     731.9431     645.9064
   1425.50842     731.7570     645.8333   1425.50842     731.7570     645.8333
   1425.49316     733.8452     646.4254   1425.49316     733.8452     646.4254
   1425.47791     735.2706     646.5839   1425.47791     735.2706     646.5839
   1425.46265     736.3903     647.3259   1425.46265     736.3903     647.3259
   1425.44739     736.6480     646.6380   1425.44739     736.6480     646.6380
   1425.43213     739.2787     647.9500   1425.43213     739.2787     647.9500
   1425.41687     742.0292     649.0792   1425.41687     742.0292     649.0792
   1425.40161     742.0798     648.6381   1425.40161     742.0798     648.6381
   1425.38635     743.8142     648.7433   1425.38635     743.8142     648.7433
   1425.37109     744.6274     647.3511   1425.37109     744.6274     647.3511
   1425.35583     744.6630     649.5640   1425.35583     744.6630     649.5640
   1425.34058     746.3229     648.9844   1425.34058     746.3229     648.9844
   1425.32532     747.8275     649.1126   1425.32532     747.8275     649.1126
   1425.31006     747.6373     649.1083   1425.31006     747.6373     649.1083
   1425.29480     750.2572     649.8295   1425.29480     750.2572     649.8295
   1425.27954     750.7893     649.5967   1425.27954     750.7893     649.5967
   1425.26428     751.8531     649.6056   1425.26428     751.8531     649.6056
   1425.24902     752.8803     649.3502   1425.24902     752.8803     649.3502
   1425.23376     754.8300     649.1269   1425.23376     754.8300     649.1269
   1425.21851     754.5749     650.2290   1425.21851     754.5749     650.2290
   1425.20325     755.0245     650.2189   1425.20325     755.0245     650.2189
   1425.18799     758.5097     649.4849   1425.18799     758.5097     649.4849
   1425.17273     758.0008     650.8340   1425.17273     758.0008     650.8340
   1425.15747     759.0483     650.3796   1425.15747     759.0483     650.3796
   1425.14221     758.7992     650.1487   1425.14221     758.7992     650.1487
   1425.12695     759.1478     650.8336   1425.12695     759.1478     650.8336
   1425.11169     759.7360     649.0061   1425.11169     759.7360     649.0061
   1425.09644     762.0140     649.8292   1425.09644     762.0140     649.8292
   1425.08118     761.9382     649.4523   1425.08118     761.9382     649.4523
   1425.06592     761.6986     648.8173   1425.06592     761.6986     648.8173
   1425.05066     762.9276     648.7083   1425.05066     762.9276     648.7083
   1425.03540     763.1703     649.2167   1425.03540     763.1703     649.2167
   1425.02014     764.6451     648.1479   1425.02014     764.6451     648.1479
   1425.00488     763.8811     648.0524   1425.00488     763.8811     648.0524
   1424.98962     765.9402     648.6557   1424.98962     765.9402     648.6557
   1424.97437     765.5440     647.2495   1424.97437     765.5440     647.2495
   1424.95911     765.9503     648.7057   1424.95911     765.9503     648.7057
   1424.94385     766.1044     647.6971   1424.94385     766.1044     647.6971
   1424.92859     767.2643     647.7610   1424.92859     767.2643     647.7610
   1424.91333     766.9801     647.2372   1424.91333     766.9801     647.2372
   1424.89807     767.3201     646.8921   1424.89807     767.3201     646.8921
   1424.88281     766.8215     645.6488   1424.88281     766.8215     645.6488
   1424.86755     769.9149     645.4232   1424.86755     769.9149     645.4232
   1424.85229     769.3324     646.0439   1424.85229     769.3324     646.0439
   1424.83704     769.1161     643.8528   1424.83704     769.1161     643.8528
   1424.82178     768.1359     644.4453   1424.82178     768.1359     644.4453
   1424.80652     769.2872     644.5516   1424.80652     769.2872     644.5516
   1424.79126     770.0648     644.2731   1424.79126     770.0648     644.2731
   1424.77600     769.5602     643.7333   1424.77600     769.5602     643.7333
   1424.76074     770.1021     643.2972   1424.76074     770.1021     643.2972
   1424.74548     768.6733     644.3124   1424.74548     768.6733     644.3124
   1424.73022     768.4531     642.4177   1424.73022     768.4531     642.4177
   1424.71497     770.0932     642.6113   1424.71497     770.0932     642.6113
   1424.69971     769.8407     640.9586   1424.69971     769.8407     640.9586
   1424.68445     770.5892     641.3608   1424.68445     770.5892     641.3608
   1424.66919     769.5798     640.2804   1424.66919     769.5798     640.2804
   1424.65393     769.6069     639.8492   1424.65393     769.6069     639.8492
   1424.63867     770.8363     639.2590   1424.63867     770.8363     639.2590
   1424.62341     770.6667     639.7108   1424.62341     770.6667     639.7108
   1424.60815     769.3912     638.2224   1424.60815     769.3912     638.2224
   1424.59290     768.8409     638.1819   1424.59290     768.8409     638.1819
   1424.57764     769.7093     638.4341   1424.57764     769.7093     638.4341
   1424.56238     769.5630     637.5052   1424.56238     769.5630     637.5052
   1424.54712     769.2010     636.3013   1424.54712     769.2010     636.3013
   1424.53186     769.7581     636.3436   1424.53186     769.7581     636.3436
   1424.51660     768.5847     635.2899   1424.51660     768.5847     635.2899
   1424.50134     770.6689     635.5023   1424.50134     770.6689     635.5023
   1424.48608     768.5376     634.7897   1424.48608     768.5376     634.7897
   1424.47083     768.7924     633.8779   1424.47083     768.7924     633.8779
   1424.45557     768.4839     633.1636   1424.45557     768.4839     633.1636
   1424.44031     768.1187     632.9830   1424.44031     768.1187     632.9830
   1424.42505     767.6202     631.7198   1424.42505     767.6202     631.7198
   1424.40979     768.7222     631.9681   1424.40979     768.7222     631.9681
   1424.39453     768.4265     631.5337   1424.39453     768.4265     631.5337
   1424.37927     767.1788     630.6739   1424.37927     767.1788     630.6739
   1424.36401     767.9508     629.6911   1424.36401     767.9508     629.6911
   1424.34875     767.6771     630.0286   1424.34875     767.6771     630.0286
   1424.33350     766.8466     628.8837   1424.33350     766.8466     628.8837
   1424.31824     768.1853     627.2818   1424.31824     768.1853     627.2818
   1424.30298     766.4548     628.0490   1424.30298     766.4548     628.0490
   1424.28772     766.2748     627.2352   1424.28772     766.2748     627.2352
   1424.27246     765.8130     626.8286   1424.27246     765.8130     626.8286
   1424.25720     765.2193     625.4484   1424.25720     765.2193     625.4484
   1424.24194     764.8170     626.1609   1424.24194     764.8170     626.1609
   1424.22668     765.3896     623.0943   1424.22668     765.3896     623.0943
   1424.21143     765.2070     624.0277   1424.21143     765.2070     624.0277
   1424.19617     763.3253     623.1074   1424.19617     763.3253     623.1074
   1424.18091     764.0557     622.3846   1424.18091     764.0557     622.3846
   1424.16565     762.2755     622.3918   1424.16565     762.2755     622.3918
   1424.15039     764.3705     621.5958   1424.15039     764.3705     621.5958
   1424.13513     762.7310     620.0749   1424.13513     762.7310     620.0749
   1424.11987     762.6231     619.1801   1424.11987     762.6231     619.1801
   1424.10461     762.3682     619.5478   1424.10461     762.3682     619.5478
   1424.08936     762.2481     618.4301   1424.08936     762.2481     618.4301
   1424.07410     760.2751     617.3344   1424.07410     760.2751     617.3344
   1424.05884     761.2217     616.9744   1424.05884     761.2217     616.9744
   1424.04358     761.4410     616.2051   1424.04358     761.4410     616.2051
   1424.02832     759.2590     615.3508   1424.02832     759.2590     615.3508
   1424.01306     758.7628     613.8189   1424.01306     758.7628     613.8189
   1423.99780     758.7917     613.3727   1423.99780     758.7917     613.3727
   1423.98254     758.5181     613.3696   1423.98254     758.5181     613.3696
   1423.96729     758.2780     612.6306   1423.96729     758.2780     612.6306
   1423.95203     757.7629     611.7735   1423.95203     757.7629     611.7735
   1423.93677     757.5709     611.2885   1423.93677     757.5709     611.2885
   1423.92151     757.9841     609.2311   1423.92151     757.9841     609.2311
   1423.90625     755.7621     608.9133   1423.90625     755.7621     608.9133
   1423.89099     757.3467     609.2197   1423.89099     757.3467     609.2197
   1423.87573     756.1040     608.5206   1423.87573     756.1040     608.5206
   1423.86047     755.7662     606.5242   1423.86047     755.7662     606.5242
   1423.84521     754.3463     606.5613   1423.84521     754.3463     606.5613
   1423.82996     754.5338     605.9509   1423.82996     754.5338     605.9509
   1423.81470     754.0653     605.1882   1423.81470     754.0653     605.1882
   1423.79944     755.0433     603.8248   1423.79944     755.0433     603.8248
   1423.78418     752.3389     605.1116   1423.78418     752.3389     605.1116
   1423.76892     751.6529     602.8764   1423.76892     751.6529     602.8764
   1423.75366     752.3867     602.4916   1423.75366     752.3867     602.4916
   1423.73840     752.4659     601.5851   1423.73840     752.4659     601.5851
   1423.72314     751.1913     600.5718   1423.72314     751.1913     600.5718
   1423.70789     751.3111     599.5419   1423.70789     751.3111     599.5419
   1423.69263     750.5600     599.2097   1423.69263     750.5600     599.2097
   1423.67737     750.6754     598.2095   1423.67737     750.6754     598.2095
   1423.66211     751.0927     597.6625   1423.66211     751.0927     597.6625
   1423.64685     749.6270     596.8354   1423.64685     749.6270     596.8354
   1423.63159     750.2884     596.2769   1423.63159     750.2884     596.2769
   1423.61633     748.2866     595.6981   1423.61633     748.2866     595.6981
   1423.60107     747.2087     593.5645   1423.60107     747.2087     593.5645
   1423.58582     747.0241     593.6950   1423.58582     747.0241     593.6950
   1423.57056     747.4869     592.7867   1423.57056     747.4869     592.7867
   1423.55530     747.2519     591.0604   1423.55530     747.2519     591.0604
   1423.54004     746.4794     591.8837   1423.54004     746.4794     591.8837
   1423.52478     746.2955     590.3192   1423.52478     746.2955     590.3192
   1423.50952     745.9433     590.3535   1423.50952     745.9433     590.3535
   1423.49426     744.2720     590.0317   1423.49426     744.2720     590.0317
   1423.47900     746.1616     589.3591   1423.47900     746.1616     589.3591
   1423.46375     743.6965     587.3128   1423.46375     743.6965     587.3128
   1423.44849     742.4823     585.8181   1423.44849     742.4823     585.8181
   1423.43323     742.8925     585.2288   1423.43323     742.8925     585.2288
   1423.41797     742.4304     584.8694   1423.41797     742.4304     584.8694
   1423.40271     741.0276     584.3889   1423.40271     741.0276     584.3889
   1423.38745     742.7967     583.0419   1423.38745     742.7967     583.0419
   1423.37219     740.7200     582.3713   1423.37219     740.7200     582.3713
   1423.35693     742.3262     581.5508   1423.35693     742.3262     581.5508
   1423.34167     741.4586     580.1597   1423.34167     741.4586     580.1597
   1423.32642     740.4575     579.3434   1423.32642     740.4575     579.3434
   1423.31116     741.3739     579.2777   1423.31116     741.3739     579.2777
   1423.29590     739.9708     578.8637   1423.29590     739.9708     578.8637
   1423.28064     739.8108     577.6768   1423.28064     739.8108     577.6768
   1423.26538     739.3314     576.6607   1423.26538     739.3314     576.6607
   1423.25012     738.4091     575.6808   1423.25012     738.4091     575.6808
   1423.23486     737.9934     574.8659   1423.23486     737.9934     574.8659
   1423.21960     737.9397     574.1070   1423.21960     737.9397     574.1070
   1423.20435     737.1201     572.6777   1423.20435     737.1201     572.6777
   1423.18909     736.2654     572.0361   1423.18909     736.2654     572.0361
   1423.17383     737.2887     570.8964   1423.17383     737.2887     570.8964
   1423.15857     736.1793     570.7143   1423.15857     736.1793     570.7143
   1423.14331     736.0058     570.2223   1423.14331     736.0058     570.2223
   1423.12805     735.9592     568.4803   1423.12805     735.9592     568.4803
   1423.11279     735.4850     568.4229   1423.11279     735.4850     568.4229
   1423.09753     735.1452     567.7155   1423.09753     735.1452     567.7155
   1423.08228     734.6951     565.9669   1423.08228     734.6951     565.9669
   1423.06702     735.0956     565.2082   1423.06702     735.0956     565.2082
   1423.05176     733.9213     564.8019   1423.05176     733.9213     564.8019
   1423.03650     733.5367     563.9017   1423.03650     733.5367     563.9017
   1423.02124     732.7177     562.5720   1423.02124     732.7177     562.5720
   1423.00598     733.4833     561.9391   1423.00598     733.4833     561.9391
   1422.99072     731.9346     561.9828   1422.99072     731.9346     561.9828
   1422.97546     731.8243     559.9951   1422.97546     731.8243     559.9951
   1422.96021     732.1620     560.1496   1422.96021     732.1620     560.1496
   1422.94495     731.3236     558.6543   1422.94495     731.3236     558.6543
   1422.92969     731.7039     558.1936   1422.92969     731.7039     558.1936
   1422.91443     731.6435     557.5662   1422.91443     731.6435     557.5662
   1422.89917     730.1754     556.4429   1422.89917     730.1754     556.4429
   1422.88391     730.5103     556.1760   1422.88391     730.5103     556.1760
   1422.86865     730.7009     555.3160   1422.86865     730.7009     555.3160
   1422.85339     729.5971     553.4839   1422.85339     729.5971     553.4839
   1422.83813     729.9308     551.9106   1422.83813     729.9308     551.9106
   1422.82288     730.0411     552.3258   1422.82288     730.0411     552.3258
   1422.80762     729.6227     550.6928   1422.80762     729.6227     550.6928
   1422.79236     730.0872     549.8517   1422.79236     730.0872     549.8517
   1422.77710     728.7983     549.1066   1422.77710     728.7983     549.1066
   1422.76184     728.7578     548.2988   1422.76184     728.7578     548.2988
   1422.74658     728.1641     547.0977   1422.74658     728.1641     547.0977
   1422.73132     728.4062     546.8493   1422.73132     728.4062     546.8493
   1422.71606     728.5608     545.5346   1422.71606     728.5608     545.5346
   1422.70081     727.6242     545.3939   1422.70081     727.6242     545.3939
   1422.68555     727.0516     543.2277   1422.68555     727.0516     543.2277
   1422.67029     727.5211     542.8472   1422.67029     727.5211     542.8472
   1422.65503     726.3541     541.6724   1422.65503     726.3541     541.6724
   1422.63977     727.8164     541.1616   1422.63977     727.8164     541.1616
   1422.62451     727.3240     540.5677   1422.62451     727.3240     540.5677
   1422.60925     724.9554     540.0535   1422.60925     724.9554     540.0535
   1422.59399     725.9937     539.1656   1422.59399     725.9937     539.1656
   1422.57874     726.1425     537.8066   1422.57874     726.1425     537.8066
   1422.56348     726.0056     536.4521   1422.56348     726.0056     536.4521
   1422.54822     724.9451     535.7059   1422.54822     724.9451     535.7059
   1422.53296     725.2702     534.7513   1422.53296     725.2702     534.7513
   1422.51770     725.3475     534.2714   1422.51770     725.3475     534.2714
   1422.50244     724.8290     533.7545   1422.50244     724.8290     533.7545
   1422.48718     725.3458     532.6202   1422.48718     725.3458     532.6202
   1422.47192     724.7199     531.2395   1422.47192     724.7199     531.2395
   1422.45667     724.7787     530.5566   1422.45667     724.7787     530.5566
   1422.44141     724.8004     530.2927   1422.44141     724.8004     530.2927
   1422.42615     724.4355     529.3590   1422.42615     724.4355     529.3590
   1422.41089     724.0756     529.1860   1422.41089     724.0756     529.1860
   1422.39563     724.4372     527.3920   1422.39563     724.4372     527.3920
   1422.38037     723.1340     526.6163   1422.38037     723.1340     526.6163
   1422.36511     723.7159     526.2643   1422.36511     723.7159     526.2643
   1422.34985     723.8491     524.4604   1422.34985     723.8491     524.4604
   1422.33459     724.3618     523.2238   1422.33459     724.3618     523.2238
   1422.31934     722.9528     523.4637   1422.31934     722.9528     523.4637
   1422.30408     722.9601     522.2781   1422.30408     722.9601     522.2781
   1422.28882     723.1887     521.8061   1422.28882     723.1887     521.8061
   1422.27356     722.0168     520.8542   1422.27356     722.0168     520.8542
   1422.25830     722.4373     519.9057   1422.25830     722.4373     519.9057
   1422.24304     723.1386     519.3323   1422.24304     723.1386     519.3323
   1422.22778     722.3021     518.2916   1422.22778     722.3021     518.2916
   1422.21252     722.4258     516.8369   1422.21252     722.4258     516.8369
   1422.19727     722.2586     516.2006   1422.19727     722.2586     516.2006
   1422.18201     721.0403     515.5838   1422.18201     721.0403     515.5838
   1422.16675     722.3981     514.0095   1422.16675     722.3981     514.0095
   1422.15149     721.5829     514.3118   1422.15149     721.5829     514.3118
   1422.13623     721.1846     512.6122   1422.13623     721.1846     512.6122
   1422.12097     720.8480     511.2021   1422.12097     720.8480     511.2021
   1422.10571     720.9724     511.3690   1422.10571     720.9724     511.3690
   1422.09045     720.8732     510.3264   1422.09045     720.8732     510.3264
   1422.07520     720.5118     508.9786   1422.07520     720.5118     508.9786
   1422.05994     721.1700     508.2830   1422.05994     721.1700     508.2830
   1422.04468     720.8586     508.0818   1422.04468     720.8586     508.0818
   1422.02942     721.4789     506.2843   1422.02942     721.4789     506.2843
   1422.01416     721.3816     505.3708   1422.01416     721.3816     505.3708
   1421.99890     720.7891     505.1498   1421.99890     720.7891     505.1498
   1421.98364     720.2794     503.5854   1421.98364     720.2794     503.5854
   1421.96838     720.9016     503.7027   1421.96838     720.9016     503.7027
   1421.95312     721.5940     502.7576   1421.95312     721.5940     502.7576
   1421.93787     720.6940     501.6159   1421.93787     720.6940     501.6159
   1421.92261     720.0616     500.9359   1421.92261     720.0616     500.9359
   1421.90735     720.5867     499.2641   1421.90735     720.5867     499.2641
   1421.89209     721.4380     499.5659   1421.89209     721.4380     499.5659
   1421.87683     719.2264     498.7762   1421.87683     719.2264     498.7762
   1421.86157     720.8314     497.6978   1421.86157     720.8314     497.6978
   1421.84631     719.2563     497.8423   1421.84631     719.2563     497.8423
   1421.83105     719.6043     496.0495   1421.83105     719.6043     496.0495
   1421.81580     719.1740     495.0261   1421.81580     719.1740     495.0261
   1421.80054     719.6226     494.3596   1421.80054     719.6226     494.3596
   1421.78528     719.1459     492.8747   1421.78528     719.1459     492.8747
   1421.77002     719.4719     492.2258   1421.77002     719.4719     492.2258
   1421.75476     719.9332     491.3314   1421.75476     719.9332     491.3314
   1421.73950     717.6556     490.4294   1421.73950     717.6556     490.4294
   1421.72424     719.4575     489.7398   1421.72424     719.4575     489.7398
   1421.70898     719.0246     488.9942   1421.70898     719.0246     488.9942
   1421.69373     718.2698     488.1704   1421.69373     718.2698     488.1704
   1421.67847     719.9981     487.3708   1421.67847     719.9981     487.3708
   1421.66321     718.2552     486.8654   1421.66321     718.2552     486.8654
   1421.64795     718.5768     485.5229   1421.64795     718.5768     485.5229
   1421.63269     719.1682     484.3606   1421.63269     719.1682     484.3606
   1421.61743     717.8602     483.5944   1421.61743     717.8602     483.5944
   1421.60217     717.9249     482.8960   1421.60217     717.9249     482.8960
   1421.58691     718.5988     482.1183   1421.58691     718.5988     482.1183
   1421.57166     717.7697     481.3267   1421.57166     717.7697     481.3267
   1421.55640     717.1710     481.0241   1421.55640     717.1710     481.0241
   1421.54114     717.6548     479.1098   1421.54114     717.6548     479.1098
   1421.52588     718.0499     478.7244   1421.52588     718.0499     478.7244
   1421.51062     717.6091     478.6871   1421.51062     717.6091     478.6871
   1421.49536     718.6365     476.7091   1421.49536     718.6365     476.7091
   1421.48010     717.7185     476.5313   1421.48010     717.7185     476.5313
   1421.46484     717.1722     474.8698   1421.46484     717.1722     474.8698
   1421.44958     717.7338     474.6022   1421.44958     717.7338     474.6022
   1421.43433     716.1624     473.5605   1421.43433     716.1624     473.5605
   1421.41907     717.5391     473.1397   1421.41907     717.5391     473.1397
   1421.40381     716.7708     472.5649   1421.40381     716.7708     472.5649
   1421.38855     717.5590     471.7128   1421.38855     717.5590     471.7128
   1421.37329     716.7046     471.1757   1421.37329     716.7046     471.1757
   1421.35803     716.0114     469.8782   1421.35803     716.0114     469.8782
   1421.34277     716.3771     468.7003   1421.34277     716.3771     468.7003
   1421.32751     716.8075     468.6722   1421.32751     716.8075     468.6722
   1421.31226     715.4499     466.9192   1421.31226     715.4499     466.9192
   1421.29700     716.1432     466.3886   1421.29700     716.1432     466.3886
   1421.28174     715.6166     465.4162   1421.28174     715.6166     465.4162
   1421.26648     715.7689     464.1294   1421.26648     715.7689     464.1294
   1421.25122     715.2697     464.1719   1421.25122     715.2697     464.1719
   1421.23596     714.7421     462.3444   1421.23596     714.7421     462.3444
   1421.22070     714.7448     462.3267   1421.22070     714.7448     462.3267
   1421.20544     715.6520     461.7272   1421.20544     715.6520     461.7272
   1421.19019     715.4958     460.9426   1421.19019     715.4958     460.9426
   1421.17493     713.9697     459.6624   1421.17493     713.9697     459.6624
   1421.15967     713.9677     459.1969   1421.15967     713.9677     459.1969
   1421.14441     714.3984     457.9286   1421.14441     714.3984     457.9286
   1421.12915     713.7538     458.1249   1421.12915     713.7538     458.1249
   1421.11389     713.5117     456.7797   1421.11389     713.5117     456.7797
   1421.09863     714.8041     455.7954   1421.09863     714.8041     455.7954
   1421.08337     713.1611     454.6794   1421.08337     713.1611     454.6794
   1421.06812     714.1209     454.2802   1421.06812     714.1209     454.2802
   1421.05286     712.6951     453.8636   1421.05286     712.6951     453.8636
   1421.03760     713.2023     453.1501   1421.03760     713.2023     453.1501
   1421.02234     714.9266     452.0916   1421.02234     714.9266     452.0916
   1421.00708     713.4260     450.7639   1421.00708     713.4260     450.7639
   1420.99182     713.5371     450.9051   1420.99182     713.5371     450.9051
   1420.97656     714.0025     450.3421   1420.97656     714.0025     450.3421
   1420.96130     714.6284     450.1886   1420.96130     714.6284     450.1886
   1420.94604     714.7906     449.4495   1420.94604     714.7906     449.4495
   1420.93079     714.4766     448.9854   1420.93079     714.4766     448.9854
   1420.91553     715.8019     449.3719   1420.91553     715.8019     449.3719
   1420.90027     717.4349     448.2079   1420.90027     717.4349     448.2079
   1420.88501     716.7714     447.1128   1420.88501     716.7714     447.1128
   1420.86975     716.5845     447.0770   1420.86975     716.5845     447.0770
   1420.85449     715.4643     446.3660   1420.85449     715.4643     446.3660
   1420.83923     716.7525     446.1424   1420.83923     716.7525     446.1424
   1420.82397     717.3489     444.9143   1420.82397     717.3489     444.9143
   1420.80872     717.5038     444.7235   1420.80872     717.5038     444.7235
   1420.79346     716.7517     443.9908   1420.79346     716.7517     443.9908
   1420.77820     717.2717     443.2711   1420.77820     717.2717     443.2711
   1420.76294     717.5554     442.8553   1420.76294     717.5554     442.8553
   1420.74768     718.9905     443.1245   1420.74768     718.9905     443.1245
   1420.73242     717.8608     441.1295   1420.73242     717.8608     441.1295
   1420.71716     719.9821     443.0109   1420.71716     719.9821     443.0109
   1420.70190     723.8578     443.9290   1420.70190     723.8578     443.9290
   1420.68665     727.2932     445.0741   1420.68665     727.2932     445.0741
   1420.67139     737.3109     450.4075   1420.67139     737.3109     450.4075
   1420.65613     753.7272     458.5557   1420.65613     753.7272     458.5557
   1420.64087     785.7775     477.1050   1420.64087     785.7775     477.1050
   1420.62561     817.6999     495.7381   1420.62561     817.6999     495.7381
   1420.61035     826.1127     499.2945   1420.61035     826.1127     499.2945
   1420.59509     841.7927     508.2888   1420.59509     841.7927     508.2888
   1420.57983     881.7928     530.4553   1420.57983     881.7928     530.4553
   1420.56458     958.5662     575.5297   1420.56458     958.5662     575.5297
   1420.54932    1099.3638     656.1335   1420.54932    1099.3638     656.1335
   1420.53406    1406.5264     834.5294   1420.53406    1406.5264     834.5294
   1420.51880    1746.8470    1030.6150   1420.51880    1746.8470    1030.6150
   1420.50354    1827.6934    1074.6311   1420.50354    1827.6934    1074.6311
   1420.48828    1784.0266    1048.7628   1420.48828    1784.0266    1048.7628
   1420.47302    1808.6443    1059.2278   1420.47302    1808.6443    1059.2278
   1420.45776    1756.8068    1031.8353   1420.45776    1756.8068    1031.8353
   1420.44250    1655.3862     970.3472   1420.44250    1655.3862     970.3472
   1420.42725    1660.4059     969.9556   1420.42725    1660.4059     969.9556
   1420.41199    1725.4337    1006.6906   1420.41199    1725.4337    1006.6906
   1420.39673    1880.6826    1093.4231   1420.39673    1880.6826    1093.4231
   1420.38147    1924.7939    1118.1898   1420.38147    1924.7939    1118.1898
   1420.36621    1755.5186    1019.5385   1420.36621    1755.5186    1019.5385
   1420.35095    1554.2430     903.3162   1420.35095    1554.2430     903.3162
   1420.33569    1437.6534     836.2662   1420.33569    1437.6534     836.2662
   1420.32043    1418.6859     822.5201   1420.32043    1418.6859     822.5201
   1420.30518    1333.1685     775.1144   1420.30518    1333.1685     775.1144
   1420.28992    1019.7280     594.9528   1420.28992    1019.7280     594.9528
   1420.27466     853.9235     499.5504   1420.27466     853.9235     499.5504
   1420.25940     778.6207     456.0635   1420.25940     778.6207     456.0635
   1420.24414     746.4984     436.8246   1420.24414     746.4984     436.8246
   1420.22888     730.1686     427.2126   1420.22888     730.1686     427.2126
   1420.21362     720.4631     421.6983   1420.21362     720.4631     421.6983
   1420.19836     716.0157     417.8653   1420.19836     716.0157     417.8653
   1420.18311     711.7375     415.2253   1420.18311     711.7375     415.2253
   1420.16785     708.7807     412.6856   1420.16785     708.7807     412.6856
   1420.15259     707.7370     411.7411   1420.15259     707.7370     411.7411
   1420.13733     706.3035     410.4964   1420.13733     706.3035     410.4964
   1420.12207     703.5681     408.2676   1420.12207     703.5681     408.2676
   1420.10681     701.8519     407.7845   1420.10681     701.8519     407.7845
   1420.09155     701.8409     406.1205   1420.09155     701.8409     406.1205
   1420.07629     701.1732     404.9296   1420.07629     701.1732     404.9296
   1420.06104     701.0061     404.3814   1420.06104     701.0061     404.3814
   1420.04578     698.9906     403.7288   1420.04578     698.9906     403.7288
   1420.03052     699.2803     402.4307   1420.03052     699.2803     402.4307
   1420.01526     699.5356     403.2982   1420.01526     699.5356     403.2982
   1420.00000     700.3822     403.9458   1420.00000     700.3822     403.9458
   1419.98474     701.2281     404.5934   1419.98474     701.2281     404.5934
   1419.96948     701.2032     401.3911   1419.96948     701.2032     401.3911
   1419.95422     698.0997     399.5865   1419.95422     698.0997     399.5865
   1419.93896     697.7709     399.7861   1419.93896     697.7709     399.7861
   1419.92371     698.2159     398.3701   1419.92371     698.2159     398.3701
   1419.90845     698.0198     398.2368   1419.90845     698.0198     398.2368
   1419.89319     697.2999     397.3615   1419.89319     697.2999     397.3615
   1419.87793     698.0460     397.1185   1419.87793     698.0460     397.1185
   1419.86267     696.8376     396.0590   1419.86267     696.8376     396.0590
   1419.84741     697.4333     395.7109   1419.84741     697.4333     395.7109
   1419.83215     697.1661     395.1618   1419.83215     697.1661     395.1618
   1419.81689     697.4312     394.2782   1419.81689     697.4312     394.2782
   1419.80164     696.6880     393.5876   1419.80164     696.6880     393.5876
   1419.78638     696.3918     393.2009   1419.78638     696.3918     393.2009
   1419.77112     697.6410     393.6733   1419.77112     697.6410     393.6733
   1419.75586     696.3774     393.0363   1419.75586     696.3774     393.0363
   1419.74060     696.6891     391.7974   1419.74060     696.6891     391.7974
   1419.72534     695.4152     391.7675   1419.72534     695.4152     391.7675
   1419.71008     697.4275     391.3697   1419.71008     697.4275     391.3697
   1419.69482     696.4476     390.8251   1419.69482     696.4476     390.8251
   1419.67957     696.7277     390.0045   1419.67957     696.7277     390.0045
   1419.66431     697.2429     389.9944   1419.66431     697.2429     389.9944
   1419.64905     697.1192     389.1059   1419.64905     697.1192     389.1059
   1419.63379     698.3035     388.6875   1419.63379     698.3035     388.6875
   1419.61853     698.1405     388.7087   1419.61853     698.1405     388.7087
   1419.60327     697.0458     388.5059   1419.60327     697.0458     388.5059
   1419.58801     696.3535     387.7462   1419.58801     696.3535     387.7462
   1419.57275     698.5026     387.8692   1419.57275     698.5026     387.8692
   1419.55750     697.8067     387.2570   1419.55750     697.8067     387.2570
   1419.54224     697.6341     387.1642   1419.54224     697.6341     387.1642
   1419.52698     697.7615     386.8981   1419.52698     697.7615     386.8981
   1419.51172     697.9583     385.6822   1419.51172     697.9583     385.6822
   1419.49646     698.5526     385.4747   1419.49646     698.5526     385.4747
   1419.48120     699.2538     385.9308   1419.48120     699.2538     385.9308
   1419.46594     699.2489     385.4627   1419.46594     699.2489     385.4627
   1419.45068     699.0110     384.6353   1419.45068     699.0110     384.6353
   1419.43542     699.9673     385.0099   1419.43542     699.9673     385.0099
   1419.42017     698.6315     384.4417   1419.42017     698.6315     384.4417
   1419.40491     698.8844     384.2922   1419.40491     698.8844     384.2922
   1419.38965     700.0836     384.0147   1419.38965     700.0836     384.0147
   1419.37439     700.5689     383.9797   1419.37439     700.5689     383.9797
   1419.35913     699.8273     383.4688   1419.35913     699.8273     383.4688
   1419.34387     700.3425     383.6278   1419.34387     700.3425     383.6278
   1419.32861     700.2563     383.8622   1419.32861     700.2563     383.8622
   1419.31335     700.8581     382.3896   1419.31335     700.8581     382.3896
   1419.29810     701.5566     382.2892   1419.29810     701.5566     382.2892
   1419.28284     701.2489     382.9780   1419.28284     701.2489     382.9780
   1419.26758     701.3715     382.4323   1419.26758     701.3715     382.4323
   1419.25232     702.1580     382.2241   1419.25232     702.1580     382.2241
   1419.23706     701.7611     382.0855   1419.23706     701.7611     382.0855
   1419.22180     702.4244     381.8696   1419.22180     702.4244     381.8696
   1419.20654     702.8093     381.4012   1419.20654     702.8093     381.4012
   1419.19128     702.3624     381.6971   1419.19128     702.3624     381.6971
   1419.17603     704.3758     381.1165   1419.17603     704.3758     381.1165
   1419.16077     702.8649     381.9117   1419.16077     702.8649     381.9117
   1419.14551     702.3258     381.0538   1419.14551     702.3258     381.0538
   1419.13025     703.4319     381.0052   1419.13025     703.4319     381.0052
   1419.11499     704.6172     380.8829   1419.11499     704.6172     380.8829
   1419.09973     704.3616     381.1129   1419.09973     704.3616     381.1129
   1419.08447     705.3121     381.3262   1419.08447     705.3121     381.3262
   1419.06921     705.3201     380.7096   1419.06921     705.3201     380.7096
   1419.05396     705.9883     380.8776   1419.05396     705.9883     380.8776
   1419.03870     705.4773     380.6982   1419.03870     705.4773     380.6982
   1419.02344     705.7576     380.0473   1419.02344     705.7576     380.0473
   1419.00818     706.8760     380.2643   1419.00818     706.8760     380.2643
   1418.99292     707.5653     380.4733   1418.99292     707.5653     380.4733
   1418.97766     707.3581     380.6421   1418.97766     707.3581     380.6421
   1418.96240     708.3854     381.3919   1418.96240     708.3854     381.3919
   1418.94714     707.8004     380.6632   1418.94714     707.8004     380.6632
   1418.93188     708.5874     381.0484   1418.93188     708.5874     381.0484
   1418.91663     709.7694     381.2394   1418.91663     709.7694     381.2394
   1418.90137     707.9601     380.8602   1418.90137     707.9601     380.8602
   1418.88611     709.3881     381.4013   1418.88611     709.3881     381.4013
   1418.87085     709.5494     380.7331   1418.87085     709.5494     380.7331
   1418.85559     709.9055     380.9714   1418.85559     709.9055     380.9714
   1418.84033     710.1295     381.2375   1418.84033     710.1295     381.2375
   1418.82507     710.7779     381.0100   1418.82507     710.7779     381.0100
   1418.80981     711.4826     381.4385   1418.80981     711.4826     381.4385
   1418.79456     711.3485     381.6579   1418.79456     711.3485     381.6579
   1418.77930     712.7966     381.0742   1418.77930     712.7966     381.0742
   1418.76404     712.0093     381.4828   1418.76404     712.0093     381.4828
   1418.74878     714.2031     382.3537   1418.74878     714.2031     382.3537
   1418.73352     713.6176     382.0754   1418.73352     713.6176     382.0754
   1418.71826     714.8367     382.5157   1418.71826     714.8367     382.5157
   1418.70300     715.3961     382.4821   1418.70300     715.3961     382.4821
   1418.68774     715.5757     382.0333   1418.68774     715.5757     382.0333
   1418.67249     715.5457     382.7751   1418.67249     715.5457     382.7751
   1418.65723     715.8973     382.9931   1418.65723     715.8973     382.9931
   1418.64197     716.7693     382.5793   1418.64197     716.7693     382.5793
   1418.62671     717.4858     383.4747   1418.62671     717.4858     383.4747
   1418.61145     717.1899     383.6805   1418.61145     717.1899     383.6805
   1418.59619     718.6367     383.9378   1418.59619     718.6367     383.9378
   1418.58093     717.4044     383.7211   1418.58093     717.4044     383.7211
   1418.56567     717.5257     384.9866   1418.56567     717.5257     384.9866
   1418.55042     718.7166     384.4271   1418.55042     718.7166     384.4271
   1418.53516     719.4800     384.8070   1418.53516     719.4800     384.8070
   1418.51990     719.4329     384.8850   1418.51990     719.4329     384.8850
   1418.50464     722.0471     385.4082   1418.50464     722.0471     385.4082
   1418.48938     721.2011     386.0768   1418.48938     721.2011     386.0768
   1418.47412     722.1926     385.8268   1418.47412     722.1926     385.8268
   1418.45886     722.9080     387.0289   1418.45886     722.9080     387.0289
   1418.44360     723.0001     387.4471   1418.44360     723.0001     387.4471
   1418.42834     723.8075     387.2401   1418.42834     723.8075     387.2401
   1418.41309     725.2474     387.2521   1418.41309     725.2474     387.2521
   1418.39783     725.5226     388.2705   1418.39783     725.5226     388.2705
   1418.38257     725.4236     388.9052   1418.38257     725.4236     388.9052
   1418.36731     726.3901     388.7314   1418.36731     726.3901     388.7314
   1418.35205     726.1985     388.9843   1418.35205     726.1985     388.9843
   1418.33679     728.0640     389.7866   1418.33679     728.0640     389.7866
   1418.32153     727.9769     390.4419   1418.32153     727.9769     390.4419
   1418.30627     729.1667     390.1331   1418.30627     729.1667     390.1331
   1418.29102     728.9137     391.3563   1418.29102     728.9137     391.3563
   1418.27576     731.0062     391.2337   1418.27576     731.0062     391.2337
   1418.26050     729.8001     392.0109   1418.26050     729.8001     392.0109
   1418.24524     731.1332     392.6040   1418.24524     731.1332     392.6040
   1418.22998     731.3446     392.4766   1418.22998     731.3446     392.4766
   1418.21472     733.2767     393.0029   1418.21472     733.2767     393.0029
   1418.19946     731.9868     394.1709   1418.19946     731.9868     394.1709
   1418.18420     733.5775     394.4151   1418.18420     733.5775     394.4151
   1418.16895     733.2352     394.9034   1418.16895     733.2352     394.9034
   1418.15369     734.2377     396.1735   1418.15369     734.2377     396.1735
   1418.13843     735.2448     395.9813   1418.13843     735.2448     395.9813
   1418.12317     737.0426     396.4943   1418.12317     737.0426     396.4943
   1418.10791     737.1622     397.4539   1418.10791     737.1622     397.4539
   1418.09265     737.7922     398.0993   1418.09265     737.7922     398.0993
   1418.07739     738.1464     398.8305   1418.07739     738.1464     398.8305
   1418.06213     737.6098     397.8841   1418.06213     737.6098     397.8841
   1418.04688     739.3153     399.6836   1418.04688     739.3153     399.6836
   1418.03162     739.4488     399.8978   1418.03162     739.4488     399.8978
   1418.01636     739.6816     400.9303   1418.01636     739.6816     400.9303
   1418.00110     742.2854     401.8793   1418.00110     742.2854     401.8793
   1417.98584     742.9916     402.5029   1417.98584     742.9916     402.5029
   1417.97058     742.9385     402.6664   1417.97058     742.9385     402.6664
   1417.95532     744.3743     403.5497   1417.95532     744.3743     403.5497
   1417.94006     743.8978     403.9273   1417.94006     743.8978     403.9273
   1417.92480     745.5348     404.1586   1417.92480     745.5348     404.1586
   1417.90955     744.5599     405.4026   1417.90955     744.5599     405.4026
   1417.89429     745.7476     406.5303   1417.89429     745.7476     406.5303
   1417.87903     747.2429     406.8497   1417.87903     747.2429     406.8497
   1417.86377     747.0337     407.1175   1417.86377     747.0337     407.1175
   1417.84851     749.1994     408.3543   1417.84851     749.1994     408.3543
   1417.83325     749.6005     408.6886   1417.83325     749.6005     408.6886
   1417.81799     749.8830     409.5293   1417.81799     749.8830     409.5293
   1417.80273     750.5511     410.6302   1417.80273     750.5511     410.6302
   1417.78748     751.2224     411.5752   1417.78748     751.2224     411.5752
   1417.77222     751.1353     411.9538   1417.77222     751.1353     411.9538
   1417.75696     752.2634     412.4115   1417.75696     752.2634     412.4115
   1417.74170     754.0099     413.4055   1417.74170     754.0099     413.4055
   1417.72644     753.2003     413.8703   1417.72644     753.2003     413.8703
   1417.71118     755.2125     414.9324   1417.71118     755.2125     414.9324
   1417.69592     754.4591     416.0050   1417.69592     754.4591     416.0050
   1417.68066     755.4708     416.5259   1417.68066     755.4708     416.5259
   1417.66541     755.8356     417.9386   1417.66541     755.8356     417.9386
   1417.65015     756.3031     418.9266   1417.65015     756.3031     418.9266
   1417.63489     756.8563     420.2534   1417.63489     756.8563     420.2534
   1417.61963     759.0302     420.0056   1417.61963     759.0302     420.0056
   1417.60437     758.1971     421.0956   1417.60437     758.1971     421.0956
   1417.58911     759.5608     422.4161   1417.58911     759.5608     422.4161
   1417.57385     759.7354     422.6635   1417.57385     759.7354     422.6635
   1417.55859     760.6028     423.5987   1417.55859     760.6028     423.5987
   1417.54333     760.9659     424.5375   1417.54333     760.9659     424.5375
   1417.52808     762.8975     425.8239   1417.52808     762.8975     425.8239
   1417.51282     763.2089     426.7761   1417.51282     763.2089     426.7761
   1417.49756     763.4626     427.4578   1417.49756     763.4626     427.4578
   1417.48230     765.2646     427.8541   1417.48230     765.2646     427.8541
   1417.46704     766.8761     429.0255   1417.46704     766.8761     429.0255
   1417.45178     765.8845     429.3675   1417.45178     765.8845     429.3675
   1417.43652     765.8544     430.5946   1417.43652     765.8544     430.5946
   1417.42126     766.5801     432.0641   1417.42126     766.5801     432.0641
   1417.40601     767.4915     431.8173   1417.40601     767.4915     431.8173
   1417.39075     768.7105     433.9910   1417.39075     768.7105     433.9910
   1417.37549     768.2671     435.0077   1417.37549     768.2671     435.0077
   1417.36023     768.7003     435.8383   1417.36023     768.7003     435.8383
   1417.34497     770.7449     436.1641   1417.34497     770.7449     436.1641
   1417.32971     770.3149     436.8496   1417.32971     770.3149     436.8496
   1417.31445     771.6092     437.9019   1417.31445     771.6092     437.9019
   1417.29919     770.8296     439.6823   1417.29919     770.8296     439.6823
   1417.28394     772.7523     439.6559   1417.28394     772.7523     439.6559
   1417.26868     772.5515     441.1895   1417.26868     772.5515     441.1895
   1417.25342     772.3614     442.3303   1417.25342     772.3614     442.3303
   1417.23816     773.3055     442.9218   1417.23816     773.3055     442.9218
   1417.22290     774.2299     444.3143   1417.22290     774.2299     444.3143
   1417.20764     776.0638     445.0818   1417.20764     776.0638     445.0818
   1417.19238     775.9825     445.6139   1417.19238     775.9825     445.6139
   1417.17712     777.3158     446.3982   1417.17712     777.3158     446.3982
   1417.16187     778.0120     447.6523   1417.16187     778.0120     447.6523
   1417.14661     777.1499     448.9126   1417.14661     777.1499     448.9126
   1417.13135     778.5068     450.2488   1417.13135     778.5068     450.2488
   1417.11609     777.7251     451.2673   1417.11609     777.7251     451.2673
   1417.10083     778.4772     452.2316   1417.10083     778.4772     452.2316
   1417.08557     780.1317     452.3750   1417.08557     780.1317     452.3750
   1417.07031     779.6693     453.8019   1417.07031     779.6693     453.8019
   1417.05505     779.7333     454.9457   1417.05505     779.7333     454.9457
   1417.03979     779.9138     455.6489   1417.03979     779.9138     455.6489
   1417.02454     780.9430     456.8128   1417.02454     780.9430     456.8128
   1417.00928     782.9175     457.5875   1417.00928     782.9175     457.5875
   1416.99402     782.2158     458.1482   1416.99402     782.2158     458.1482
   1416.97876     782.3360     458.9197   1416.97876     782.3360     458.9197
   1416.96350     782.8527     460.6435   1416.96350     782.8527     460.6435
   1416.94824     782.4594     461.8309   1416.94824     782.4594     461.8309
   1416.93298     782.6451     462.1168   1416.93298     782.6451     462.1168
   1416.91772     783.5886     462.9677   1416.91772     783.5886     462.9677
   1416.90247     783.3483     463.8192   1416.90247     783.3483     463.8192
   1416.88721     784.9573     464.7175   1416.88721     784.9573     464.7175
   1416.87195     784.7540     466.4828   1416.87195     784.7540     466.4828
   1416.85669     784.3822     467.0385   1416.85669     784.3822     467.0385
   1416.84143     785.7538     468.2356   1416.84143     785.7538     468.2356
   1416.82617     785.5646     469.0985   1416.82617     785.5646     469.0985
   1416.81091     785.8463     470.0611   1416.81091     785.8463     470.0611
   1416.79565     786.3671     470.2699   1416.79565     786.3671     470.2699
   1416.78040     786.2512     471.3085   1416.78040     786.2512     471.3085
   1416.76514     787.0277     471.8327   1416.76514     787.0277     471.8327
   1416.74988     788.0432     473.2396   1416.74988     788.0432     473.2396
   1416.73462     786.6178     473.2387   1416.73462     786.6178     473.2387
   1416.71936     788.4507     474.2979   1416.71936     788.4507     474.2979
   1416.70410     789.2510     475.8259   1416.70410     789.2510     475.8259
   1416.68884     789.0875     476.1714   1416.68884     789.0875     476.1714
   1416.67358     788.6155     477.3542   1416.67358     788.6155     477.3542
   1416.65833     787.0056     478.1417   1416.65833     787.0056     478.1417
   1416.64307     788.8713     478.5797   1416.64307     788.8713     478.5797
   1416.62781     788.8850     479.4097   1416.62781     788.8850     479.4097
   1416.61255     788.7795     479.9253   1416.61255     788.7795     479.9253
   1416.59729     789.5067     481.4464   1416.59729     789.5067     481.4464
   1416.58203     789.2352     481.6665   1416.58203     789.2352     481.6665
   1416.56677     789.2567     481.4294   1416.56677     789.2567     481.4294
   1416.55151     788.6747     483.6847   1416.55151     788.6747     483.6847
   1416.53625     789.6266     484.0287   1416.53625     789.6266     484.0287
   1416.52100     789.6192     484.5752   1416.52100     789.6192     484.5752
   1416.50574     788.5405     485.8914   1416.50574     788.5405     485.8914
   1416.49048     790.2239     484.9296   1416.49048     790.2239     484.9296
   1416.47522     790.5748     486.1326   1416.47522     790.5748     486.1326
   1416.45996     789.1649     487.2352   1416.45996     789.1649     487.2352
   1416.44470     789.7238     488.2282   1416.44470     789.7238     488.2282
   1416.42944     789.7769     488.6790   1416.42944     789.7769     488.6790
   1416.41418     788.9304     488.7210   1416.41418     788.9304     488.7210
   1416.39893     790.3469     489.6409   1416.39893     790.3469     489.6409
   1416.38367     788.6921     490.7757   1416.38367     788.6921     490.7757
   1416.36841     790.2430     489.8926   1416.36841     790.2430     489.8926
   1416.35315     788.2965     491.5541   1416.35315     788.2965     491.5541
   1416.33789     788.6866     491.0905   1416.33789     788.6866     491.0905
   1416.32263     787.9604     491.8651   1416.32263     787.9604     491.8651
   1416.30737     788.7145     492.9949   1416.30737     788.7145     492.9949
   1416.29211     789.8067     491.9852   1416.29211     789.8067     491.9852
   1416.27686     787.7227     492.9616   1416.27686     787.7227     492.9616
   1416.26160     788.5788     493.3965   1416.26160     788.5788     493.3965
   1416.24634     787.9620     494.4131   1416.24634     787.9620     494.4131
   1416.23108     789.0467     495.4911   1416.23108     789.0467     495.4911
   1416.21582     788.7933     495.4969   1416.21582     788.7933     495.4969
   1416.20056     787.6396     495.1491   1416.20056     787.6396     495.1491
   1416.18530     787.3691     495.4006   1416.18530     787.3691     495.4006
   1416.17004     787.2002     495.5430   1416.17004     787.2002     495.5430
   1416.15479     786.5316     495.9588   1416.15479     786.5316     495.9588
   1416.13953     786.8896     496.4747   1416.13953     786.8896     496.4747
   1416.12427     785.2282     496.4285   1416.12427     785.2282     496.4285
   1416.10901     786.2579     496.9734   1416.10901     786.2579     496.9734
   1416.09375     785.5594     496.5171   1416.09375     785.5594     496.5171
   1416.07849     783.7296     497.6804   1416.07849     783.7296     497.6804
   1416.06323     785.1888     498.1632   1416.06323     785.1888     498.1632
   1416.04797     785.0976     497.7754   1416.04797     785.0976     497.7754
   1416.03271     783.7141     497.9659   1416.03271     783.7141     497.9659
   1416.01746     783.0223     498.5504   1416.01746     783.0223     498.5504
   1416.00220     782.4755     498.3680   1416.00220     782.4755     498.3680
   1415.98694     783.6758     499.1622   1415.98694     783.6758     499.1622
   1415.97168     782.4362     498.8928   1415.97168     782.4362     498.8928
   1415.95642     781.6844     498.9002   1415.95642     781.6844     498.9002
   1415.94116     781.6050     499.9771   1415.94116     781.6050     499.9771
   1415.92590     781.9318     499.2548   1415.92590     781.9318     499.2548
   1415.91064     780.7427     500.0318   1415.91064     780.7427     500.0318
   1415.89539     778.8853     499.4483   1415.89539     778.8853     499.4483
   1415.88013     778.2999     499.5721   1415.88013     778.2999     499.5721
   1415.86487     778.9479     499.4118   1415.86487     778.9479     499.4118
   1415.84961     778.5243     500.1236   1415.84961     778.5243     500.1236
   1415.83435     777.7675     499.9949   1415.83435     777.7675     499.9949
   1415.81909     777.4191     499.7136   1415.81909     777.4191     499.7136
   1415.80383     776.6873     499.7220   1415.80383     776.6873     499.7220
   1415.78857     775.7958     500.0897   1415.78857     775.7958     500.0897
   1415.77332     775.9451     500.5938   1415.77332     775.9451     500.5938
   1415.75806     774.9973     499.5724   1415.75806     774.9973     499.5724
   1415.74280     774.1586     500.0510   1415.74280     774.1586     500.0510
   1415.72754     772.6635     499.8749   1415.72754     772.6635     499.8749
   1415.71228     772.3778     499.6180   1415.71228     772.3778     499.6180
   1415.69702     772.9636     499.9495   1415.69702     772.9636     499.9495
   1415.68176     771.1906     499.8214   1415.68176     771.1906     499.8214
   1415.66650     770.7001     499.4762   1415.66650     770.7001     499.4762
   1415.65125     770.7725     499.8835   1415.65125     770.7725     499.8835
   1415.63599     770.1550     499.8779   1415.63599     770.1550     499.8779
   1415.62073     767.0490     499.6861   1415.62073     767.0490     499.6861
   1415.60547     767.8312     499.5724   1415.60547     767.8312     499.5724
   1415.59021     766.8362     498.5759   1415.59021     766.8362     498.5759
   1415.57495     765.8075     499.7544   1415.57495     765.8075     499.7544
   1415.55969     765.6735     499.0674   1415.55969     765.6735     499.0674
   1415.54443     763.4474     498.9552   1415.54443     763.4474     498.9552
   1415.52917     764.4114     498.1059   1415.52917     764.4114     498.1059
   1415.51392     763.3718     498.2264   1415.51392     763.3718     498.2264
   1415.49866     762.5067     497.7581   1415.49866     762.5067     497.7581
   1415.48340     761.0049     498.0036   1415.48340     761.0049     498.0036
   1415.46814     760.8195     497.8941   1415.46814     760.8195     497.8941
   1415.45288     759.8499     497.0930   1415.45288     759.8499     497.0930
   1415.43762     758.8099     498.3503   1415.43762     758.8099     498.3503
   1415.42236     757.5839     497.5390   1415.42236     757.5839     497.5390
   1415.40710     756.2805     497.0186   1415.40710     756.2805     497.0186
   1415.39185     756.1467     497.2769   1415.39185     756.1467     497.2769
   1415.37659     755.1299     497.5544   1415.37659     755.1299     497.5544
   1415.36133     755.1431     496.5085   1415.36133     755.1431     496.5085
   1415.34607     751.9767     495.5968   1415.34607     751.9767     495.5968
   1415.33081     752.3491     495.6279   1415.33081     752.3491     495.6279
   1415.31555     751.9717     495.7516   1415.31555     751.9717     495.7516
   1415.30029     749.0231     495.3983   1415.30029     749.0231     495.3983
   1415.28503     749.3851     495.4705   1415.28503     749.3851     495.4705
   1415.26978     747.8344     495.2277   1415.26978     747.8344     495.2277
   1415.25452     746.7170     494.2685   1415.25452     746.7170     494.2685
   1415.23926     744.7642     494.3163   1415.23926     744.7642     494.3163
   1415.22400     744.6837     493.9226   1415.22400     744.6837     493.9226
   1415.20874     743.5117     493.9888   1415.20874     743.5117     493.9888
   1415.19348     741.8641     493.3981   1415.19348     741.8641     493.3981
   1415.17822     741.8029     492.9484   1415.17822     741.8029     492.9484
   1415.16296     739.8287     493.2799   1415.16296     739.8287     493.2799
   1415.14771     739.5148     491.6888   1415.14771     739.5148     491.6888
   1415.13245     738.1184     492.5719   1415.13245     738.1184     492.5719
   1415.11719     736.2809     490.7344   1415.11719     736.2809     490.7344
   1415.10193     734.8792     490.6550   1415.10193     734.8792     490.6550
   1415.08667     733.9854     490.8143   1415.08667     733.9854     490.8143
   1415.07141     732.6180     489.7625   1415.07141     732.6180     489.7625
   1415.05615     730.8190     489.4590   1415.05615     730.8190     489.4590
   1415.04089     730.5146     489.0827   1415.04089     730.5146     489.0827
   1415.02563     729.4938     488.1082   1415.02563     729.4938     488.1082
   1415.01038     727.8630     487.1531   1415.01038     727.8630     487.1531
   1414.99512     727.2963     487.5396   1414.99512     727.2963     487.5396
   1414.97986     724.6102     486.0364   1414.97986     724.6102     486.0364
   1414.96460     722.7848     485.0522   1414.96460     722.7848     485.0522
   1414.94934     721.2402     485.6526   1414.94934     721.2402     485.6526
   1414.93408     720.0193     484.7588   1414.93408     720.0193     484.7588
   1414.91882     719.4196     484.6286   1414.91882     719.4196     484.6286
   1414.90356     717.8058     483.8605   1414.90356     717.8058     483.8605
   1414.88831     716.3261     483.0582   1414.88831     716.3261     483.0582
   1414.87305     714.7717     482.2356   1414.87305     714.7717     482.2356
   1414.85779     712.5048     481.7781   1414.85779     712.5048     481.7781
   1414.84253     710.6897     480.9781   1414.84253     710.6897     480.9781
   1414.82727     709.2620     480.4944   1414.82727     709.2620     480.4944
   1414.81201     707.1010     479.3674   1414.81201     707.1010     479.3674
   1414.79675     705.6862     478.6210   1414.79675     705.6862     478.6210
   1414.78149     704.1726     478.4526   1414.78149     704.1726     478.4526
   1414.76624     702.7012     476.7808   1414.76624     702.7012     476.7808
   1414.75098     701.5018     477.1224   1414.75098     701.5018     477.1224
   1414.73572     698.7605     475.7352   1414.73572     698.7605     475.7352
   1414.72046     697.5143     474.7904   1414.72046     697.5143     474.7904
   1414.70520     696.8347     474.0761   1414.70520     696.8347     474.0761
   1414.68994     694.9406     473.3637   1414.68994     694.9406     473.3637
   1414.67468     691.6758     472.1838   1414.67468     691.6758     472.1838
   1414.65942     691.4783     471.4768   1414.65942     691.4783     471.4768
   1414.64417     688.7731     470.8944   1414.64417     688.7731     470.8944
   1414.62891     687.0818     470.4034   1414.62891     687.0818     470.4034
   1414.61365     685.4698     469.0565   1414.61365     685.4698     469.0565
   1414.59839     683.2653     467.5408   1414.59839     683.2653     467.5408
   1414.58313     680.5441     466.5680   1414.58313     680.5441     466.5680
   1414.56787     680.1951     466.8866   1414.56787     680.1951     466.8866
   1414.55261     677.3093     465.5412   1414.55261     677.3093     465.5412
   1414.53735     675.1028     463.6995   1414.53735     675.1028     463.6995
   1414.52209     673.8009     463.9155   1414.52209     673.8009     463.9155
   1414.50684     671.1025     462.4422   1414.50684     671.1025     462.4422
   1414.49158     669.4883     460.6257   1414.49158     669.4883     460.6257
   1414.47632     668.3031     460.9102   1414.47632     668.3031     460.9102
   1414.46106     665.8332     460.0599   1414.46106     665.8332     460.0599
   1414.44580     663.2150     458.1291   1414.44580     663.2150     458.1291
   1414.43054     661.6758     457.2471   1414.43054     661.6758     457.2471
   1414.41528     659.6796     455.0586   1414.41528     659.6796     455.0586
   1414.40002     657.3926     454.7971   1414.40002     657.3926     454.7971
   1414.38477     654.5912     454.2992   1414.38477     654.5912     454.2992
   1414.36951     653.5532     452.6646   1414.36951     653.5532     452.6646
   1414.35425     650.6485     451.1491   1414.35425     650.6485     451.1491
   1414.33899     648.1666     449.8686   1414.33899     648.1666     449.8686
   1414.32373     645.5508     450.0528   1414.32373     645.5508     450.0528
   1414.30847     643.4952     448.2078   1414.30847     643.4952     448.2078
   1414.29321     640.3573     445.8566   1414.29321     640.3573     445.8566
   1414.27795     638.8715     444.7136   1414.27795     638.8715     444.7136
   1414.26270     636.0434     443.9395   1414.26270     636.0434     443.9395
   1414.24744     633.7720     442.3820   1414.24744     633.7720     442.3820
   1414.23218     631.1823     441.5053   1414.23218     631.1823     441.5053
   1414.21692     629.6762     439.8379   1414.21692     629.6762     439.8379
   1414.20166     627.6921     438.4016   1414.20166     627.6921     438.4016
   1414.18640     624.7885     437.1704   1414.18640     624.7885     437.1704
   1414.17114     621.1592     436.2538   1414.17114     621.1592     436.2538
   1414.15588     619.7706     434.6393   1414.15588     619.7706     434.6393
   1414.14062     617.0166     433.3655   1414.14062     617.0166     433.3655
   1414.12537     613.9718     431.9445   1414.12537     613.9718     431.9445
   1414.11011     611.7950     430.6546   1414.11011     611.7950     430.6546
   1414.09485     609.1778     428.8578   1414.09485     609.1778     428.8578
   1414.07959     606.7274     428.2503   1414.07959     606.7274     428.2503
   1414.06433     604.4928     425.8885   1414.06433     604.4928     425.8885
   1414.04907     601.7966     425.3073   1414.04907     601.7966     425.3073
   1414.03381     599.1247     422.7171   1414.03381     599.1247     422.7171
   1414.01855     597.5322     421.9162   1414.01855     597.5322     421.9162
   1414.00330     615.7593     428.5027   1414.00330     615.7593     428.5027
   1413.98804     592.8702     419.8596   1413.98804     592.8702     419.8596
   1413.97278     588.6367     417.1920   1413.97278     588.6367     417.1920
   1413.95752     585.7675     415.9924   1413.95752     585.7675     415.9924
   1413.94226     582.9366     414.5517   1413.94226     582.9366     414.5517
   1413.92700     580.1126     412.7532   1413.92700     580.1126     412.7532
   1413.91174     577.4120     411.0471   1413.91174     577.4120     411.0471
   1413.89648     574.8529     409.9516   1413.89648     574.8529     409.9516
   1413.88123     571.7653     408.8368   1413.88123     571.7653     408.8368
   1413.86597     569.4813     406.8077   1413.86597     569.4813     406.8077
   1413.85071     566.8780     404.9616   1413.85071     566.8780     404.9616
   1413.83545     564.0244     403.0905   1413.83545     564.0244     403.0905
   1413.82019     561.9034     401.5380   1413.82019     561.9034     401.5380
   1413.80493     558.6869     400.3485   1413.80493     558.6869     400.3485
   1413.78967     555.6637     399.4203   1413.78967     555.6637     399.4203
   1413.77441     552.6984     397.2491   1413.77441     552.6984     397.2491
   1413.75916     550.7259     395.8029   1413.75916     550.7259     395.8029
   1413.74390     547.6771     394.6673   1413.74390     547.6771     394.6673
   1413.72864     543.6598     392.5024   1413.72864     543.6598     392.5024
   1413.71338     541.7900     390.8971   1413.71338     541.7900     390.8971
   1413.69812     538.8560     389.1157   1413.69812     538.8560     389.1157
   1413.68286     535.4023     388.2922   1413.68286     535.4023     388.2922
   1413.66760     532.6420     386.1582   1413.66760     532.6420     386.1582
   1413.65234     530.5013     384.4071   1413.65234     530.5013     384.4071
   1413.63708     527.8570     383.0114   1413.63708     527.8570     383.0114
   1413.62183     524.9816     381.5058   1413.62183     524.9816     381.5058
   1413.60657     521.8926     379.7204   1413.60657     521.8926     379.7204
   1413.59131     519.2062     378.2776   1413.59131     519.2062     378.2776
   1413.57605     516.4189     376.8204   1413.57605     516.4189     376.8204
   1413.56079     513.7781     375.2272   1413.56079     513.7781     375.2272
   1413.54553     510.5797     373.7367   1413.54553     510.5797     373.7367
   1413.53027     508.0475     372.3103   1413.53027     508.0475     372.3103
   1413.51501     505.3953     369.8765   1413.51501     505.3953     369.8765
   1413.49976     501.8110     368.5595   1413.49976     501.8110     368.5595
   1413.48450     499.3087     367.6349   1413.48450     499.3087     367.6349
   1413.46924     496.8503     365.8929   1413.46924     496.8503     365.8929
   1413.45398     494.0127     364.2232   1413.45398     494.0127     364.2232
   1413.43872     491.6125     362.6543   1413.43872     491.6125     362.6543
   1413.42346     488.4330     360.8681   1413.42346     488.4330     360.8681
   1413.40820     486.2290     360.0852   1413.40820     486.2290     360.0852
   1413.39294     482.9951     358.1611   1413.39294     482.9951     358.1611
   1413.37769     479.4937     356.7745   1413.37769     479.4937     356.7745
   1413.36243     477.8541     355.3212   1413.36243     477.8541     355.3212
   1413.34717     474.9426     353.2492   1413.34717     474.9426     353.2492
   1413.33191     472.7538     352.2093   1413.33191     472.7538     352.2093
   1413.31665     470.8562     350.2739   1413.31665     470.8562     350.2739
   1413.30139     467.4855     349.2799   1413.30139     467.4855     349.2799
   1413.28613     464.7347     348.0388   1413.28613     464.7347     348.0388
   1413.27087     462.6278     346.9585   1413.27087     462.6278     346.9585
   1413.25562     460.1364     345.0773   1413.25562     460.1364     345.0773
   1413.24036     456.3920     343.8331   1413.24036     456.3920     343.8331
   1413.22510     454.8889     342.5019   1413.22510     454.8889     342.5019
   1413.20984     452.5414     341.0572   1413.20984     452.5414     341.0572
   1413.19458     448.9944     340.0936   1413.19458     448.9944     340.0936
   1413.17932     446.7964     338.3880   1413.17932     446.7964     338.3880
   1413.16406     444.2539     336.3849   1413.16406     444.2539     336.3849
   1413.14880     443.1909     336.2567   1413.14880     443.1909     336.2567
   1413.13354     440.3622     334.7697   1413.13354     440.3622     334.7697
   1413.11829     437.7105     333.8526   1413.11829     437.7105     333.8526
   1413.10303     435.1914     332.2594   1413.10303     435.1914     332.2594
   1413.08777     433.4266     330.8097   1413.08777     433.4266     330.8097
   1413.07251     431.3029     329.7670   1413.07251     431.3029     329.7670
   1413.05725     428.4872     328.9538   1413.05725     428.4872     328.9538
   1413.04199     426.5871     327.8853   1413.04199     426.5871     327.8853
   1413.02673     423.6619     326.8397   1413.02673     423.6619     326.8397
   1413.01147     421.5253     325.9301   1413.01147     421.5253     325.9301
   1412.99622     419.5326     325.0378   1412.99622     419.5326     325.0378
   1412.98096     417.9141     323.7989   1412.98096     417.9141     323.7989
   1412.96570     415.6522     322.5605   1412.96570     415.6522     322.5605
   1412.95044     413.7697     322.0799   1412.95044     413.7697     322.0799
   1412.93518     412.0367     321.3527   1412.93518     412.0367     321.3527
   1412.91992     410.1237     320.4615   1412.91992     410.1237     320.4615
   1412.90466     408.4709     319.5849   1412.90466     408.4709     319.5849
   1412.88940     406.2561     318.3881   1412.88940     406.2561     318.3881
   1412.87415     404.4427     318.2470   1412.87415     404.4427     318.2470
   1412.85889     402.5991     317.7633   1412.85889     402.5991     317.7633
   1412.84363     401.1316     316.9318   1412.84363     401.1316     316.9318
   1412.82837     399.5172     316.5597   1412.82837     399.5172     316.5597
   1412.81311     398.2131     315.5190   1412.81311     398.2131     315.5190
   1412.79785     396.1653     315.4702   1412.79785     396.1653     315.4702
   1412.78259     394.5629     314.8319   1412.78259     394.5629     314.8319
   1412.76733     393.1497     313.8758   1412.76733     393.1497     313.8758
   1412.75208     391.4209     313.6407   1412.75208     391.4209     313.6407
   1412.73682     390.9080     313.6478   1412.73682     390.9080     313.6478
   1412.72156     388.9748     313.5988   1412.72156     388.9748     313.5988
   1412.70630     387.8907     312.9030   1412.70630     387.8907     312.9030
   1412.69104     386.8792     313.0186   1412.69104     386.8792     313.0186
   1412.67578     385.5664     312.9284   1412.67578     385.5664     312.9284
   1412.66052     384.1920     311.7805   1412.66052     384.1920     311.7805
   1412.64526     383.5728     312.9284   1412.64526     383.5728     312.9284
   1412.63000     382.3291     312.0932   1412.63000     382.3291     312.0932
   1412.61475     380.8419     312.2425   1412.61475     380.8419     312.2425
   1412.59949     380.5915     312.0354   1412.59949     380.5915     312.0354
   1412.58423     379.2325     312.5432   1412.58423     379.2325     312.5432
   1412.56897     378.3771     312.5636   1412.56897     378.3771     312.5636
   1412.55371     377.4182     312.8599   1412.55371     377.4182     312.8599
   1412.53845     376.4981     312.7238   1412.53845     376.4981     312.7238
   1412.52319     375.9815     313.5840   1412.52319     375.9815     313.5840
   1412.50793     375.4607     313.3644   1412.50793     375.4607     313.3644
   1412.49268     374.9534     314.3118   1412.49268     374.9534     314.3118
   1412.47742     374.5053     315.1104   1412.47742     374.5053     315.1104
   1412.46216     374.0930     315.3884   1412.46216     374.0930     315.3884
   1412.44690     373.3019     316.5165   1412.44690     373.3019     316.5165
   1412.43164     373.0528     316.2985   1412.43164     373.0528     316.2985
   1412.41638     372.5242     317.1914   1412.41638     372.5242     317.1914
   1412.40112     372.4108     317.8449   1412.40112     372.4108     317.8449
   1412.38586     372.2885     318.5131   1412.38586     372.2885     318.5131
   1412.37061     372.3541     319.6102   1412.37061     372.3541     319.6102
   1412.35535     372.6965     320.5683   1412.35535     372.6965     320.5683
   1412.34009     371.9570     321.5952   1412.34009     371.9570     321.5952
   1412.32483     372.6484     322.3213   1412.32483     372.6484     322.3213
   1412.30957     372.5223     322.9675   1412.30957     372.5223     322.9675
   1412.29431     372.3768     324.6159   1412.29431     372.3768     324.6159
   1412.27905     372.6028     325.8871   1412.27905     372.6028     325.8871
   1412.26379     372.1417     327.2263   1412.26379     372.1417     327.2263
   1412.24854     373.3947     328.1643   1412.24854     373.3947     328.1643
   1412.23328     373.2989     329.7943   1412.23328     373.2989     329.7943
   1412.21802     373.8634     331.1145   1412.21802     373.8634     331.1145
   1412.20276     374.5081     332.0646   1412.20276     374.5081     332.0646