#     FILENAME=!Skynet_57528_lach-hhg-142_20467_20966.cyb.fits
#     BASENAME=Skynet_57528_lach-hhg-142_20467_20966
#     SRC_NAME=lach-hhg-142
#     OBSERVER=hhgmadison16_9500
#     DATE_OBS=2016-05-20T17:21:32.750
#        OBSID=20467
#      SCANNUM=20966
#          MJD=57528.7243
#          UTC=62581
#     SCANTYPE=track
#     DATAMODE=HIRES
#     TUNEFREQ=1420.0000
# Actual_FREQ1=1420.0000
# Actual_FREQ2=1420.0000
#    LO1Tuning=6870.000
#     RFFILTER=1355_1435
#        OBSBW=-15.6250
#        NCHAN=1024 
#        FOCUS=37.0709
#           RA=03:20:06.16
#          DEC=57:15:46.89
#      RA(hrs)=3.335000
#     DEC(deg)=57.263000
#    AZIM(deg)=345.037
#    ELEV(deg)=70.126
#     IFattens=11.00, 9.00
#      WARNING=None
#    TCAL_XL1=7.9635
#    TCAL_YR1=9.1340
#    TCAL_XL2=7.9635
#    TCAL_YR2=9.1340
#     TRX_XL1=11.7060
#     TRX_YR1=11.7060
#     TRX_XL2=11.7060
#     TRX_YR2=11.7060
#        TAVE=1.0000
#Freq1(MHz)          XL1          YR1  Freq2(MHz)          XL2          YR2 

   1427.81250     380.0036     255.5812   1427.81250     380.0036     255.5812
   1427.79724     380.2122     256.0429   1427.79724     380.2122     256.0429
   1427.78198     381.4749     257.7464   1427.78198     381.4749     257.7464
   1427.76672     381.5112     258.0910   1427.76672     381.5112     258.0910
   1427.75146     383.1773     259.4632   1427.75146     383.1773     259.4632
   1427.73621     383.5655     260.4026   1427.73621     383.5655     260.4026
   1427.72095     384.2448     261.1489   1427.72095     384.2448     261.1489
   1427.70569     385.5176     262.6035   1427.70569     385.5176     262.6035
   1427.69043     386.4277     263.7433   1427.69043     386.4277     263.7433
   1427.67517     387.3990     264.5333   1427.67517     387.3990     264.5333
   1427.65991     388.4152     266.2240   1427.65991     388.4152     266.2240
   1427.64465     389.3816     267.2876   1427.64465     389.3816     267.2876
   1427.62939     391.6807     268.7275   1427.62939     391.6807     268.7275
   1427.61414     392.6670     269.6775   1427.61414     392.6670     269.6775
   1427.59888     393.7558     271.5346   1427.59888     393.7558     271.5346
   1427.58362     395.2494     272.8842   1427.58362     395.2494     272.8842
   1427.56836     396.3326     273.8042   1427.56836     396.3326     273.8042
   1427.55310     398.9084     275.4732   1427.55310     398.9084     275.4732
   1427.53784     400.2578     276.8510   1427.53784     400.2578     276.8510
   1427.52258     401.3949     278.1299   1427.52258     401.3949     278.1299
   1427.50732     403.0499     279.0710   1427.50732     403.0499     279.0710
   1427.49207     405.3712     281.8125   1427.49207     405.3712     281.8125
   1427.47681     406.7124     282.7145   1427.47681     406.7124     282.7145
   1427.46155     408.4043     284.4154   1427.46155     408.4043     284.4154
   1427.44629     410.8553     286.4093   1427.44629     410.8553     286.4093
   1427.43103     411.5067     287.4567   1427.43103     411.5067     287.4567
   1427.41577     414.0327     289.6486   1427.41577     414.0327     289.6486
   1427.40051     416.2303     290.9731   1427.40051     416.2303     290.9731
   1427.38525     417.2478     292.4820   1427.38525     417.2478     292.4820
   1427.37000     419.6976     294.2427   1427.37000     419.6976     294.2427
   1427.35474     421.8556     296.4680   1427.35474     421.8556     296.4680
   1427.33948     424.3259     297.6138   1427.33948     424.3259     297.6138
   1427.32422     426.5254     299.6788   1427.32422     426.5254     299.6788
   1427.30896     429.1912     301.5741   1427.30896     429.1912     301.5741
   1427.29370     430.8375     303.0957   1427.29370     430.8375     303.0957
   1427.27844     433.4478     305.3155   1427.27844     433.4478     305.3155
   1427.26318     435.5806     306.6214   1427.26318     435.5806     306.6214
   1427.24792     437.8960     308.2272   1427.24792     437.8960     308.2272
   1427.23267     440.0469     310.4062   1427.23267     440.0469     310.4062
   1427.21741     443.0770     312.6231   1427.21741     443.0770     312.6231
   1427.20215     445.3885     313.9257   1427.20215     445.3885     313.9257
   1427.18689     448.1350     316.5661   1427.18689     448.1350     316.5661
   1427.17163     451.4179     318.1392   1427.17163     451.4179     318.1392
   1427.15637     453.9716     320.0735   1427.15637     453.9716     320.0735
   1427.14111     455.5078     321.8880   1427.14111     455.5078     321.8880
   1427.12585     459.1805     324.1429   1427.12585     459.1805     324.1429
   1427.11060     461.9756     326.1192   1427.11060     461.9756     326.1192
   1427.09534     463.9742     328.0089   1427.09534     463.9742     328.0089
   1427.08008     467.4687     330.5673   1427.08008     467.4687     330.5673
   1427.06482     469.9256     332.1592   1427.06482     469.9256     332.1592
   1427.04956     472.9852     333.7491   1427.04956     472.9852     333.7491
   1427.03430     475.9991     336.0799   1427.03430     475.9991     336.0799
   1427.01904     478.6064     337.6155   1427.01904     478.6064     337.6155
   1427.00378     481.4334     339.8273   1427.00378     481.4334     339.8273
   1426.98853     483.9992     341.6995   1426.98853     483.9992     341.6995
   1426.97327     488.2724     343.3208   1426.97327     488.2724     343.3208
   1426.95801     490.4537     346.0417   1426.95801     490.4537     346.0417
   1426.94275     493.5853     348.0698   1426.94275     493.5853     348.0698
   1426.92749     496.4395     350.0038   1426.92749     496.4395     350.0038
   1426.91223     500.3724     351.8390   1426.91223     500.3724     351.8390
   1426.89697     503.0960     353.8966   1426.89697     503.0960     353.8966
   1426.88171     505.6896     356.0993   1426.88171     505.6896     356.0993
   1426.86646     508.8430     357.6967   1426.86646     508.8430     357.6967
   1426.85120     511.4755     360.1688   1426.85120     511.4755     360.1688
   1426.83594     515.4520     362.1905   1426.83594     515.4520     362.1905
   1426.82068     517.5443     363.4545   1426.82068     517.5443     363.4545
   1426.80542     520.9571     366.2415   1426.80542     520.9571     366.2415
   1426.79016     524.7504     368.1305   1426.79016     524.7504     368.1305
   1426.77490     528.2726     370.9007   1426.77490     528.2726     370.9007
   1426.75964     531.2812     371.9923   1426.75964     531.2812     371.9923
   1426.74438     534.6630     374.6771   1426.74438     534.6630     374.6771
   1426.72913     538.3470     376.5257   1426.72913     538.3470     376.5257
   1426.71387     540.4492     378.3553   1426.71387     540.4492     378.3553
   1426.69861     543.7331     379.9671   1426.69861     543.7331     379.9671
   1426.68335     548.1774     382.4052   1426.68335     548.1774     382.4052
   1426.66809     550.2819     384.2475   1426.66809     550.2819     384.2475
   1426.65283     553.3698     386.4469   1426.65283     553.3698     386.4469
   1426.63757     557.6176     388.6270   1426.63757     557.6176     388.6270
   1426.62231     563.9299     398.8700   1426.62231     563.9299     398.8700
   1426.60706     563.5489     393.3244   1426.60706     563.5489     393.3244
   1426.59180     567.3503     394.0277   1426.59180     567.3503     394.0277
   1426.57654     569.4810     395.8607   1426.57654     569.4810     395.8607
   1426.56128     572.9257     397.7345   1426.56128     572.9257     397.7345
   1426.54602     576.0889     399.1402   1426.54602     576.0889     399.1402
   1426.53076     579.4943     401.0746   1426.53076     579.4943     401.0746
   1426.51550     583.2056     402.8895   1426.51550     583.2056     402.8895
   1426.50024     585.4574     404.0374   1426.50024     585.4574     404.0374
   1426.48499     588.9888     407.1850   1426.48499     588.9888     407.1850
   1426.46973     592.8773     408.9439   1426.46973     592.8773     408.9439
   1426.45447     594.9355     410.6486   1426.45447     594.9355     410.6486
   1426.43921     598.7343     412.6280   1426.43921     598.7343     412.6280
   1426.42395     602.0179     414.2624   1426.42395     602.0179     414.2624
   1426.40869     605.6441     415.2004   1426.40869     605.6441     415.2004
   1426.39343     608.4261     417.0115   1426.39343     608.4261     417.0115
   1426.37817     612.5676     419.7734   1426.37817     612.5676     419.7734
   1426.36292     614.2117     420.7922   1426.36292     614.2117     420.7922
   1426.34766     618.3130     422.1272   1426.34766     618.3130     422.1272
   1426.33240     620.7469     423.9991   1426.33240     620.7469     423.9991
   1426.31714     624.0559     425.3353   1426.31714     624.0559     425.3353
   1426.30188     626.9105     427.6986   1426.30188     626.9105     427.6986
   1426.28662     629.2499     428.3498   1426.28662     629.2499     428.3498
   1426.27136     632.4359     430.5454   1426.27136     632.4359     430.5454
   1426.25610     635.3799     432.5821   1426.25610     635.3799     432.5821
   1426.24084     638.7346     434.4243   1426.24084     638.7346     434.4243
   1426.22559     642.0662     434.5838   1426.22559     642.0662     434.5838
   1426.21033     645.1368     436.4563   1426.21033     645.1368     436.4563
   1426.19507     647.6867     438.3990   1426.19507     647.6867     438.3990
   1426.17981     651.0444     439.4541   1426.17981     651.0444     439.4541
   1426.16455     654.0972     441.1044   1426.16455     654.0972     441.1044
   1426.14929     656.5486     442.9166   1426.14929     656.5486     442.9166
   1426.13403     658.8588     444.3918   1426.13403     658.8588     444.3918
   1426.11877     661.9173     445.2133   1426.11877     661.9173     445.2133
   1426.10352     664.4540     446.0818   1426.10352     664.4540     446.0818
   1426.08826     667.3751     447.7610   1426.08826     667.3751     447.7610
   1426.07300     671.3513     449.1925   1426.07300     671.3513     449.1925
   1426.05774     674.7239     450.7357   1426.05774     674.7239     450.7357
   1426.04248     674.9435     451.6945   1426.04248     674.9435     451.6945
   1426.02722     679.1354     453.5849   1426.02722     679.1354     453.5849
   1426.01196     681.7772     455.1964   1426.01196     681.7772     455.1964
   1425.99670     683.8798     456.1494   1425.99670     683.8798     456.1494
   1425.98145     686.2193     456.8379   1425.98145     686.2193     456.8379
   1425.96619     688.9724     459.0235   1425.96619     688.9724     459.0235
   1425.95093     690.9096     459.1296   1425.95093     690.9096     459.1296
   1425.93567     694.5961     460.9830   1425.93567     694.5961     460.9830
   1425.92041     695.4777     461.9110   1425.92041     695.4777     461.9110
   1425.90515     699.7288     462.9934   1425.90515     699.7288     462.9934
   1425.88989     700.4047     463.5801   1425.88989     700.4047     463.5801
   1425.87463     702.1300     464.8483   1425.87463     702.1300     464.8483
   1425.85938     705.7950     466.6004   1425.85938     705.7950     466.6004
   1425.84412     710.0225     466.2820   1425.84412     710.0225     466.2820
   1425.82886     710.5673     468.3373   1425.82886     710.5673     468.3373
   1425.81360     712.6282     470.0630   1425.81360     712.6282     470.0630
   1425.79834     715.9745     470.3829   1425.79834     715.9745     470.3829
   1425.78308     717.3292     471.5606   1425.78308     717.3292     471.5606
   1425.76782     718.9064     471.8950   1425.76782     718.9064     471.8950
   1425.75256     721.2621     473.4682   1425.75256     721.2621     473.4682
   1425.73730     724.1172     474.2987   1425.73730     724.1172     474.2987
   1425.72205     724.7850     474.8809   1425.72205     724.7850     474.8809
   1425.70679     728.3689     475.6975   1425.70679     728.3689     475.6975
   1425.69153     729.1318     476.6857   1425.69153     729.1318     476.6857
   1425.67627     732.1918     477.6331   1425.67627     732.1918     477.6331
   1425.66101     733.7783     478.4395   1425.66101     733.7783     478.4395
   1425.64575     735.5964     480.5000   1425.64575     735.5964     480.5000
   1425.63049     738.0962     480.5220   1425.63049     738.0962     480.5220
   1425.61523     737.5541     481.2329   1425.61523     737.5541     481.2329
   1425.59998     741.1284     482.8619   1425.59998     741.1284     482.8619
   1425.58472     741.2409     482.5256   1425.58472     741.2409     482.5256
   1425.56946     744.1006     482.8869   1425.56946     744.1006     482.8869
   1425.55420     747.1170     484.4057   1425.55420     747.1170     484.4057
   1425.53894     747.5851     484.3171   1425.53894     747.5851     484.3171
   1425.52368     748.6874     485.6108   1425.52368     748.6874     485.6108
   1425.50842     751.5318     486.2472   1425.50842     751.5318     486.2472
   1425.49316     751.8707     486.3860   1425.49316     751.8707     486.3860
   1425.47791     752.6297     487.8890   1425.47791     752.6297     487.8890
   1425.46265     755.6453     488.3950   1425.46265     755.6453     488.3950
   1425.44739     756.6930     489.4258   1425.44739     756.6930     489.4258
   1425.43213     757.4929     488.9965   1425.43213     757.4929     488.9965
   1425.41687     760.0223     489.9954   1425.41687     760.0223     489.9954
   1425.40161     762.1359     490.1806   1425.40161     762.1359     490.1806
   1425.38635     762.0154     491.0736   1425.38635     762.0154     491.0736
   1425.37109     763.4971     491.1917   1425.37109     763.4971     491.1917
   1425.35583     765.0820     491.7336   1425.35583     765.0820     491.7336
   1425.34058     764.9822     492.4310   1425.34058     764.9822     492.4310
   1425.32532     766.7080     493.2085   1425.32532     766.7080     493.2085
   1425.31006     767.9533     493.7700   1425.31006     767.9533     493.7700
   1425.29480     769.3198     493.2934   1425.29480     769.3198     493.2934
   1425.27954     770.7385     493.7695   1425.27954     770.7385     493.7695
   1425.26428     772.6595     494.4443   1425.26428     772.6595     494.4443
   1425.24902     771.7164     495.4774   1425.24902     771.7164     495.4774
   1425.23376     772.9137     495.8549   1425.23376     772.9137     495.8549
   1425.21851     772.9647     495.8103   1425.21851     772.9647     495.8103
   1425.20325     775.2543     496.1812   1425.20325     775.2543     496.1812
   1425.18799     776.1993     496.9367   1425.18799     776.1993     496.9367
   1425.17273     777.4338     497.0528   1425.17273     777.4338     497.0528
   1425.15747     777.8907     497.8887   1425.15747     777.8907     497.8887
   1425.14221     778.3253     498.1377   1425.14221     778.3253     498.1377
   1425.12695     779.2403     499.2091   1425.12695     779.2403     499.2091
   1425.11169     780.0043     498.9718   1425.11169     780.0043     498.9718
   1425.09644     780.8715     499.3572   1425.09644     780.8715     499.3572
   1425.08118     781.9125     499.6184   1425.08118     781.9125     499.6184
   1425.06592     782.7157     499.6299   1425.06592     782.7157     499.6299
   1425.05066     782.8781     499.9872   1425.05066     782.8781     499.9872
   1425.03540     785.2006     500.6490   1425.03540     785.2006     500.6490
   1425.02014     783.7157     500.7613   1425.02014     783.7157     500.7613
   1425.00488     786.0280     501.6781   1425.00488     786.0280     501.6781
   1424.98962     785.2097     501.8167   1424.98962     785.2097     501.8167
   1424.97437     785.3522     501.7334   1424.97437     785.3522     501.7334
   1424.95911     786.1674     501.3553   1424.95911     786.1674     501.3553
   1424.94385     785.8756     502.1274   1424.94385     785.8756     502.1274
   1424.92859     785.8256     501.5027   1424.92859     785.8256     501.5027
   1424.91333     787.2578     502.2396   1424.91333     787.2578     502.2396
   1424.89807     786.7397     502.1299   1424.89807     786.7397     502.1299
   1424.88281     788.0603     501.7656   1424.88281     788.0603     501.7656
   1424.86755     787.2979     502.8057   1424.86755     787.2979     502.8057
   1424.85229     787.5366     503.1586   1424.85229     787.5366     503.1586
   1424.83704     788.6036     502.7733   1424.83704     788.6036     502.7733
   1424.82178     788.3544     503.1024   1424.82178     788.3544     503.1024
   1424.80652     788.9057     503.7530   1424.80652     788.9057     503.7530
   1424.79126     788.8995     502.7395   1424.79126     788.8995     502.7395
   1424.77600     789.3984     503.1262   1424.77600     789.3984     503.1262
   1424.76074     789.4603     504.6685   1424.76074     789.4603     504.6685
   1424.74548     788.1928     503.6053   1424.74548     788.1928     503.6053
   1424.73022     789.5015     503.6591   1424.73022     789.5015     503.6591
   1424.71497     790.1201     504.3395   1424.71497     790.1201     504.3395
   1424.69971     789.7584     503.6189   1424.69971     789.7584     503.6189
   1424.68445     789.7159     504.1588   1424.68445     789.7159     504.1588
   1424.66919     789.9373     504.5926   1424.66919     789.9373     504.5926
   1424.65393     790.2015     503.9052   1424.65393     790.2015     503.9052
   1424.63867     788.4751     504.0987   1424.63867     788.4751     504.0987
   1424.62341     790.0851     504.8271   1424.62341     790.0851     504.8271
   1424.60815     789.5421     504.2234   1424.60815     789.5421     504.2234
   1424.59290     790.5592     505.6121   1424.59290     790.5592     505.6121
   1424.57764     788.4432     504.4136   1424.57764     788.4432     504.4136
   1424.56238     788.7704     505.0586   1424.56238     788.7704     505.0586
   1424.54712     788.8392     504.7568   1424.54712     788.8392     504.7568
   1424.53186     789.2540     504.7782   1424.53186     789.2540     504.7782
   1424.51660     787.6068     505.0028   1424.51660     787.6068     505.0028
   1424.50134     788.5847     504.3385   1424.50134     788.5847     504.3385
   1424.48608     787.9086     504.3692   1424.48608     787.9086     504.3692
   1424.47083     787.6686     504.6047   1424.47083     787.6686     504.6047
   1424.45557     787.9370     504.0465   1424.45557     787.9370     504.0465
   1424.44031     787.5841     503.7843   1424.44031     787.5841     503.7843
   1424.42505     786.6819     503.7138   1424.42505     786.6819     503.7138
   1424.40979     786.4227     504.2249   1424.40979     786.4227     504.2249
   1424.39453     786.5084     505.1740   1424.39453     786.5084     505.1740
   1424.37927     785.7044     503.8571   1424.37927     785.7044     503.8571
   1424.36401     786.2085     504.2598   1424.36401     786.2085     504.2598
   1424.34875     785.3674     504.0511   1424.34875     785.3674     504.0511
   1424.33350     785.0866     503.9098   1424.33350     785.0866     503.9098
   1424.31824     784.4102     503.7665   1424.31824     784.4102     503.7665
   1424.30298     785.2183     504.3116   1424.30298     785.2183     504.3116
   1424.28772     784.0720     503.0862   1424.28772     784.0720     503.0862
   1424.27246     783.1077     503.8524   1424.27246     783.1077     503.8524
   1424.25720     785.4261     504.2752   1424.25720     785.4261     504.2752
   1424.24194     782.7563     503.0218   1424.24194     782.7563     503.0218
   1424.22668     783.8133     503.1000   1424.22668     783.8133     503.1000
   1424.21143     782.9470     503.2237   1424.21143     782.9470     503.2237
   1424.19617     781.7073     501.8660   1424.19617     781.7073     501.8660
   1424.18091     781.2104     502.2588   1424.18091     781.2104     502.2588
   1424.16565     780.8688     502.3022   1424.16565     780.8688     502.3022
   1424.15039     780.0898     502.3860   1424.15039     780.0898     502.3860
   1424.13513     779.1180     502.1568   1424.13513     779.1180     502.1568
   1424.11987     779.7587     502.3097   1424.11987     779.7587     502.3097
   1424.10461     778.9186     501.9167   1424.10461     778.9186     501.9167
   1424.08936     777.4839     501.4508   1424.08936     777.4839     501.4508
   1424.07410     778.0830     501.4292   1424.07410     778.0830     501.4292
   1424.05884     778.7903     500.9966   1424.05884     778.7903     500.9966
   1424.04358     777.0779     500.9479   1424.04358     777.0779     500.9479
   1424.02832     775.9143     500.6063   1424.02832     775.9143     500.6063
   1424.01306     776.1371     499.8771   1424.01306     776.1371     499.8771
   1423.99780     774.6490     499.9748   1423.99780     774.6490     499.9748
   1423.98254     773.9310     500.4494   1423.98254     773.9310     500.4494
   1423.96729     774.8008     500.3742   1423.96729     774.8008     500.3742
   1423.95203     774.6766     500.5033   1423.95203     774.6766     500.5033
   1423.93677     774.4399     498.3639   1423.93677     774.4399     498.3639
   1423.92151     773.2009     499.5991   1423.92151     773.2009     499.5991
   1423.90625     771.7184     498.8308   1423.90625     771.7184     498.8308
   1423.89099     772.7191     498.7129   1423.89099     772.7191     498.7129
   1423.87573     770.6141     498.8427   1423.87573     770.6141     498.8427
   1423.86047     771.3550     498.4114   1423.86047     771.3550     498.4114
   1423.84521     770.2870     498.4222   1423.84521     770.2870     498.4222
   1423.82996     768.8489     497.5677   1423.82996     768.8489     497.5677
   1423.81470     767.3696     496.9129   1423.81470     767.3696     496.9129
   1423.79944     767.6108     496.7747   1423.79944     767.6108     496.7747
   1423.78418     767.1416     496.5444   1423.78418     767.1416     496.5444
   1423.76892     767.3373     496.4886   1423.76892     767.3373     496.4886
   1423.75366     765.4046     496.1477   1423.75366     765.4046     496.1477
   1423.73840     764.3166     496.4843   1423.73840     764.3166     496.4843
   1423.72314     764.7517     494.7426   1423.72314     764.7517     494.7426
   1423.70789     764.8010     494.4796   1423.70789     764.8010     494.4796
   1423.69263     763.3862     494.7128   1423.69263     763.3862     494.7128
   1423.67737     763.5892     494.5315   1423.67737     763.5892     494.5315
   1423.66211     763.8102     493.6919   1423.66211     763.8102     493.6919
   1423.64685     761.6256     493.3221   1423.64685     761.6256     493.3221
   1423.63159     761.0291     492.9126   1423.63159     761.0291     492.9126
   1423.61633     760.7292     492.1713   1423.61633     760.7292     492.1713
   1423.60107     760.8947     493.1259   1423.60107     760.8947     493.1259
   1423.58582     759.4326     492.1200   1423.58582     759.4326     492.1200
   1423.57056     760.0507     491.7738   1423.57056     760.0507     491.7738
   1423.55530     758.2162     491.3572   1423.55530     758.2162     491.3572
   1423.54004     758.2786     491.3425   1423.54004     758.2786     491.3425
   1423.52478     756.7342     491.4402   1423.52478     756.7342     491.4402
   1423.50952     756.9705     489.7046   1423.50952     756.9705     489.7046
   1423.49426     756.3113     489.7469   1423.49426     756.3113     489.7469
   1423.47900     756.1885     489.4663   1423.47900     756.1885     489.4663
   1423.46375     756.5249     489.1930   1423.46375     756.5249     489.1930
   1423.44849     755.2794     488.6105   1423.44849     755.2794     488.6105
   1423.43323     752.7897     488.5460   1423.43323     752.7897     488.5460
   1423.41797     752.7733     487.5985   1423.41797     752.7733     487.5985
   1423.40271     754.2656     487.3113   1423.40271     754.2656     487.3113
   1423.38745     752.2477     486.8864   1423.38745     752.2477     486.8864
   1423.37219     753.0458     486.5630   1423.37219     753.0458     486.5630
   1423.35693     752.0586     486.4011   1423.35693     752.0586     486.4011
   1423.34167     750.8766     485.6932   1423.34167     750.8766     485.6932
   1423.32642     751.2391     485.1994   1423.32642     751.2391     485.1994
   1423.31116     751.3329     484.4024   1423.31116     751.3329     484.4024
   1423.29590     749.2954     483.8284   1423.29590     749.2954     483.8284
   1423.28064     748.4642     482.8185   1423.28064     748.4642     482.8185
   1423.26538     749.4470     482.3951   1423.26538     749.4470     482.3951
   1423.25012     748.2124     482.6842   1423.25012     748.2124     482.6842
   1423.23486     747.4905     481.9930   1423.23486     747.4905     481.9930
   1423.21960     747.0360     481.2272   1423.21960     747.0360     481.2272
   1423.20435     746.7633     481.0334   1423.20435     746.7633     481.0334
   1423.18909     747.5272     480.4047   1423.18909     747.5272     480.4047
   1423.17383     745.5510     480.4465   1423.17383     745.5510     480.4465
   1423.15857     745.2286     479.8077   1423.15857     745.2286     479.8077
   1423.14331     744.4799     479.2713   1423.14331     744.4799     479.2713
   1423.12805     744.0455     478.7467   1423.12805     744.0455     478.7467
   1423.11279     744.3588     478.0586   1423.11279     744.3588     478.0586
   1423.09753     742.3354     476.9492   1423.09753     742.3354     476.9492
   1423.08228     742.4616     476.9066   1423.08228     742.4616     476.9066
   1423.06702     742.8745     476.2434   1423.06702     742.8745     476.2434
   1423.05176     741.7737     475.9031   1423.05176     741.7737     475.9031
   1423.03650     741.5902     475.0465   1423.03650     741.5902     475.0465
   1423.02124     741.2036     474.7222   1423.02124     741.2036     474.7222
   1423.00598     740.3822     474.2254   1423.00598     740.3822     474.2254
   1422.99072     741.3314     473.3718   1422.99072     741.3314     473.3718
   1422.97546     740.7350     473.2224   1422.97546     740.7350     473.2224
   1422.96021     739.3687     471.8448   1422.96021     739.3687     471.8448
   1422.94495     738.2109     471.2534   1422.94495     738.2109     471.2534
   1422.92969     738.2960     471.2709   1422.92969     738.2960     471.2709
   1422.91443     739.2422     470.2039   1422.91443     739.2422     470.2039
   1422.89917     737.3466     468.8608   1422.89917     737.3466     468.8608
   1422.88391     737.0020     468.4076   1422.88391     737.0020     468.4076
   1422.86865     736.6063     468.1614   1422.86865     736.6063     468.1614
   1422.85339     737.3259     467.6918   1422.85339     737.3259     467.6918
   1422.83813     736.9418     467.0195   1422.83813     736.9418     467.0195
   1422.82288     736.3824     466.5940   1422.82288     736.3824     466.5940
   1422.80762     735.5666     465.4062   1422.80762     735.5666     465.4062
   1422.79236     733.9981     464.4608   1422.79236     733.9981     464.4608
   1422.77710     734.3618     464.2568   1422.77710     734.3618     464.2568
   1422.76184     733.6265     463.4059   1422.76184     733.6265     463.4059
   1422.74658     733.6396     463.3977   1422.74658     733.6396     463.3977
   1422.73132     732.4609     462.1126   1422.73132     732.4609     462.1126
   1422.71606     732.5923     461.9808   1422.71606     732.5923     461.9808
   1422.70081     734.0946     461.0103   1422.70081     734.0946     461.0103
   1422.68555     734.2029     460.1754   1422.68555     734.2029     460.1754
   1422.67029     731.2862     459.8442   1422.67029     731.2862     459.8442
   1422.65503     732.6859     458.7902   1422.65503     732.6859     458.7902
   1422.63977     731.4703     458.4846   1422.63977     731.4703     458.4846
   1422.62451     731.7481     457.6536   1422.62451     731.7481     457.6536
   1422.60925     731.3193     457.1823   1422.60925     731.3193     457.1823
   1422.59399     730.5948     456.2148   1422.59399     730.5948     456.2148
   1422.57874     731.6285     455.6082   1422.57874     731.6285     455.6082
   1422.56348     730.8380     454.8376   1422.56348     730.8380     454.8376
   1422.54822     730.5453     453.8625   1422.54822     730.5453     453.8625
   1422.53296     729.0377     453.4348   1422.53296     729.0377     453.4348
   1422.51770     728.9846     453.0581   1422.51770     728.9846     453.0581
   1422.50244     729.5627     452.0079   1422.50244     729.5627     452.0079
   1422.48718     728.6330     450.9489   1422.48718     728.6330     450.9489
   1422.47192     728.1422     451.0070   1422.47192     728.1422     451.0070
   1422.45667     728.8333     449.9684   1422.45667     728.8333     449.9684
   1422.44141     728.4480     448.4895   1422.44141     728.4480     448.4895
   1422.42615     727.8571     448.5928   1422.42615     727.8571     448.5928
   1422.41089     727.6555     447.2728   1422.41089     727.6555     447.2728
   1422.39563     727.1219     447.1258   1422.39563     727.1219     447.1258
   1422.38037     726.7259     445.6134   1422.38037     726.7259     445.6134
   1422.36511     728.4639     445.0478   1422.36511     728.4639     445.0478
   1422.34985     726.7910     444.1414   1422.34985     726.7910     444.1414
   1422.33459     725.9352     444.7150   1422.33459     725.9352     444.7150
   1422.31934     727.4092     442.4586   1422.31934     727.4092     442.4586
   1422.30408     726.2770     440.9118   1422.30408     726.2770     440.9118
   1422.28882     725.8743     441.6081   1422.28882     725.8743     441.6081
   1422.27356     726.2089     441.2156   1422.27356     726.2089     441.2156
   1422.25830     724.5709     439.2122   1422.25830     724.5709     439.2122
   1422.24304     728.1042     440.3811   1422.24304     728.1042     440.3811
   1422.22778     727.1509     438.9579   1422.22778     727.1509     438.9579
   1422.21252     725.2161     437.0982   1422.21252     725.2161     437.0982
   1422.19727     724.6976     436.2354   1422.19727     724.6976     436.2354
   1422.18201     724.5270     435.5127   1422.18201     724.5270     435.5127
   1422.16675     724.9382     435.3626   1422.16675     724.9382     435.3626
   1422.15149     723.8134     434.1401   1422.15149     723.8134     434.1401
   1422.13623     724.3822     433.9427   1422.13623     724.3822     433.9427
   1422.12097     724.4816     433.1124   1422.12097     724.4816     433.1124
   1422.10571     723.1814     431.0884   1422.10571     723.1814     431.0884
   1422.09045     722.6109     431.0861   1422.09045     722.6109     431.0861
   1422.07520     723.8560     430.4288   1422.07520     723.8560     430.4288
   1422.05994     722.6324     429.1928   1422.05994     722.6324     429.1928
   1422.04468     722.5817     428.7596   1422.04468     722.5817     428.7596
   1422.02942     723.1234     428.1145   1422.02942     723.1234     428.1145
   1422.01416     723.0904     426.9593   1422.01416     723.0904     426.9593
   1421.99890     721.5128     425.6557   1421.99890     721.5128     425.6557
   1421.98364     722.3686     425.1752   1421.98364     722.3686     425.1752
   1421.96838     722.1628     424.3837   1421.96838     722.1628     424.3837
   1421.95312     721.0976     424.5100   1421.95312     721.0976     424.5100
   1421.93787     721.8080     423.2444   1421.93787     721.8080     423.2444
   1421.92261     722.1201     422.5769   1421.92261     722.1201     422.5769
   1421.90735     720.6485     421.4674   1421.90735     720.6485     421.4674
   1421.89209     720.9973     420.6632   1421.89209     720.9973     420.6632
   1421.87683     721.2218     420.3747   1421.87683     721.2218     420.3747
   1421.86157     720.5168     418.9278   1421.86157     720.5168     418.9278
   1421.84631     719.5489     418.5428   1421.84631     719.5489     418.5428
   1421.83105     722.1049     417.1673   1421.83105     722.1049     417.1673
   1421.81580     720.7904     416.0572   1421.81580     720.7904     416.0572
   1421.80054     719.8782     415.9125   1421.80054     719.8782     415.9125
   1421.78528     720.4481     414.8702   1421.78528     720.4481     414.8702
   1421.77002     721.5008     413.8452   1421.77002     721.5008     413.8452
   1421.75476     719.4800     413.6247   1421.75476     719.4800     413.6247
   1421.73950     720.9448     412.1454   1421.73950     720.9448     412.1454
   1421.72424     719.5241     411.7130   1421.72424     719.5241     411.7130
   1421.70898     719.8052     410.9043   1421.70898     719.8052     410.9043
   1421.69373     720.0707     409.5879   1421.69373     720.0707     409.5879
   1421.67847     720.3013     409.4316   1421.67847     720.3013     409.4316
   1421.66321     719.7354     408.1058   1421.66321     719.7354     408.1058
   1421.64795     720.0558     407.4269   1421.64795     720.0558     407.4269
   1421.63269     718.7473     406.2317   1421.63269     718.7473     406.2317
   1421.61743     717.8055     406.0808   1421.61743     717.8055     406.0808
   1421.60217     717.8323     405.0962   1421.60217     717.8323     405.0962
   1421.58691     718.8677     403.7213   1421.58691     718.8677     403.7213
   1421.57166     718.2851     402.9072   1421.57166     718.2851     402.9072
   1421.55640     717.6035     401.7444   1421.55640     717.6035     401.7444
   1421.54114     718.3952     401.2760   1421.54114     718.3952     401.2760
   1421.52588     718.5820     400.7614   1421.52588     718.5820     400.7614
   1421.51062     716.4764     399.4388   1421.51062     716.4764     399.4388
   1421.49536     718.3976     398.9650   1421.49536     718.3976     398.9650
   1421.48010     717.1617     397.7598   1421.48010     717.1617     397.7598
   1421.46484     715.7682     397.1569   1421.46484     715.7682     397.1569
   1421.44958     717.8720     396.0844   1421.44958     717.8720     396.0844
   1421.43433     716.8073     395.2524   1421.43433     716.8073     395.2524
   1421.41907     717.1158     394.2060   1421.41907     717.1158     394.2060
   1421.40381     717.4596     393.7368   1421.40381     717.4596     393.7368
   1421.38855     717.3087     392.8466   1421.38855     717.3087     392.8466
   1421.37329     716.2481     391.9674   1421.37329     716.2481     391.9674
   1421.35803     716.9144     391.5666   1421.35803     716.9144     391.5666
   1421.34277     716.6985     390.7389   1421.34277     716.6985     390.7389
   1421.32751     717.5321     389.2112   1421.32751     717.5321     389.2112
   1421.31226     716.8366     387.9629   1421.31226     716.8366     387.9629
   1421.29700     717.1724     388.1727   1421.29700     717.1724     388.1727
   1421.28174     715.7402     387.0570   1421.28174     715.7402     387.0570
   1421.26648     715.5159     385.9781   1421.26648     715.5159     385.9781
   1421.25122     715.6656     385.5170   1421.25122     715.6656     385.5170
   1421.23596     714.6442     384.5773   1421.23596     714.6442     384.5773
   1421.22070     713.7650     384.0595   1421.22070     713.7650     384.0595
   1421.20544     714.4161     382.9381   1421.20544     714.4161     382.9381
   1421.19019     713.6010     382.3709   1421.19019     713.6010     382.3709
   1421.17493     714.1226     381.4907   1421.17493     714.1226     381.4907
   1421.15967     714.4947     380.7720   1421.15967     714.4947     380.7720
   1421.14441     714.3037     379.9279   1421.14441     714.3037     379.9279
   1421.12915     715.4288     378.8052   1421.12915     715.4288     378.8052
   1421.11389     715.2514     378.6932   1421.11389     715.2514     378.6932
   1421.09863     715.1221     378.2886   1421.09863     715.1221     378.2886
   1421.08337     715.5115     377.1748   1421.08337     715.5115     377.1748
   1421.06812     715.5441     377.3968   1421.06812     715.5441     377.3968
   1421.05286     717.4089     377.0841   1421.05286     717.4089     377.0841
   1421.03760     717.7561     377.0904   1421.03760     717.7561     377.0904
   1421.02234     719.6015     376.6463   1421.02234     719.6015     376.6463
   1421.00708     718.0055     375.8845   1421.00708     718.0055     375.8845
   1420.99182     718.5778     375.5743   1420.99182     718.5778     375.5743
   1420.97656     719.5704     374.6477   1420.97656     719.5704     374.6477
   1420.96130     720.1407     373.6513   1420.96130     720.1407     373.6513
   1420.94604     719.5334     373.6402   1420.94604     719.5334     373.6402
   1420.93079     722.0631     373.4102   1420.93079     722.0631     373.4102
   1420.91553     723.2689     373.8830   1420.91553     723.2689     373.8830
   1420.90027     727.6035     374.4813   1420.90027     727.6035     374.4813
   1420.88501     738.3696     379.6707   1420.88501     738.3696     379.6707
   1420.86975     752.7742     386.8850   1420.86975     752.7742     386.8850
   1420.85449     767.1481     392.6909   1420.85449     767.1481     392.6909
   1420.83923     792.9254     405.5427   1420.83923     792.9254     405.5427
   1420.82397     867.7944     443.0725   1420.82397     867.7944     443.0725
   1420.80872     968.2083     489.8750   1420.80872     968.2083     489.8750
   1420.79346    1025.9353     518.5165   1420.79346    1025.9353     518.5165
   1420.77820    1023.2045     516.3474   1420.77820    1023.2045     516.3474
   1420.76294    1020.0414     514.4721   1420.76294    1020.0414     514.4721
   1420.74768    1020.9951     513.5410   1420.74768    1020.9951     513.5410
   1420.73242     962.7952     483.6552   1420.73242     962.7952     483.6552
   1420.71716     897.9879     451.9093   1420.71716     897.9879     451.9093
   1420.70190     923.0177     463.0948   1420.70190     923.0177     463.0948
   1420.68665    1040.9219     518.6281   1420.68665    1040.9219     518.6281
   1420.67139    1177.4106     583.1692   1420.67139    1177.4106     583.1692
   1420.65613    1352.7650     667.2020   1420.65613    1352.7650     667.2020
   1420.64087    1685.6868     827.9453   1420.64087    1685.6868     827.9453
   1420.62561    2140.9861    1047.5302   1420.62561    2140.9861    1047.5302
   1420.61035    2429.3020    1185.6414   1420.61035    2429.3020    1185.6414
   1420.59509    2555.6760    1245.8743   1420.59509    2555.6760    1245.8743
   1420.57983    2541.3945    1235.1021   1420.57983    2541.3945    1235.1021
   1420.56458    2314.4211    1126.6790   1420.56458    2314.4211    1126.6790
   1420.54932    1965.4979     957.2457   1420.54932    1965.4979     957.2457
   1420.53406    1613.9396     784.8564   1420.53406    1613.9396     784.8564
   1420.51880    1548.2875     752.8207   1420.51880    1548.2875     752.8207
   1420.50354    1855.9946     896.2810   1420.50354    1855.9946     896.2810
   1420.48828    2003.9220     967.6999   1420.48828    2003.9220     967.6999
   1420.47302    1984.3782     956.6342   1420.47302    1984.3782     956.6342
   1420.45776    1726.5229     836.1703   1420.45776    1726.5229     836.1703
   1420.44250    1523.0266     737.1149   1420.44250    1523.0266     737.1149
   1420.42725    1737.8646     835.6443   1420.42725    1737.8646     835.6443
   1420.41199    1768.2101     850.5421   1420.41199    1768.2101     850.5421
   1420.39673    1618.8380     777.5350   1420.39673    1618.8380     777.5350
   1420.38147    1381.3467     663.4583   1420.38147    1381.3467     663.4583
   1420.36621    1040.0148     501.3159   1420.36621    1040.0148     501.3159
   1420.35095     802.0463     388.8867   1420.35095     802.0463     388.8867
   1420.33569     754.1275     365.2524   1420.33569     754.1275     365.2524
   1420.32043     733.0706     355.4660   1420.32043     733.0706     355.4660
   1420.30518     724.6318     350.6931   1420.30518     724.6318     350.6931
   1420.28992     718.6321     348.0887   1420.28992     718.6321     348.0887
   1420.27466     716.1216     346.3306   1420.27466     716.1216     346.3306
   1420.25940     713.8853     344.2603   1420.25940     713.8853     344.2603
   1420.24414     712.1355     343.6755   1420.24414     712.1355     343.6755
   1420.22888     711.2770     342.1820   1420.22888     711.2770     342.1820
   1420.21362     710.7864     341.2096   1420.21362     710.7864     341.2096
   1420.19836     709.0172     339.7648   1420.19836     709.0172     339.7648
   1420.18311     707.0936     338.9513   1420.18311     707.0936     338.9513
   1420.16785     705.5749     337.7044   1420.16785     705.5749     337.7044
   1420.15259     704.7358     337.0959   1420.15259     704.7358     337.0959
   1420.13733     704.7823     337.3599   1420.13733     704.7823     337.3599
   1420.12207     703.6319     336.1299   1420.12207     703.6319     336.1299
   1420.10681     704.2196     334.9547   1420.10681     704.2196     334.9547
   1420.09155     702.3308     334.7437   1420.09155     702.3308     334.7437
   1420.07629     702.7705     334.1325   1420.07629     702.7705     334.1325
   1420.06104     701.2737     333.3110   1420.06104     701.2737     333.3110
   1420.04578     701.3300     332.7928   1420.04578     701.3300     332.7928
   1420.03052     701.9100     332.7879   1420.03052     701.9100     332.7879
   1420.01526     702.6128     334.0047   1420.01526     702.6128     334.0047
   1420.00000     703.5749     334.6042   1420.00000     703.5749     334.6042
   1419.98474     704.5367     335.2039   1419.98474     704.5367     335.2039
   1419.96948     704.2814     332.0421   1419.96948     704.2814     332.0421
   1419.95422     701.0530     330.5175   1419.95422     701.0530     330.5175
   1419.93896     701.0800     330.3387   1419.93896     701.0800     330.3387
   1419.92371     700.6847     329.4297   1419.92371     700.6847     329.4297
   1419.90845     701.3258     329.2126   1419.90845     701.3258     329.2126
   1419.89319     700.8527     328.7245   1419.89319     700.8527     328.7245
   1419.87793     701.7042     328.6016   1419.87793     701.7042     328.6016
   1419.86267     701.7927     328.4397   1419.86267     701.7927     328.4397
   1419.84741     702.2596     327.9945   1419.84741     702.2596     327.9945
   1419.83215     701.0478     327.4115   1419.83215     701.0478     327.4115
   1419.81689     701.7839     327.6653   1419.81689     701.7839     327.6653
   1419.80164     701.5195     327.5994   1419.80164     701.5195     327.5994
   1419.78638     702.9252     327.3340   1419.78638     702.9252     327.3340
   1419.77112     701.6877     326.6278   1419.77112     701.6877     326.6278
   1419.75586     701.7664     326.5716   1419.75586     701.7664     326.5716
   1419.74060     703.0809     326.5051   1419.74060     703.0809     326.5051
   1419.72534     702.0294     326.5472   1419.72534     702.0294     326.5472
   1419.71008     702.5346     325.7338   1419.71008     702.5346     325.7338
   1419.69482     701.5847     325.6194   1419.69482     701.5847     325.6194
   1419.67957     704.3237     325.6512   1419.67957     704.3237     325.6512
   1419.66431     703.1075     325.1501   1419.66431     703.1075     325.1501
   1419.64905     704.0306     325.5008   1419.64905     704.0306     325.5008
   1419.63379     703.0025     325.1961   1419.63379     703.0025     325.1961
   1419.61853     704.1264     325.0694   1419.61853     704.1264     325.0694
   1419.60327     704.3372     325.2744   1419.60327     704.3372     325.2744
   1419.58801     704.1693     325.2733   1419.58801     704.1693     325.2733
   1419.57275     703.4319     324.7103   1419.57275     703.4319     324.7103
   1419.55750     703.9598     324.5603   1419.55750     703.9598     324.5603
   1419.54224     703.6439     324.9274   1419.54224     703.6439     324.9274
   1419.52698     704.7932     324.2309   1419.52698     704.7932     324.2309
   1419.51172     705.8134     324.4661   1419.51172     705.8134     324.4661
   1419.49646     706.7545     324.0331   1419.49646     706.7545     324.0331
   1419.48120     704.9362     324.7657   1419.48120     704.9362     324.7657
   1419.46594     707.2789     324.6316   1419.46594     707.2789     324.6316
   1419.45068     705.9336     324.3288   1419.45068     705.9336     324.3288
   1419.43542     706.8257     324.5486   1419.43542     706.8257     324.5486
   1419.42017     706.4537     324.3496   1419.42017     706.4537     324.3496
   1419.40491     708.1090     324.5015   1419.40491     708.1090     324.5015
   1419.38965     708.2839     324.4885   1419.38965     708.2839     324.4885
   1419.37439     709.1219     324.6827   1419.37439     709.1219     324.6827
   1419.35913     708.4421     324.1106   1419.35913     708.4421     324.1106
   1419.34387     708.0255     324.4182   1419.34387     708.0255     324.4182
   1419.32861     709.4114     324.4743   1419.32861     709.4114     324.4743
   1419.31335     708.5250     324.8930   1419.31335     708.5250     324.8930
   1419.29810     709.9792     324.5921   1419.29810     709.9792     324.5921
   1419.28284     710.0131     324.5403   1419.28284     710.0131     324.5403
   1419.26758     710.9511     325.0545   1419.26758     710.9511     325.0545
   1419.25232     711.7934     325.0180   1419.25232     711.7934     325.0180
   1419.23706     712.1940     325.2243   1419.23706     712.1940     325.2243
   1419.22180     712.3796     324.7731   1419.22180     712.3796     324.7731
   1419.20654     711.3599     325.4142   1419.20654     711.3599     325.4142
   1419.19128     712.6512     325.3250   1419.19128     712.6512     325.3250
   1419.17603     714.2815     325.1872   1419.17603     714.2815     325.1872
   1419.16077     712.6035     325.9787   1419.16077     712.6035     325.9787
   1419.14551     713.6560     325.8438   1419.14551     713.6560     325.8438
   1419.13025     714.8077     325.9988   1419.13025     714.8077     325.9988
   1419.11499     714.0868     326.2629   1419.11499     714.0868     326.2629
   1419.09973     715.7420     326.3646   1419.09973     715.7420     326.3646
   1419.08447     715.2114     326.5019   1419.08447     715.2114     326.5019
   1419.06921     716.0303     326.3753   1419.06921     716.0303     326.3753
   1419.05396     715.8842     327.0302   1419.05396     715.8842     327.0302
   1419.03870     716.9420     327.0336   1419.03870     716.9420     327.0336
   1419.02344     717.4146     327.5052   1419.02344     717.4146     327.5052
   1419.00818     717.9978     327.8100   1419.00818     717.9978     327.8100
   1418.99292     718.7333     327.5281   1418.99292     718.7333     327.5281
   1418.97766     719.5277     327.8254   1418.97766     719.5277     327.8254
   1418.96240     719.9458     328.7137   1418.96240     719.9458     328.7137
   1418.94714     720.4175     328.9875   1418.94714     720.4175     328.9875
   1418.93188     721.5856     329.1358   1418.93188     721.5856     329.1358
   1418.91663     722.0856     329.0492   1418.91663     722.0856     329.0492
   1418.90137     722.0612     329.4098   1418.90137     722.0612     329.4098
   1418.88611     723.2979     329.5162   1418.88611     723.2979     329.5162
   1418.87085     723.7446     330.0978   1418.87085     723.7446     330.0978
   1418.85559     724.0465     330.8623   1418.85559     724.0465     330.8623
   1418.84033     724.0030     330.9393   1418.84033     724.0030     330.9393
   1418.82507     724.0986     330.9866   1418.82507     724.0986     330.9866
   1418.80981     726.3326     331.9203   1418.80981     726.3326     331.9203
   1418.79456     727.4903     332.0552   1418.79456     727.4903     332.0552
   1418.77930     726.0720     332.1673   1418.77930     726.0720     332.1673
   1418.76404     727.4574     332.8807   1418.76404     727.4574     332.8807
   1418.74878     728.5202     332.8884   1418.74878     728.5202     332.8884
   1418.73352     728.7073     334.0316   1418.73352     728.7073     334.0316
   1418.71826     729.5234     333.9150   1418.71826     729.5234     333.9150
   1418.70300     730.3516     334.1939   1418.70300     730.3516     334.1939
   1418.68774     731.1112     334.7226   1418.68774     731.1112     334.7226
   1418.67249     730.8168     335.0100   1418.67249     730.8168     335.0100
   1418.65723     731.8890     335.5284   1418.65723     731.8890     335.5284
   1418.64197     733.0201     336.1957   1418.64197     733.0201     336.1957
   1418.62671     733.5835     336.5556   1418.62671     733.5835     336.5556
   1418.61145     733.9729     337.3137   1418.61145     733.9729     337.3137
   1418.59619     734.3865     338.6586   1418.59619     734.3865     338.6586
   1418.58093     736.1633     337.9920   1418.58093     736.1633     337.9920
   1418.56567     737.3845     338.1536   1418.56567     737.3845     338.1536
   1418.55042     737.9935     339.4725   1418.55042     737.9935     339.4725
   1418.53516     737.0656     339.5637   1418.53516     737.0656     339.5637
   1418.51990     738.3693     340.3781   1418.51990     738.3693     340.3781
   1418.50464     739.5483     340.8912   1418.50464     739.5483     340.8912
   1418.48938     740.5940     340.9603   1418.48938     740.5940     340.9603
   1418.47412     741.2692     341.7638   1418.47412     741.2692     341.7638
   1418.45886     741.8438     342.3292   1418.45886     741.8438     342.3292
   1418.44360     742.3610     342.5335   1418.44360     742.3610     342.5335
   1418.42834     743.5202     343.5626   1418.42834     743.5202     343.5626
   1418.41309     745.4122     344.0625   1418.41309     745.4122     344.0625
   1418.39783     745.2141     344.9915   1418.39783     745.2141     344.9915
   1418.38257     745.3289     345.4888   1418.38257     745.3289     345.4888
   1418.36731     746.6446     346.0263   1418.36731     746.6446     346.0263
   1418.35205     746.8497     346.6619   1418.35205     746.8497     346.6619
   1418.33679     749.0718     347.3069   1418.33679     749.0718     347.3069
   1418.32153     749.7953     348.0805   1418.32153     749.7953     348.0805
   1418.30627     750.7827     348.6562   1418.30627     750.7827     348.6562
   1418.29102     750.0598     349.0360   1418.29102     750.0598     349.0360
   1418.27576     749.8655     349.7573   1418.27576     749.8655     349.7573
   1418.26050     752.4520     350.1904   1418.26050     752.4520     350.1904
   1418.24524     753.1931     350.8392   1418.24524     753.1931     350.8392
   1418.22998     753.4264     352.1303   1418.22998     753.4264     352.1303
   1418.21472     754.0162     352.7570   1418.21472     754.0162     352.7570
   1418.19946     755.2443     352.9420   1418.19946     755.2443     352.9420
   1418.18420     756.2260     353.9572   1418.18420     756.2260     353.9572
   1418.16895     756.9637     354.7573   1418.16895     756.9637     354.7573
   1418.15369     757.8271     355.1086   1418.15369     757.8271     355.1086
   1418.13843     758.8395     356.1197   1418.13843     758.8395     356.1197
   1418.12317     760.6251     356.8700   1418.12317     760.6251     356.8700
   1418.10791     760.0496     357.1607   1418.10791     760.0496     357.1607
   1418.09265     761.6255     358.3150   1418.09265     761.6255     358.3150
   1418.07739     763.0144     358.4549   1418.07739     763.0144     358.4549
   1418.06213     762.4574     359.9500   1418.06213     762.4574     359.9500
   1418.04688     764.2753     360.0238   1418.04688     764.2753     360.0238
   1418.03162     764.5010     360.9492   1418.03162     764.5010     360.9492
   1418.01636     766.2521     362.1899   1418.01636     766.2521     362.1899
   1418.00110     766.8063     362.4230   1418.00110     766.8063     362.4230
   1417.98584     767.6238     363.4652   1417.98584     767.6238     363.4652
   1417.97058     767.3966     364.2101   1417.97058     767.3966     364.2101
   1417.95532     770.0876     365.0330   1417.95532     770.0876     365.0330
   1417.94006     770.2386     365.3795   1417.94006     770.2386     365.3795
   1417.92480     771.9297     366.3143   1417.92480     771.9297     366.3143
   1417.90955     773.4856     367.7516   1417.90955     773.4856     367.7516
   1417.89429     773.4774     368.3127   1417.89429     773.4774     368.3127
   1417.87903     773.8378     369.6351   1417.87903     773.8378     369.6351
   1417.86377     774.7607     370.1782   1417.86377     774.7607     370.1782
   1417.84851     776.8004     370.0442   1417.84851     776.8004     370.0442
   1417.83325     777.8226     371.8810   1417.83325     777.8226     371.8810
   1417.81799     777.6737     372.8836   1417.81799     777.6737     372.8836
   1417.80273     779.7383     373.5378   1417.80273     779.7383     373.5378
   1417.78748     779.3090     374.3086   1417.78748     779.3090     374.3086
   1417.77222     781.1213     375.2042   1417.77222     781.1213     375.2042
   1417.75696     782.4402     375.8593   1417.75696     782.4402     375.8593
   1417.74170     782.9069     377.0525   1417.74170     782.9069     377.0525
   1417.72644     782.8510     377.6481   1417.72644     782.8510     377.6481
   1417.71118     783.7915     379.1535   1417.71118     783.7915     379.1535
   1417.69592     786.3727     379.5507   1417.69592     786.3727     379.5507
   1417.68066     785.8873     380.6946   1417.68066     785.8873     380.6946
   1417.66541     787.6252     380.7951   1417.66541     787.6252     380.7951
   1417.65015     789.1913     381.6918   1417.65015     789.1913     381.6918
   1417.63489     788.7274     382.9137   1417.63489     788.7274     382.9137
   1417.61963     789.6588     383.9338   1417.61963     789.6588     383.9338
   1417.60437     790.9391     384.7067   1417.60437     790.9391     384.7067
   1417.58911     792.3600     386.1564   1417.58911     792.3600     386.1564
   1417.57385     791.1383     386.3428   1417.57385     791.1383     386.3428
   1417.55859     794.4764     387.9136   1417.55859     794.4764     387.9136
   1417.54333     794.9568     389.3530   1417.54333     794.9568     389.3530
   1417.52808     794.9063     389.7324   1417.52808     794.9063     389.7324
   1417.51282     796.6072     390.7660   1417.51282     796.6072     390.7660
   1417.49756     797.7697     391.2039   1417.49756     797.7697     391.2039
   1417.48230     797.5804     392.3898   1417.48230     797.5804     392.3898
   1417.46704     798.2913     394.0946   1417.46704     798.2913     394.0946
   1417.45178     800.8148     394.7175   1417.45178     800.8148     394.7175
   1417.43652     800.3008     395.4582   1417.43652     800.3008     395.4582
   1417.42126     802.1570     396.4786   1417.42126     802.1570     396.4786
   1417.40601     801.5098     396.7403   1417.40601     801.5098     396.7403
   1417.39075     804.1437     397.7549   1417.39075     804.1437     397.7549
   1417.37549     803.7429     398.6349   1417.37549     803.7429     398.6349
   1417.36023     803.9828     399.7805   1417.36023     803.9828     399.7805
   1417.34497     806.2111     401.2763   1417.34497     806.2111     401.2763
   1417.32971     807.1626     401.7360   1417.32971     807.1626     401.7360
   1417.31445     807.5619     401.8175   1417.31445     807.5619     401.8175
   1417.29919     808.3695     404.2646   1417.29919     808.3695     404.2646
   1417.28394     809.2212     404.9172   1417.28394     809.2212     404.9172
   1417.26868     809.4868     405.5108   1417.26868     809.4868     405.5108
   1417.25342     810.4336     407.0098   1417.25342     810.4336     407.0098
   1417.23816     811.0460     406.8494   1417.23816     811.0460     406.8494
   1417.22290     812.8130     408.6071   1417.22290     812.8130     408.6071
   1417.20764     812.1650     408.8976   1417.20764     812.1650     408.8976
   1417.19238     813.8083     410.3933   1417.19238     813.8083     410.3933
   1417.17712     814.3179     411.1994   1417.17712     814.3179     411.1994
   1417.16187     814.9944     411.8786   1417.16187     814.9944     411.8786
   1417.14661     815.9465     413.2306   1417.14661     815.9465     413.2306
   1417.13135     815.5273     413.7560   1417.13135     815.5273     413.7560
   1417.11609     815.9858     414.8820   1417.11609     815.9858     414.8820
   1417.10083     817.7922     415.9849   1417.10083     817.7922     415.9849
   1417.08557     818.2003     416.3113   1417.08557     818.2003     416.3113
   1417.07031     817.8554     417.4038   1417.07031     817.8554     417.4038
   1417.05505     819.2426     418.4189   1417.05505     819.2426     418.4189
   1417.03979     820.1453     418.0154   1417.03979     820.1453     418.0154
   1417.02454     819.2149     419.3185   1417.02454     819.2149     419.3185
   1417.00928     821.4951     420.0255   1417.00928     821.4951     420.0255
   1416.99402     820.8939     421.0044   1416.99402     820.8939     421.0044
   1416.97876     822.7393     422.1478   1416.97876     822.7393     422.1478
   1416.96350     821.3895     422.4040   1416.96350     821.3895     422.4040
   1416.94824     823.6619     423.5552   1416.94824     823.6619     423.5552
   1416.93298     824.8444     424.5648   1416.93298     824.8444     424.5648
   1416.91772     825.4340     425.3120   1416.91772     825.4340     425.3120
   1416.90247     825.0880     426.4642   1416.90247     825.0880     426.4642
   1416.88721     824.9200     427.3715   1416.88721     824.9200     427.3715
   1416.87195     826.5939     428.2078   1416.87195     826.5939     428.2078
   1416.85669     826.6752     428.8510   1416.85669     826.6752     428.8510
   1416.84143     825.5432     428.7134   1416.84143     825.5432     428.7134
   1416.82617     826.4042     429.5569   1416.82617     826.4042     429.5569
   1416.81091     827.8766     430.2400   1416.81091     827.8766     430.2400
   1416.79565     827.4523     430.3788   1416.79565     827.4523     430.3788
   1416.78040     827.4912     431.5248   1416.78040     827.4912     431.5248
   1416.76514     828.6913     432.2910   1416.76514     828.6913     432.2910
   1416.74988     829.7067     432.8421   1416.74988     829.7067     432.8421
   1416.73462     828.6187     433.7543   1416.73462     828.6187     433.7543
   1416.71936     827.9786     434.3047   1416.71936     827.9786     434.3047
   1416.70410     828.7492     434.3239   1416.70410     828.7492     434.3239
   1416.68884     829.3616     434.4902   1416.68884     829.3616     434.4902
   1416.67358     829.4072     435.4948   1416.67358     829.4072     435.4948
   1416.65833     829.0983     436.5427   1416.65833     829.0983     436.5427
   1416.64307     830.0623     436.4693   1416.64307     830.0623     436.4693
   1416.62781     829.0448     437.9700   1416.62781     829.0448     437.9700
   1416.61255     830.7017     437.8047   1416.61255     830.7017     437.8047
   1416.59729     830.1938     438.0335   1416.59729     830.1938     438.0335
   1416.58203     830.1885     438.8055   1416.58203     830.1885     438.8055
   1416.56677     830.5225     439.0402   1416.56677     830.5225     439.0402
   1416.55151     830.2200     438.8719   1416.55151     830.2200     438.8719
   1416.53625     830.8610     440.2087   1416.53625     830.8610     440.2087
   1416.52100     829.1067     439.8547   1416.52100     829.1067     439.8547
   1416.50574     830.6432     439.8679   1416.50574     830.6432     439.8679
   1416.49048     828.7917     440.5869   1416.49048     828.7917     440.5869
   1416.47522     829.8643     440.4647   1416.47522     829.8643     440.4647
   1416.45996     829.7900     441.3347   1416.45996     829.7900     441.3347
   1416.44470     828.0909     441.1650   1416.44470     828.0909     441.1650
   1416.42944     829.5510     441.8014   1416.42944     829.5510     441.8014
   1416.41418     828.7604     442.1974   1416.41418     828.7604     442.1974
   1416.39893     829.4587     441.7931   1416.39893     829.4587     441.7931
   1416.38367     829.0575     441.7760   1416.38367     829.0575     441.7760
   1416.36841     828.4346     442.3109   1416.36841     828.4346     442.3109
   1416.35315     828.9745     442.4756   1416.35315     828.9745     442.4756
   1416.33789     826.9387     441.7985   1416.33789     826.9387     441.7985
   1416.32263     827.7015     442.7713   1416.32263     827.7015     442.7713
   1416.30737     827.6868     442.7394   1416.30737     827.6868     442.7394
   1416.29211     826.0769     443.0918   1416.29211     826.0769     443.0918
   1416.27686     827.7379     442.8470   1416.27686     827.7379     442.8470
   1416.26160     825.6184     443.0387   1416.26160     825.6184     443.0387
   1416.24634     825.9589     443.2111   1416.24634     825.9589     443.2111
   1416.23108     826.6000     442.3136   1416.23108     826.6000     442.3136
   1416.21582     825.4959     442.7063   1416.21582     825.4959     442.7063
   1416.20056     824.5167     442.5366   1416.20056     824.5167     442.5366
   1416.18530     824.5335     442.6050   1416.18530     824.5335     442.6050
   1416.17004     823.5653     442.5925   1416.17004     823.5653     442.5925
   1416.15479     823.3076     442.9189   1416.15479     823.3076     442.9189
   1416.13953     823.2175     442.8065   1416.13953     823.2175     442.8065
   1416.12427     822.5037     442.0983   1416.12427     822.5037     442.0983
   1416.10901     820.9727     442.5338   1416.10901     820.9727     442.5338
   1416.09375     819.0508     441.9872   1416.09375     819.0508     441.9872
   1416.07849     820.0863     441.9223   1416.07849     820.0863     441.9223
   1416.06323     819.0567     441.6523   1416.06323     819.0567     441.6523
   1416.04797     819.4936     442.0337   1416.04797     819.4936     442.0337
   1416.03271     819.6221     441.2617   1416.03271     819.6221     441.2617
   1416.01746     818.7255     441.8858   1416.01746     818.7255     441.8858
   1416.00220     818.0723     440.7512   1416.00220     818.0723     440.7512
   1415.98694     817.1140     440.4252   1415.98694     817.1140     440.4252
   1415.97168     816.6194     440.3066   1415.97168     816.6194     440.3066
   1415.95642     816.1143     440.5576   1415.95642     816.1143     440.5576
   1415.94116     813.6916     440.6052   1415.94116     813.6916     440.6052
   1415.92590     813.6966     439.3836   1415.92590     813.6966     439.3836
   1415.91064     813.7949     439.0926   1415.91064     813.7949     439.0926
   1415.89539     812.2375     439.2504   1415.89539     812.2375     439.2504
   1415.88013     812.0145     438.2990   1415.88013     812.0145     438.2990
   1415.86487     810.7806     438.7053   1415.86487     810.7806     438.7053
   1415.84961     809.9725     438.8479   1415.84961     809.9725     438.8479
   1415.83435     809.4174     438.3838   1415.83435     809.4174     438.3838
   1415.81909     808.7578     437.0410   1415.81909     808.7578     437.0410
   1415.80383     808.9088     437.3766   1415.80383     808.9088     437.3766
   1415.78857     807.7432     437.6992   1415.78857     807.7432     437.6992
   1415.77332     806.3549     436.0665   1415.77332     806.3549     436.0665
   1415.75806     804.3453     435.5266   1415.75806     804.3453     435.5266
   1415.74280     804.5865     435.3789   1415.74280     804.5865     435.3789
   1415.72754     804.2545     435.2500   1415.72754     804.2545     435.2500
   1415.71228     802.2238     435.0878   1415.71228     802.2238     435.0878
   1415.69702     801.3553     434.5395   1415.69702     801.3553     434.5395
   1415.68176     801.5486     433.9252   1415.68176     801.5486     433.9252
   1415.66650     800.2613     433.4848   1415.66650     800.2613     433.4848
   1415.65125     799.7236     433.5162   1415.65125     799.7236     433.5162
   1415.63599     797.7891     433.1701   1415.63599     797.7891     433.1701
   1415.62073     797.5323     432.4692   1415.62073     797.5323     432.4692
   1415.60547     795.7751     431.8524   1415.60547     795.7751     431.8524
   1415.59021     796.5339     431.6529   1415.59021     796.5339     431.6529
   1415.57495     795.2917     431.1598   1415.57495     795.2917     431.1598
   1415.55969     793.6149     430.8383   1415.55969     793.6149     430.8383
   1415.54443     791.6627     429.5711   1415.54443     791.6627     429.5711
   1415.52917     790.9786     429.3381   1415.52917     790.9786     429.3381
   1415.51392     790.6020     428.0881   1415.51392     790.6020     428.0881
   1415.49866     788.7986     428.4747   1415.49866     788.7986     428.4747
   1415.48340     787.6500     427.6853   1415.48340     787.6500     427.6853
   1415.46814     787.2632     427.6370   1415.46814     787.2632     427.6370
   1415.45288     786.7465     426.9859   1415.45288     786.7465     426.9859
   1415.43762     783.8046     426.8109   1415.43762     783.8046     426.8109
   1415.42236     783.1180     426.1934   1415.42236     783.1180     426.1934
   1415.40710     783.0206     425.5498   1415.40710     783.0206     425.5498
   1415.39185     780.0090     424.8491   1415.39185     780.0090     424.8491
   1415.37659     779.4810     424.0361   1415.37659     779.4810     424.0361
   1415.36133     778.5978     423.2747   1415.36133     778.5978     423.2747
   1415.34607     777.8503     422.9557   1415.34607     777.8503     422.9557
   1415.33081     777.0302     422.9029   1415.33081     777.0302     422.9029
   1415.31555     775.5028     421.8079   1415.31555     775.5028     421.8079
   1415.30029     772.6779     421.0819   1415.30029     772.6779     421.0819
   1415.28503     773.1700     421.2506   1415.28503     773.1700     421.2506
   1415.26978     771.1702     420.3012   1415.26978     771.1702     420.3012
   1415.25452     768.8239     419.6790   1415.25452     768.8239     419.6790
   1415.23926     767.8258     418.9586   1415.23926     767.8258     418.9586
   1415.22400     766.7509     418.7465   1415.22400     766.7509     418.7465
   1415.20874     765.4828     417.3152   1415.20874     765.4828     417.3152
   1415.19348     764.0631     416.2379   1415.19348     764.0631     416.2379
   1415.17822     763.5865     416.9669   1415.17822     763.5865     416.9669
   1415.16296     761.2757     415.3258   1415.16296     761.2757     415.3258
   1415.14771     759.7968     414.9895   1415.14771     759.7968     414.9895
   1415.13245     758.8942     413.8976   1415.13245     758.8942     413.8976
   1415.11719     757.1855     413.4518   1415.11719     757.1855     413.4518
   1415.10193     755.8643     412.6398   1415.10193     755.8643     412.6398
   1415.08667     753.4813     411.9045   1415.08667     753.4813     411.9045
   1415.07141     751.6625     411.4637   1415.07141     751.6625     411.4637
   1415.05615     751.3790     410.6364   1415.05615     751.3790     410.6364
   1415.04089     749.0101     409.7865   1415.04089     749.0101     409.7865
   1415.02563     749.0238     408.6214   1415.02563     749.0238     408.6214
   1415.01038     745.5495     408.4713   1415.01038     745.5495     408.4713
   1414.99512     744.6089     408.1303   1414.99512     744.6089     408.1303
   1414.97986     743.2146     406.7872   1414.97986     743.2146     406.7872
   1414.96460     740.8526     406.0649   1414.96460     740.8526     406.0649
   1414.94934     739.7472     405.5596   1414.94934     739.7472     405.5596
   1414.93408     738.8541     404.3253   1414.93408     738.8541     404.3253
   1414.91882     736.7839     403.7466   1414.91882     736.7839     403.7466
   1414.90356     734.5881     403.0157   1414.90356     734.5881     403.0157
   1414.88831     732.2490     402.1647   1414.88831     732.2490     402.1647
   1414.87305     730.0345     401.0703   1414.87305     730.0345     401.0703
   1414.85779     729.6746     400.2612   1414.85779     729.6746     400.2612
   1414.84253     727.2104     400.0770   1414.84253     727.2104     400.0770
   1414.82727     725.6298     398.4924   1414.82727     725.6298     398.4924
   1414.81201     723.4666     397.8261   1414.81201     723.4666     397.8261
   1414.79675     722.2115     396.5262   1414.79675     722.2115     396.5262
   1414.78149     721.2051     396.5313   1414.78149     721.2051     396.5313
   1414.76624     717.8806     395.8691   1414.76624     717.8806     395.8691
   1414.75098     716.6693     394.1398   1414.75098     716.6693     394.1398
   1414.73572     714.4152     393.4171   1414.73572     714.4152     393.4171
   1414.72046     711.9086     392.2013   1414.72046     711.9086     392.2013
   1414.70520     710.2544     391.2439   1414.70520     710.2544     391.2439
   1414.68994     708.8064     390.4449   1414.68994     708.8064     390.4449
   1414.67468     705.5060     389.3607   1414.67468     705.5060     389.3607
   1414.65942     704.4389     389.0415   1414.65942     704.4389     389.0415
   1414.64417     702.2051     387.7014   1414.64417     702.2051     387.7014
   1414.62891     699.9706     386.9936   1414.62891     699.9706     386.9936
   1414.61365     698.1541     385.8077   1414.61365     698.1541     385.8077
   1414.59839     695.7374     384.7025   1414.59839     695.7374     384.7025
   1414.58313     693.1895     383.7114   1414.58313     693.1895     383.7114
   1414.56787     692.1996     382.8789   1414.56787     692.1996     382.8789
   1414.55261     689.4525     381.8035   1414.55261     689.4525     381.8035
   1414.53735     687.7083     380.5247   1414.53735     687.7083     380.5247
   1414.52209     685.8525     379.0611   1414.52209     685.8525     379.0611
   1414.50684     682.4729     378.7120   1414.50684     682.4729     378.7120
   1414.49158     679.9864     377.4567   1414.49158     679.9864     377.4567
   1414.47632     678.1885     376.0648   1414.47632     678.1885     376.0648
   1414.46106     675.8507     375.4140   1414.46106     675.8507     375.4140
   1414.44580     673.9131     374.1738   1414.44580     673.9131     374.1738
   1414.43054     670.8616     372.5428   1414.43054     670.8616     372.5428
   1414.41528     668.9472     371.8527   1414.41528     668.9472     371.8527
   1414.40002     666.4669     369.9613   1414.40002     666.4669     369.9613
   1414.38477     663.4893     369.7228   1414.38477     663.4893     369.7228
   1414.36951     661.9238     368.2325   1414.36951     661.9238     368.2325
   1414.35425     659.8967     367.1049   1414.35425     659.8967     367.1049
   1414.33899     655.7371     365.9497   1414.33899     655.7371     365.9497
   1414.32373     654.0779     364.3194   1414.32373     654.0779     364.3194
   1414.30847     652.0825     363.5265   1414.30847     652.0825     363.5265
   1414.29321     649.2268     362.8041   1414.29321     649.2268     362.8041
   1414.27795     646.6979     360.8233   1414.27795     646.6979     360.8233
   1414.26270     643.9708     360.1401   1414.26270     643.9708     360.1401
   1414.24744     641.9821     358.8708   1414.24744     641.9821     358.8708
   1414.23218     639.9542     357.9804   1414.23218     639.9542     357.9804
   1414.21692     636.1376     356.2500   1414.21692     636.1376     356.2500
   1414.20166     633.9844     355.2313   1414.20166     633.9844     355.2313
   1414.18640     630.5841     353.3830   1414.18640     630.5841     353.3830
   1414.17114     629.4192     352.9701   1414.17114     629.4192     352.9701
   1414.15588     626.6331     351.2527   1414.15588     626.6331     351.2527
   1414.14062     623.9143     349.6855   1414.14062     623.9143     349.6855
   1414.12537     620.3187     348.7040   1414.12537     620.3187     348.7040
   1414.11011     617.0167     346.8394   1414.11011     617.0167     346.8394
   1414.09485     615.9567     345.8297   1414.09485     615.9567     345.8297
   1414.07959     612.3009     345.2979   1414.07959     612.3009     345.2979
   1414.06433     609.3834     343.6093   1414.06433     609.3834     343.6093
   1414.04907     607.1412     342.6205   1414.04907     607.1412     342.6205
   1414.03381     605.1979     340.8055   1414.03381     605.1979     340.8055
   1414.01855     602.3611     340.2989   1414.01855     602.3611     340.2989
   1414.00330     630.1028     346.8007   1414.00330     630.1028     346.8007
   1413.98804     597.9322     337.6141   1413.98804     597.9322     337.6141
   1413.97278     593.0225     335.8710   1413.97278     593.0225     335.8710
   1413.95752     590.1259     333.8961   1413.95752     590.1259     333.8961
   1413.94226     587.8159     333.0573   1413.94226     587.8159     333.0573
   1413.92700     584.3749     331.6245   1413.92700     584.3749     331.6245
   1413.91174     580.6332     329.9565   1413.91174     580.6332     329.9565
   1413.89648     578.9029     328.7212   1413.89648     578.9029     328.7212
   1413.88123     575.4631     327.7627   1413.88123     575.4631     327.7627
   1413.86597     572.6506     325.7850   1413.86597     572.6506     325.7850
   1413.85071     571.1104     324.6391   1413.85071     571.1104     324.6391
   1413.83545     567.3856     322.8633   1413.83545     567.3856     322.8633
   1413.82019     564.9001     322.4832   1413.82019     564.9001     322.4832
   1413.80493     561.1780     320.1992   1413.80493     561.1780     320.1992
   1413.78967     559.0952     318.9694   1413.78967     559.0952     318.9694
   1413.77441     555.4121     317.8723   1413.77441     555.4121     317.8723
   1413.75916     551.7784     316.3369   1413.75916     551.7784     316.3369
   1413.74390     550.4717     314.6755   1413.74390     550.4717     314.6755
   1413.72864     546.9916     314.2618   1413.72864     546.9916     314.2618
   1413.71338     544.8613     312.1587   1413.71338     544.8613     312.1587
   1413.69812     541.7869     310.9411   1413.69812     541.7869     310.9411
   1413.68286     538.8580     309.5944   1413.68286     538.8580     309.5944
   1413.66760     534.7164     308.2179   1413.66760     534.7164     308.2179
   1413.65234     532.7158     306.3990   1413.65234     532.7158     306.3990
   1413.63708     530.8245     305.3412   1413.63708     530.8245     305.3412
   1413.62183     527.1722     304.0467   1413.62183     527.1722     304.0467
   1413.60657     524.7364     302.7944   1413.60657     524.7364     302.7944
   1413.59131     522.7028     301.1340   1413.59131     522.7028     301.1340
   1413.57605     519.5349     299.7820   1413.57605     519.5349     299.7820
   1413.56079     515.7675     298.5019   1413.56079     515.7675     298.5019
   1413.54553     513.7514     297.2675   1413.54553     513.7514     297.2675
   1413.53027     509.7909     296.1404   1413.53027     509.7909     296.1404
   1413.51501     506.7549     294.3460   1413.51501     506.7549     294.3460
   1413.49976     504.8988     293.1982   1413.49976     504.8988     293.1982
   1413.48450     501.8686     291.6902   1413.48450     501.8686     291.6902
   1413.46924     498.2325     290.3125   1413.46924     498.2325     290.3125
   1413.45398     496.6657     289.0589   1413.45398     496.6657     289.0589
   1413.43872     493.3654     287.9594   1413.43872     493.3654     287.9594
   1413.42346     491.0036     286.5207   1413.42346     491.0036     286.5207
   1413.40820     487.5543     285.2268   1413.40820     487.5543     285.2268
   1413.39294     484.9819     283.5436   1413.39294     484.9819     283.5436
   1413.37769     482.0618     282.7577   1413.37769     482.0618     282.7577
   1413.36243     479.8963     281.6210   1413.36243     479.8963     281.6210
   1413.34717     476.2309     280.3313   1413.34717     476.2309     280.3313
   1413.33191     474.1812     279.0804   1413.33191     474.1812     279.0804
   1413.31665     471.7398     277.5337   1413.31665     471.7398     277.5337
   1413.30139     468.8738     276.3914   1413.30139     468.8738     276.3914
   1413.28613     466.2763     275.7477   1413.28613     466.2763     275.7477
   1413.27087     463.5018     274.1769   1413.27087     463.5018     274.1769
   1413.25562     460.8507     272.5809   1413.25562     460.8507     272.5809
   1413.24036     458.4571     271.7535   1413.24036     458.4571     271.7535
   1413.22510     456.0377     270.4403   1413.22510     456.0377     270.4403
   1413.20984     453.9257     269.4687   1413.20984     453.9257     269.4687
   1413.19458     451.0898     268.7249   1413.19458     451.0898     268.7249
   1413.17932     448.4760     267.4815   1413.17932     448.4760     267.4815
   1413.16406     447.0896     266.2690   1413.16406     447.0896     266.2690
   1413.14880     444.2154     264.8465   1413.14880     444.2154     264.8465
   1413.13354     441.7292     264.2398   1413.13354     441.7292     264.2398
   1413.11829     439.8237     263.4770   1413.11829     439.8237     263.4770
   1413.10303     437.2549     262.4806   1413.10303     437.2549     262.4806
   1413.08777     434.5154     260.9362   1413.08777     434.5154     260.9362
   1413.07251     432.5072     260.0756   1413.07251     432.5072     260.0756
   1413.05725     430.5046     259.6427   1413.05725     430.5046     259.6427
   1413.04199     428.6245     258.3543   1413.04199     428.6245     258.3543
   1413.02673     426.0655     257.5262   1413.02673     426.0655     257.5262
   1413.01147     424.1435     256.3971   1413.01147     424.1435     256.3971
   1412.99622     421.7016     255.9792   1412.99622     421.7016     255.9792
   1412.98096     419.0237     255.0074   1412.98096     419.0237     255.0074
   1412.96570     417.9802     254.1709   1412.96570     417.9802     254.1709
   1412.95044     415.8892     253.5206   1412.95044     415.8892     253.5206
   1412.93518     414.1321     252.6725   1412.93518     414.1321     252.6725
   1412.91992     411.7166     252.4039   1412.91992     411.7166     252.4039
   1412.90466     410.4541     250.8226   1412.90466     410.4541     250.8226
   1412.88940     407.9275     250.5715   1412.88940     407.9275     250.5715
   1412.87415     406.6026     250.0882   1412.87415     406.6026     250.0882
   1412.85889     405.0823     249.4257   1412.85889     405.0823     249.4257
   1412.84363     403.1543     249.1752   1412.84363     403.1543     249.1752
   1412.82837     401.5508     248.4796   1412.82837     401.5508     248.4796
   1412.81311     400.0087     247.9868   1412.81311     400.0087     247.9868
   1412.79785     398.9489     247.3224   1412.79785     398.9489     247.3224
   1412.78259     397.3702     247.1371   1412.78259     397.3702     247.1371
   1412.76733     395.6758     246.7918   1412.76733     395.6758     246.7918
   1412.75208     393.9779     246.0609   1412.75208     393.9779     246.0609
   1412.73682     392.8295     245.8401   1412.73682     392.8295     245.8401
   1412.72156     392.5957     245.8261   1412.72156     392.5957     245.8261
   1412.70630     391.3827     244.9995   1412.70630     391.3827     244.9995
   1412.69104     389.8221     244.8828   1412.69104     389.8221     244.8828
   1412.67578     387.7834     244.6955   1412.67578     387.7834     244.6955
   1412.66052     387.3401     244.1444   1412.66052     387.3401     244.1444
   1412.64526     385.9763     244.0800   1412.64526     385.9763     244.0800
   1412.63000     385.4408     244.2371   1412.63000     385.4408     244.2371
   1412.61475     384.1983     243.9061   1412.61475     384.1983     243.9061
   1412.59949     383.7451     243.9065   1412.59949     383.7451     243.9065
   1412.58423     382.2175     243.8608   1412.58423     382.2175     243.8608
   1412.56897     381.5916     243.8434   1412.56897     381.5916     243.8434
   1412.55371     380.9202     244.0672   1412.55371     380.9202     244.0672
   1412.53845     380.4960     244.0294   1412.53845     380.4960     244.0294
   1412.52319     379.3714     243.9918   1412.52319     379.3714     243.9918
   1412.50793     379.1884     244.4320   1412.50793     379.1884     244.4320
   1412.49268     378.4482     244.3541   1412.49268     378.4482     244.3541
   1412.47742     378.0524     244.5362   1412.47742     378.0524     244.5362
   1412.46216     377.8203     244.8690   1412.46216     377.8203     244.8690
   1412.44690     377.0930     245.0119   1412.44690     377.0930     245.0119
   1412.43164     377.1583     245.3775   1412.43164     377.1583     245.3775
   1412.41638     376.5229     245.7126   1412.41638     376.5229     245.7126
   1412.40112     376.5116     246.0830   1412.40112     376.5116     246.0830
   1412.38586     376.9217     246.8550   1412.38586     376.9217     246.8550
   1412.37061     375.3546     247.1061   1412.37061     375.3546     247.1061
   1412.35535     376.2871     247.5594   1412.35535     376.2871     247.5594
   1412.34009     376.1513     247.8782   1412.34009     376.1513     247.8782
   1412.32483     376.0682     248.6075   1412.32483     376.0682     248.6075
   1412.30957     376.1447     249.5466   1412.30957     376.1447     249.5466
   1412.29431     376.4680     249.6429   1412.29431     376.4680     249.6429
   1412.27905     377.1317     250.8522   1412.27905     377.1317     250.8522
   1412.26379     377.2206     251.2411   1412.26379     377.2206     251.2411
   1412.24854     377.4939     252.0161   1412.24854     377.4939     252.0161
   1412.23328     378.1857     252.9639   1412.23328     378.1857     252.9639
   1412.21802     378.2975     253.3618   1412.21802     378.2975     253.3618
   1412.20276     379.0447     254.8378   1412.20276     379.0447     254.8378