#     FILENAME=!Skynet_57528_lach-hhg-137_20453_20961.cyb.fits
#     BASENAME=Skynet_57528_lach-hhg-137_20453_20961
#     SRC_NAME=lach-hhg-137
#     OBSERVER=hhgmadison16_9500
#     DATE_OBS=2016-05-20T17:11:32.000
#        OBSID=20453
#      SCANNUM=20961
#          MJD=57528.7174
#          UTC=61980
#     SCANTYPE=track
#     DATAMODE=HIRES
#     TUNEFREQ=1420.0000
# Actual_FREQ1=1420.0000
# Actual_FREQ2=1420.0000
#    LO1Tuning=6870.000
#     RFFILTER=1355_1435
#        OBSBW=-15.6250
#        NCHAN=1024 
#        FOCUS=37.1368
#           RA=02:46:34.81
#          DEC=59:41:17.03
#      RA(hrs)=2.776300
#     DEC(deg)=59.688100
#    AZIM(deg)=340.407
#    ELEV(deg)=66.591
#     IFattens=11.00, 10.00
#      WARNING=None
#    TCAL_XL1=7.9635
#    TCAL_YR1=9.1340
#    TCAL_XL2=7.9635
#    TCAL_YR2=9.1340
#     TRX_XL1=11.7060
#     TRX_YR1=11.7060
#     TRX_XL2=11.7060
#     TRX_YR2=11.7060
#        TAVE=1.0000
#Freq1(MHz)          XL1          YR1  Freq2(MHz)          XL2          YR2 

   1427.81250     303.0825     247.0005   1427.81250     303.0825     247.0005
   1427.79724     303.1259     247.6204   1427.79724     303.1259     247.6204
   1427.78198     303.9594     248.4067   1427.78198     303.9594     248.4067
   1427.76672     304.7161     249.9092   1427.76672     304.7161     249.9092
   1427.75146     305.0181     250.4569   1427.75146     305.0181     250.4569
   1427.73621     306.3859     251.4412   1427.73621     306.3859     251.4412
   1427.72095     306.5256     252.6120   1427.72095     306.5256     252.6120
   1427.70569     307.6915     253.5792   1427.70569     307.6915     253.5792
   1427.69043     308.5899     254.6514   1427.69043     308.5899     254.6514
   1427.67517     309.2129     256.2892   1427.67517     309.2129     256.2892
   1427.65991     310.3590     257.5029   1427.65991     310.3590     257.5029
   1427.64465     311.1390     259.0049   1427.64465     311.1390     259.0049
   1427.62939     312.1296     260.2409   1427.62939     312.1296     260.2409
   1427.61414     313.2593     261.9082   1427.61414     313.2593     261.9082
   1427.59888     314.3477     262.9784   1427.59888     314.3477     262.9784
   1427.58362     315.3584     264.2161   1427.58362     315.3584     264.2161
   1427.56836     316.7286     265.3034   1427.56836     316.7286     265.3034
   1427.55310     318.0454     267.3763   1427.55310     318.0454     267.3763
   1427.53784     318.9683     268.7363   1427.53784     318.9683     268.7363
   1427.52258     320.3266     269.7952   1427.52258     320.3266     269.7952
   1427.50732     321.9634     271.4016   1427.50732     321.9634     271.4016
   1427.49207     323.1309     273.2271   1427.49207     323.1309     273.2271
   1427.47681     324.2478     275.0237   1427.47681     324.2478     275.0237
   1427.46155     326.6467     276.5304   1427.46155     326.6467     276.5304
   1427.44629     327.4943     278.0858   1427.44629     327.4943     278.0858
   1427.43103     329.1688     279.8414   1427.43103     329.1688     279.8414
   1427.41577     330.6825     281.2267   1427.41577     330.6825     281.2267
   1427.40051     331.9066     283.0149   1427.40051     331.9066     283.0149
   1427.38525     333.8678     284.9213   1427.38525     333.8678     284.9213
   1427.37000     335.8987     286.5184   1427.37000     335.8987     286.5184
   1427.35474     337.6679     288.6884   1427.35474     337.6679     288.6884
   1427.33948     338.7188     290.1019   1427.33948     338.7188     290.1019
   1427.32422     340.2894     292.2173   1427.32422     340.2894     292.2173
   1427.30896     342.7378     294.1267   1427.30896     342.7378     294.1267
   1427.29370     344.9471     295.5945   1427.29370     344.9471     295.5945
   1427.27844     347.1739     297.9931   1427.27844     347.1739     297.9931
   1427.26318     347.9567     299.9223   1427.26318     347.9567     299.9223
   1427.24792     350.1489     301.4423   1427.24792     350.1489     301.4423
   1427.23267     352.4158     303.0302   1427.23267     352.4158     303.0302
   1427.21741     353.9982     305.1814   1427.21741     353.9982     305.1814
   1427.20215     356.5632     307.3015   1427.20215     356.5632     307.3015
   1427.18689     358.2988     309.4703   1427.18689     358.2988     309.4703
   1427.17163     359.9662     310.7821   1427.17163     359.9662     310.7821
   1427.15637     362.4042     313.3713   1427.15637     362.4042     313.3713
   1427.14111     365.0417     315.9676   1427.14111     365.0417     315.9676
   1427.12585     366.4799     317.0098   1427.12585     366.4799     317.0098
   1427.11060     368.9263     319.5086   1427.11060     368.9263     319.5086
   1427.09534     371.2419     321.8543   1427.09534     371.2419     321.8543
   1427.08008     373.3354     322.7313   1427.08008     373.3354     322.7313
   1427.06482     375.8346     325.2610   1427.06482     375.8346     325.2610
   1427.04956     377.1560     327.4220   1427.04956     377.1560     327.4220
   1427.03430     380.8405     329.7871   1427.03430     380.8405     329.7871
   1427.01904     382.1063     331.3172   1427.01904     382.1063     331.3172
   1427.00378     385.0871     333.4967   1427.00378     385.0871     333.4967
   1426.98853     388.2180     335.3492   1426.98853     388.2180     335.3492
   1426.97327     389.8182     338.0923   1426.97327     389.8182     338.0923
   1426.95801     392.0247     340.0735   1426.95801     392.0247     340.0735
   1426.94275     394.8102     342.1024   1426.94275     394.8102     342.1024
   1426.92749     397.1661     344.4758   1426.92749     397.1661     344.4758
   1426.91223     399.8381     346.5439   1426.91223     399.8381     346.5439
   1426.89697     402.6279     349.1341   1426.89697     402.6279     349.1341
   1426.88171     404.5327     350.6227   1426.88171     404.5327     350.6227
   1426.86646     407.1188     352.6205   1426.86646     407.1188     352.6205
   1426.85120     409.5552     355.1573   1426.85120     409.5552     355.1573
   1426.83594     412.8152     356.7697   1426.83594     412.8152     356.7697
   1426.82068     414.7812     358.5742   1426.82068     414.7812     358.5742
   1426.80542     417.4073     360.3008   1426.80542     417.4073     360.3008
   1426.79016     420.1857     362.7211   1426.79016     420.1857     362.7211
   1426.77490     422.0552     364.9605   1426.77490     422.0552     364.9605
   1426.75964     424.7053     367.1455   1426.75964     424.7053     367.1455
   1426.74438     427.6556     369.6073   1426.74438     427.6556     369.6073
   1426.72913     430.3152     370.6896   1426.72913     430.3152     370.6896
   1426.71387     432.9789     373.3132   1426.71387     432.9789     373.3132
   1426.69861     435.2578     375.6718   1426.69861     435.2578     375.6718
   1426.68335     437.7835     377.0541   1426.68335     437.7835     377.0541
   1426.66809     439.6471     379.5596   1426.66809     439.6471     379.5596
   1426.65283     442.8978     381.3036   1426.65283     442.8978     381.3036
   1426.63757     445.0513     383.2096   1426.63757     445.0513     383.2096
   1426.62231     448.4439     386.0445   1426.62231     448.4439     386.0445
   1426.60706     449.7220     387.5117   1426.60706     449.7220     387.5117
   1426.59180     452.9066     388.9210   1426.59180     452.9066     388.9210
   1426.57654     455.9002     391.2189   1426.57654     455.9002     391.2189
   1426.56128     459.1991     393.2371   1426.56128     459.1991     393.2371
   1426.54602     461.0586     394.5254   1426.54602     461.0586     394.5254
   1426.53076     463.4863     396.9539   1426.53076     463.4863     396.9539
   1426.51550     465.5314     399.6070   1426.51550     465.5314     399.6070
   1426.50024     468.8266     400.4128   1426.50024     468.8266     400.4128
   1426.48499     470.9947     403.2655   1426.48499     470.9947     403.2655
   1426.46973     474.6391     404.2246   1426.46973     474.6391     404.2246
   1426.45447     476.5394     405.5495   1426.45447     476.5394     405.5495
   1426.43921     478.8887     407.4557   1426.43921     478.8887     407.4557
   1426.42395     480.4771     409.2062   1426.42395     480.4771     409.2062
   1426.40869     483.7307     411.7078   1426.40869     483.7307     411.7078
   1426.39343     486.3013     413.1617   1426.39343     486.3013     413.1617
   1426.37817     489.1948     415.0121   1426.37817     489.1948     415.0121
   1426.36292     491.0288     417.0563   1426.36292     491.0288     417.0563
   1426.34766     493.7464     418.4348   1426.34766     493.7464     418.4348
   1426.33240     496.0166     420.0099   1426.33240     496.0166     420.0099
   1426.31714     498.5475     421.9715   1426.31714     498.5475     421.9715
   1426.30188     500.8546     423.7752   1426.30188     500.8546     423.7752
   1426.28662     503.5374     425.0282   1426.28662     503.5374     425.0282
   1426.27136     504.8512     427.4203   1426.27136     504.8512     427.4203
   1426.25610     508.3555     428.4598   1426.25610     508.3555     428.4598
   1426.24084     510.1063     429.8200   1426.24084     510.1063     429.8200
   1426.22559     513.5765     431.4132   1426.22559     513.5765     431.4132
   1426.21033     514.7462     433.6323   1426.21033     514.7462     433.6323
   1426.19507     517.8350     434.8438   1426.19507     517.8350     434.8438
   1426.17981     521.2475     436.4001   1426.17981     521.2475     436.4001
   1426.16455     522.5689     436.9955   1426.16455     522.5689     436.9955
   1426.14929     524.9976     439.5692   1426.14929     524.9976     439.5692
   1426.13403     526.1031     441.0031   1426.13403     526.1031     441.0031
   1426.11877     528.9589     442.2047   1426.11877     528.9589     442.2047
   1426.10352     531.9682     443.7237   1426.10352     531.9682     443.7237
   1426.08826     533.6573     445.3536   1426.08826     533.6573     445.3536
   1426.07300     535.5377     446.4091   1426.07300     535.5377     446.4091
   1426.05774     537.8934     447.7668   1426.05774     537.8934     447.7668
   1426.04248     540.1936     449.7467   1426.04248     540.1936     449.7467
   1426.02722     541.3763     450.0838   1426.02722     541.3763     450.0838
   1426.01196     543.8345     452.0232   1426.01196     543.8345     452.0232
   1425.99670     545.8256     453.1364   1425.99670     545.8256     453.1364
   1425.98145     547.8827     455.0130   1425.98145     547.8827     455.0130
   1425.96619     549.9694     455.9072   1425.96619     549.9694     455.9072
   1425.95093     552.0273     456.6510   1425.95093     552.0273     456.6510
   1425.93567     553.5336     457.9902   1425.93567     553.5336     457.9902
   1425.92041     555.6217     459.2123   1425.92041     555.6217     459.2123
   1425.90515     557.8107     460.2661   1425.90515     557.8107     460.2661
   1425.88989     560.0464     461.8224   1425.88989     560.0464     461.8224
   1425.87463     561.4271     462.4903   1425.87463     561.4271     462.4903
   1425.85938     562.7824     463.8409   1425.85938     562.7824     463.8409
   1425.84412     564.6581     464.6984   1425.84412     564.6581     464.6984
   1425.82886     566.4869     466.4838   1425.82886     566.4869     466.4838
   1425.81360     568.8869     467.4079   1425.81360     568.8869     467.4079
   1425.79834     571.2526     468.4260   1425.79834     571.2526     468.4260
   1425.78308     571.6312     469.9017   1425.78308     571.6312     469.9017
   1425.76782     573.6728     470.6671   1425.76782     573.6728     470.6671
   1425.75256     574.9918     471.1479   1425.75256     574.9918     471.1479
   1425.73730     576.6278     472.9977   1425.73730     576.6278     472.9977
   1425.72205     578.2480     473.9790   1425.72205     578.2480     473.9790
   1425.70679     579.1845     474.5079   1425.70679     579.1845     474.5079
   1425.69153     581.9693     475.9155   1425.69153     581.9693     475.9155
   1425.67627     582.6443     476.1788   1425.67627     582.6443     476.1788
   1425.66101     583.6116     477.1576   1425.66101     583.6116     477.1576
   1425.64575     585.6661     477.5405   1425.64575     585.6661     477.5405
   1425.63049     587.4604     479.7484   1425.63049     587.4604     479.7484
   1425.61523     588.8069     480.6210   1425.61523     588.8069     480.6210
   1425.59998     590.0333     480.7469   1425.59998     590.0333     480.7469
   1425.58472     591.8503     480.8619   1425.58472     591.8503     480.8619
   1425.56946     592.6959     482.0009   1425.56946     592.6959     482.0009
   1425.55420     593.9913     483.0957   1425.55420     593.9913     483.0957
   1425.53894     595.4384     483.8742   1425.53894     595.4384     483.8742
   1425.52368     596.2040     484.9688   1425.52368     596.2040     484.9688
   1425.50842     597.0408     485.5624   1425.50842     597.0408     485.5624
   1425.49316     599.0838     485.8867   1425.49316     599.0838     485.8867
   1425.47791     599.9290     487.5854   1425.47791     599.9290     487.5854
   1425.46265     600.7847     486.6401   1425.46265     600.7847     486.6401
   1425.44739     601.6699     489.0063   1425.44739     601.6699     489.0063
   1425.43213     603.1400     489.3120   1425.43213     603.1400     489.3120
   1425.41687     605.6544     489.8954   1425.41687     605.6544     489.8954
   1425.40161     605.2734     490.5641   1425.40161     605.2734     490.5641
   1425.38635     605.5486     491.0147   1425.38635     605.5486     491.0147
   1425.37109     607.0095     491.2090   1425.37109     607.0095     491.2090
   1425.35583     608.4379     491.5609   1425.35583     608.4379     491.5609
   1425.34058     608.6790     492.7298   1425.34058     608.6790     492.7298
   1425.32532     610.4890     493.1879   1425.32532     610.4890     493.1879
   1425.31006     611.2137     494.7298   1425.31006     611.2137     494.7298
   1425.29480     611.7712     494.5989   1425.29480     611.7712     494.5989
   1425.27954     612.5148     494.7283   1425.27954     612.5148     494.7283
   1425.26428     612.4385     495.1533   1425.26428     612.4385     495.1533
   1425.24902     612.6506     496.7664   1425.24902     612.6506     496.7664
   1425.23376     614.8056     496.6712   1425.23376     614.8056     496.6712
   1425.21851     615.9482     496.7350   1425.21851     615.9482     496.7350
   1425.20325     616.7236     498.4450   1425.20325     616.7236     498.4450
   1425.18799     616.6490     498.6248   1425.18799     616.6490     498.6248
   1425.17273     616.3058     498.4617   1425.17273     616.3058     498.4617
   1425.15747     617.7394     499.2111   1425.15747     617.7394     499.2111
   1425.14221     618.1218     499.6897   1425.14221     618.1218     499.6897
   1425.12695     619.4601     501.0014   1425.12695     619.4601     501.0014
   1425.11169     618.9426     500.6809   1425.11169     618.9426     500.6809
   1425.09644     620.0244     501.0356   1425.09644     620.0244     501.0356
   1425.08118     620.8536     501.3004   1425.08118     620.8536     501.3004
   1425.06592     621.3088     502.4401   1425.06592     621.3088     502.4401
   1425.05066     621.6829     503.2692   1425.05066     621.6829     503.2692
   1425.03540     622.9100     502.4919   1425.03540     622.9100     502.4919
   1425.02014     623.1439     503.0436   1425.02014     623.1439     503.0436
   1425.00488     622.1864     503.7243   1425.00488     622.1864     503.7243
   1424.98962     624.8701     504.6921   1424.98962     624.8701     504.6921
   1424.97437     623.2511     504.0727   1424.97437     623.2511     504.0727
   1424.95911     623.6483     504.5499   1424.95911     623.6483     504.5499
   1424.94385     623.9970     504.6761   1424.94385     623.9970     504.6761
   1424.92859     624.0603     504.0342   1424.92859     624.0603     504.0342
   1424.91333     624.3494     505.4622   1424.91333     624.3494     505.4622
   1424.89807     625.3982     505.9841   1424.89807     625.3982     505.9841
   1424.88281     625.2115     505.6290   1424.88281     625.2115     505.6290
   1424.86755     624.0106     505.6250   1424.86755     624.0106     505.6250
   1424.85229     624.7255     505.8579   1424.85229     624.7255     505.8579
   1424.83704     625.6805     506.7703   1424.83704     625.6805     506.7703
   1424.82178     624.7822     506.3894   1424.82178     624.7822     506.3894
   1424.80652     626.9693     506.5374   1424.80652     626.9693     506.5374
   1424.79126     626.4048     506.4930   1424.79126     626.4048     506.4930
   1424.77600     625.5759     506.4160   1424.77600     625.5759     506.4160
   1424.76074     625.3183     506.8087   1424.76074     625.3183     506.8087
   1424.74548     626.0201     508.0057   1424.74548     626.0201     508.0057
   1424.73022     625.4214     508.0320   1424.73022     625.4214     508.0320
   1424.71497     625.8373     508.5700   1424.71497     625.8373     508.5700
   1424.69971     626.7088     508.3376   1424.69971     626.7088     508.3376
   1424.68445     625.8729     508.2881   1424.68445     625.8729     508.2881
   1424.66919     626.4286     509.0590   1424.66919     626.4286     509.0590
   1424.65393     625.7722     508.2888   1424.65393     625.7722     508.2888
   1424.63867     626.2154     510.0235   1424.63867     626.2154     510.0235
   1424.62341     626.0078     509.9487   1424.62341     626.0078     509.9487
   1424.60815     625.8126     509.6527   1424.60815     625.8126     509.6527
   1424.59290     626.0171     509.5691   1424.59290     626.0171     509.5691
   1424.57764     626.0851     509.9478   1424.57764     626.0851     509.9478
   1424.56238     625.1154     510.4673   1424.56238     625.1154     510.4673
   1424.54712     624.7479     509.2975   1424.54712     624.7479     509.2975
   1424.53186     624.9687     509.4900   1424.53186     624.9687     509.4900
   1424.51660     624.8454     510.4927   1424.51660     624.8454     510.4927
   1424.50134     625.0118     510.5371   1424.50134     625.0118     510.5371
   1424.48608     625.2684     509.4728   1424.48608     625.2684     509.4728
   1424.47083     624.3869     510.8043   1424.47083     624.3869     510.8043
   1424.45557     623.8743     510.6552   1424.45557     623.8743     510.6552
   1424.44031     624.6760     510.5566   1424.44031     624.6760     510.5566
   1424.42505     624.4041     511.1154   1424.42505     624.4041     511.1154
   1424.40979     624.4588     510.2738   1424.40979     624.4588     510.2738
   1424.39453     623.2645     510.6718   1424.39453     623.2645     510.6718
   1424.37927     622.3151     511.2119   1424.37927     622.3151     511.2119
   1424.36401     623.4912     510.4859   1424.36401     623.4912     510.4859
   1424.34875     622.5834     511.3697   1424.34875     622.5834     511.3697
   1424.33350     622.9335     510.9423   1424.33350     622.9335     510.9423
   1424.31824     622.5986     511.8480   1424.31824     622.5986     511.8480
   1424.30298     621.7803     511.7957   1424.30298     621.7803     511.7957
   1424.28772     620.6660     511.1612   1424.28772     620.6660     511.1612
   1424.27246     620.9721     510.5507   1424.27246     620.9721     510.5507
   1424.25720     620.5120     511.5499   1424.25720     620.5120     511.5499
   1424.24194     621.1205     510.7505   1424.24194     621.1205     510.7505
   1424.22668     620.2351     511.5411   1424.22668     620.2351     511.5411
   1424.21143     619.6639     511.9546   1424.21143     619.6639     511.9546
   1424.19617     619.2012     511.0005   1424.19617     619.2012     511.0005
   1424.18091     618.7504     511.9078   1424.18091     618.7504     511.9078
   1424.16565     618.2065     512.2883   1424.16565     618.2065     512.2883
   1424.15039     618.9637     511.8944   1424.15039     618.9637     511.8944
   1424.13513     617.8887     511.4518   1424.13513     617.8887     511.4518
   1424.11987     617.3298     511.8542   1424.11987     617.3298     511.8542
   1424.10461     617.6423     511.9665   1424.10461     617.6423     511.9665
   1424.08936     616.9474     512.3291   1424.08936     616.9474     512.3291
   1424.07410     616.6939     511.6724   1424.07410     616.6939     511.6724
   1424.05884     615.8072     512.3069   1424.05884     615.8072     512.3069
   1424.04358     615.4286     511.4734   1424.04358     615.4286     511.4734
   1424.02832     614.9601     511.0176   1424.02832     614.9601     511.0176
   1424.01306     615.6833     510.4811   1424.01306     615.6833     510.4811
   1423.99780     614.0372     510.5691   1423.99780     614.0372     510.5691
   1423.98254     613.2887     511.2584   1423.98254     613.2887     511.2584
   1423.96729     613.5892     510.5764   1423.96729     613.5892     510.5764
   1423.95203     614.3687     510.0822   1423.95203     614.3687     510.0822
   1423.93677     613.2352     511.5998   1423.93677     613.2352     511.5998
   1423.92151     611.8813     510.0598   1423.92151     611.8813     510.0598
   1423.90625     612.1940     510.5868   1423.90625     612.1940     510.5868
   1423.89099     611.3716     510.2726   1423.89099     611.3716     510.2726
   1423.87573     611.0498     510.3090   1423.87573     611.0498     510.3090
   1423.86047     610.1999     510.0223   1423.86047     610.1999     510.0223
   1423.84521     609.5415     509.4540   1423.84521     609.5415     509.4540
   1423.82996     608.1790     509.1618   1423.82996     608.1790     509.1618
   1423.81470     609.5027     509.8852   1423.81470     609.5027     509.8852
   1423.79944     609.2829     509.2331   1423.79944     609.2829     509.2331
   1423.78418     609.0697     509.2524   1423.78418     609.0697     509.2524
   1423.76892     609.0256     508.9330   1423.76892     609.0256     508.9330
   1423.75366     607.4976     509.6314   1423.75366     607.4976     509.6314
   1423.73840     607.0217     509.3610   1423.73840     607.0217     509.3610
   1423.72314     605.7980     508.2417   1423.72314     605.7980     508.2417
   1423.70789     606.0308     509.0058   1423.70789     606.0308     509.0058
   1423.69263     606.1984     508.3125   1423.69263     606.1984     508.3125
   1423.67737     604.8649     508.7136   1423.67737     604.8649     508.7136
   1423.66211     605.0187     507.6676   1423.66211     605.0187     507.6676
   1423.64685     605.1006     507.9330   1423.64685     605.1006     507.9330
   1423.63159     603.3271     507.6637   1423.63159     603.3271     507.6637
   1423.61633     602.4647     507.4943   1423.61633     602.4647     507.4943
   1423.60107     603.7225     506.8903   1423.60107     603.7225     506.8903
   1423.58582     602.5102     506.8496   1423.58582     602.5102     506.8496
   1423.57056     602.7041     506.7373   1423.57056     602.7041     506.7373
   1423.55530     602.4879     506.1574   1423.55530     602.4879     506.1574
   1423.54004     600.7420     506.0585   1423.54004     600.7420     506.0585
   1423.52478     600.6633     505.0512   1423.52478     600.6633     505.0512
   1423.50952     600.8782     504.9009   1423.50952     600.8782     504.9009
   1423.49426     599.1536     505.3997   1423.49426     599.1536     505.3997
   1423.47900     599.0991     503.5483   1423.47900     599.0991     503.5483
   1423.46375     599.3961     504.3214   1423.46375     599.3961     504.3214
   1423.44849     598.4987     503.9251   1423.44849     598.4987     503.9251
   1423.43323     599.1841     503.5015   1423.43323     599.1841     503.5015
   1423.41797     597.3487     502.7331   1423.41797     597.3487     502.7331
   1423.40271     597.2145     502.7255   1423.40271     597.2145     502.7255
   1423.38745     596.8957     502.3676   1423.38745     596.8957     502.3676
   1423.37219     597.1218     501.9119   1423.37219     597.1218     501.9119
   1423.35693     596.0216     502.3297   1423.35693     596.0216     502.3297
   1423.34167     594.3402     501.7621   1423.34167     594.3402     501.7621
   1423.32642     596.2391     500.4802   1423.32642     596.2391     500.4802
   1423.31116     593.9051     500.6959   1423.31116     593.9051     500.6959
   1423.29590     594.1853     500.1006   1423.29590     594.1853     500.1006
   1423.28064     593.2401     500.1784   1423.28064     593.2401     500.1784
   1423.26538     593.1898     499.4567   1423.26538     593.1898     499.4567
   1423.25012     593.3537     498.4181   1423.25012     593.3537     498.4181
   1423.23486     592.5899     498.6489   1423.23486     592.5899     498.6489
   1423.21960     592.3954     497.8554   1423.21960     592.3954     497.8554
   1423.20435     592.5856     498.2296   1423.20435     592.5856     498.2296
   1423.18909     591.1046     497.5692   1423.18909     591.1046     497.5692
   1423.17383     590.7192     496.4016   1423.17383     590.7192     496.4016
   1423.15857     591.8437     496.0609   1423.15857     591.8437     496.0609
   1423.14331     591.2818     495.9602   1423.14331     591.2818     495.9602
   1423.12805     589.6552     495.7848   1423.12805     589.6552     495.7848
   1423.11279     590.3263     494.8720   1423.11279     590.3263     494.8720
   1423.09753     588.8107     494.9899   1423.09753     588.8107     494.9899
   1423.08228     589.7589     494.1950   1423.08228     589.7589     494.1950
   1423.06702     588.7427     493.0204   1423.06702     588.7427     493.0204
   1423.05176     587.4068     492.5161   1423.05176     587.4068     492.5161
   1423.03650     588.0989     491.7789   1423.03650     588.0989     491.7789
   1423.02124     587.8498     491.5534   1423.02124     587.8498     491.5534
   1423.00598     587.3697     490.9664   1423.00598     587.3697     490.9664
   1422.99072     587.5135     490.4372   1422.99072     587.5135     490.4372
   1422.97546     586.4060     489.9555   1422.97546     586.4060     489.9555
   1422.96021     586.8145     489.8116   1422.96021     586.8145     489.8116
   1422.94495     585.7425     488.4319   1422.94495     585.7425     488.4319
   1422.92969     585.7895     488.2140   1422.92969     585.7895     488.2140
   1422.91443     586.4060     487.2587   1422.91443     586.4060     487.2587
   1422.89917     585.1066     486.8575   1422.89917     585.1066     486.8575
   1422.88391     584.5400     486.2973   1422.88391     584.5400     486.2973
   1422.86865     584.0342     485.9217   1422.86865     584.0342     485.9217
   1422.85339     584.7014     485.3281   1422.85339     584.7014     485.3281
   1422.83813     583.6989     484.9692   1422.83813     583.6989     484.9692
   1422.82288     584.1892     484.3755   1422.82288     584.1892     484.3755
   1422.80762     583.0606     482.7640   1422.80762     583.0606     482.7640
   1422.79236     583.7445     481.8963   1422.79236     583.7445     481.8963
   1422.77710     582.5820     481.6793   1422.77710     582.5820     481.6793
   1422.76184     583.4631     480.8983   1422.76184     583.4631     480.8983
   1422.74658     582.9164     480.7702   1422.74658     582.9164     480.7702
   1422.73132     581.4927     480.7521   1422.73132     581.4927     480.7521
   1422.71606     582.3038     478.5613   1422.71606     582.3038     478.5613
   1422.70081     581.7708     478.4989   1422.70081     581.7708     478.4989
   1422.68555     582.2544     476.9723   1422.68555     582.2544     476.9723
   1422.67029     582.0148     476.9314   1422.67029     582.0148     476.9314
   1422.65503     580.3719     474.9678   1422.65503     580.3719     474.9678
   1422.63977     579.3338     475.3745   1422.63977     579.3338     475.3745
   1422.62451     579.7333     475.0056   1422.62451     579.7333     475.0056
   1422.60925     580.4863     473.7186   1422.60925     580.4863     473.7186
   1422.59399     579.8552     473.5250   1422.59399     579.8552     473.5250
   1422.57874     579.8693     471.3993   1422.57874     579.8693     471.3993
   1422.56348     579.4935     471.5706   1422.56348     579.4935     471.5706
   1422.54822     579.4417     470.0587   1422.54822     579.4417     470.0587
   1422.53296     579.1807     469.5863   1422.53296     579.1807     469.5863
   1422.51770     579.1583     469.3504   1422.51770     579.1583     469.3504
   1422.50244     578.8549     467.5555   1422.50244     578.8549     467.5555
   1422.48718     578.5446     467.8176   1422.48718     578.5446     467.8176
   1422.47192     578.6116     466.2884   1422.47192     578.6116     466.2884
   1422.45667     577.8987     465.4851   1422.45667     577.8987     465.4851
   1422.44141     577.8452     464.5815   1422.44141     577.8452     464.5815
   1422.42615     577.8555     463.8925   1422.42615     577.8555     463.8925
   1422.41089     577.5681     463.5105   1422.41089     577.5681     463.5105
   1422.39563     577.0518     462.7436   1422.39563     577.0518     462.7436
   1422.38037     576.7087     462.2933   1422.38037     576.7087     462.2933
   1422.36511     577.0735     461.1990   1422.36511     577.0735     461.1990
   1422.34985     576.5687     460.3608   1422.34985     576.5687     460.3608
   1422.33459     576.0115     459.5309   1422.33459     576.0115     459.5309
   1422.31934     575.5850     458.4280   1422.31934     575.5850     458.4280
   1422.30408     576.8367     458.1598   1422.30408     576.8367     458.1598
   1422.28882     576.0546     456.6877   1422.28882     576.0546     456.6877
   1422.27356     576.0496     455.5411   1422.27356     576.0496     455.5411
   1422.25830     575.4912     454.9319   1422.25830     575.4912     454.9319
   1422.24304     576.6342     457.1306   1422.24304     576.6342     457.1306
   1422.22778     575.3428     454.0765   1422.22778     575.3428     454.0765
   1422.21252     575.6438     452.9861   1422.21252     575.6438     452.9861
   1422.19727     576.4508     451.1369   1422.19727     576.4508     451.1369
   1422.18201     575.4222     450.5403   1422.18201     575.4222     450.5403
   1422.16675     574.8935     449.1589   1422.16675     574.8935     449.1589
   1422.15149     576.2943     448.7243   1422.15149     576.2943     448.7243
   1422.13623     574.3545     448.1772   1422.13623     574.3545     448.1772
   1422.12097     574.4241     446.6718   1422.12097     574.4241     446.6718
   1422.10571     573.7502     445.7353   1422.10571     573.7502     445.7353
   1422.09045     574.8416     444.6646   1422.09045     574.8416     444.6646
   1422.07520     575.1240     444.8040   1422.07520     575.1240     444.8040
   1422.05994     574.1769     443.0558   1422.05994     574.1769     443.0558
   1422.04468     574.1823     442.4065   1422.04468     574.1823     442.4065
   1422.02942     574.0354     441.3102   1422.02942     574.0354     441.3102
   1422.01416     574.2600     441.1478   1422.01416     574.2600     441.1478
   1421.99890     573.7979     439.6459   1421.99890     573.7979     439.6459
   1421.98364     573.8806     438.7401   1421.98364     573.8806     438.7401
   1421.96838     573.2203     437.7827   1421.96838     573.2203     437.7827
   1421.95312     574.3590     437.3034   1421.95312     574.3590     437.3034
   1421.93787     572.6839     435.7207   1421.93787     572.6839     435.7207
   1421.92261     573.2137     435.2769   1421.92261     573.2137     435.2769
   1421.90735     573.8054     434.3608   1421.90735     573.8054     434.3608
   1421.89209     572.9128     433.3316   1421.89209     572.9128     433.3316
   1421.87683     572.4054     432.5567   1421.87683     572.4054     432.5567
   1421.86157     572.9302     431.1088   1421.86157     572.9302     431.1088
   1421.84631     572.5042     431.1799   1421.84631     572.5042     431.1799
   1421.83105     572.6068     429.1959   1421.83105     572.6068     429.1959
   1421.81580     572.7202     428.5235   1421.81580     572.7202     428.5235
   1421.80054     572.8287     427.6504   1421.80054     572.8287     427.6504
   1421.78528     571.7935     426.6852   1421.78528     571.7935     426.6852
   1421.77002     571.7815     426.0168   1421.77002     571.7815     426.0168
   1421.75476     572.3681     424.8381   1421.75476     572.3681     424.8381
   1421.73950     571.6441     424.1982   1421.73950     571.6441     424.1982
   1421.72424     572.3765     423.0195   1421.72424     572.3765     423.0195
   1421.70898     572.7070     421.4932   1421.70898     572.7070     421.4932
   1421.69373     572.0577     420.9353   1421.69373     572.0577     420.9353
   1421.67847     571.7045     419.4219   1421.67847     571.7045     419.4219
   1421.66321     571.8607     418.9894   1421.66321     571.8607     418.9894
   1421.64795     571.8777     418.0676   1421.64795     571.8777     418.0676
   1421.63269     571.3643     416.5740   1421.63269     571.3643     416.5740
   1421.61743     572.1064     416.3823   1421.61743     572.1064     416.3823
   1421.60217     572.1856     414.9609   1421.60217     572.1856     414.9609
   1421.58691     571.3273     414.1954   1421.58691     571.3273     414.1954
   1421.57166     571.2627     413.7975   1421.57166     571.2627     413.7975
   1421.55640     570.8458     412.7551   1421.55640     570.8458     412.7551
   1421.54114     571.2783     411.7070   1421.54114     571.2783     411.7070
   1421.52588     570.7650     410.8423   1421.52588     570.7650     410.8423
   1421.51062     570.2112     410.4837   1421.51062     570.2112     410.4837
   1421.49536     571.0490     409.4842   1421.49536     571.0490     409.4842
   1421.48010     571.0123     408.1499   1421.48010     571.0123     408.1499
   1421.46484     570.5962     407.5843   1421.46484     570.5962     407.5843
   1421.44958     570.4470     406.1791   1421.44958     570.4470     406.1791
   1421.43433     570.3372     405.0796   1421.43433     570.3372     405.0796
   1421.41907     570.5358     404.5681   1421.41907     570.5358     404.5681
   1421.40381     570.3700     403.3612   1421.40381     570.3700     403.3612
   1421.38855     570.2677     402.7027   1421.38855     570.2677     402.7027
   1421.37329     570.2620     402.0782   1421.37329     570.2620     402.0782
   1421.35803     570.0634     401.5345   1421.35803     570.0634     401.5345
   1421.34277     569.9371     399.8517   1421.34277     569.9371     399.8517
   1421.32751     570.3394     399.4612   1421.32751     570.3394     399.4612
   1421.31226     570.3297     398.7041   1421.31226     570.3297     398.7041
   1421.29700     569.2949     397.3024   1421.29700     569.2949     397.3024
   1421.28174     569.8193     396.5555   1421.28174     569.8193     396.5555
   1421.26648     570.4689     395.5606   1421.26648     570.4689     395.5606
   1421.25122     569.4800     395.3854   1421.25122     569.4800     395.3854
   1421.23596     570.1353     394.6021   1421.23596     570.1353     394.6021
   1421.22070     570.4683     394.1036   1421.22070     570.4683     394.1036
   1421.20544     571.0409     393.5147   1421.20544     571.0409     393.5147
   1421.19019     570.6851     392.6715   1421.19019     570.6851     392.6715
   1421.17493     571.4382     392.2272   1421.17493     571.4382     392.2272
   1421.15967     572.0795     392.0423   1421.15967     572.0795     392.0423
   1421.14441     572.8974     391.3567   1421.14441     572.8974     391.3567
   1421.12915     572.1861     390.3227   1421.12915     572.1861     390.3227
   1421.11389     572.9525     389.8925   1421.11389     572.9525     389.8925
   1421.09863     572.3127     389.1965   1421.09863     572.3127     389.1965
   1421.08337     572.9291     387.9612   1421.08337     572.9291     387.9612
   1421.06812     572.8767     387.8515   1421.06812     572.8767     387.8515
   1421.05286     572.9689     386.6385   1421.05286     572.9689     386.6385
   1421.03760     570.9040     385.8998   1421.03760     570.9040     385.8998
   1421.02234     571.7901     384.8842   1421.02234     571.7901     384.8842
   1421.00708     571.9424     383.3250   1421.00708     571.9424     383.3250
   1420.99182     571.6979     383.5862   1420.99182     571.6979     383.5862
   1420.97656     572.3135     383.1352   1420.97656     572.3135     383.1352
   1420.96130     574.8273     383.6424   1420.96130     574.8273     383.6424
   1420.94604     578.6511     385.2850   1420.94604     578.6511     385.2850
   1420.93079     584.5590     387.9916   1420.93079     584.5590     387.9916
   1420.91553     598.1758     396.5843   1420.91553     598.1758     396.5843
   1420.90027     627.1005     415.2504   1420.90027     627.1005     415.2504
   1420.88501     666.5781     438.9490   1420.88501     666.5781     438.9490
   1420.86975     722.8818     474.5235   1420.86975     722.8818     474.5235
   1420.85449     819.0811     534.9518   1420.85449     819.0811     534.9518
   1420.83923     835.6954     543.9998   1420.83923     835.6954     543.9998
   1420.82397     785.6307     511.6687   1420.82397     785.6307     511.6687
   1420.80872     806.6729     523.9487   1420.80872     806.6729     523.9487
   1420.79346     877.3115     568.1240   1420.79346     877.3115     568.1240
   1420.77820     858.2521     555.5712   1420.77820     858.2521     555.5712
   1420.76294     809.2568     522.7446   1420.76294     809.2568     522.7446
   1420.74768     772.2983     498.4626   1420.74768     772.2983     498.4626
   1420.73242     782.2148     502.8714   1420.73242     782.2148     502.8714
   1420.71716     916.1090     587.3619   1420.71716     916.1090     587.3619
   1420.70190    1195.3280     762.5948   1420.70190    1195.3280     762.5948
   1420.68665    1459.2589     927.1840   1420.68665    1459.2589     927.1840
   1420.67139    1592.5959    1006.9060   1420.67139    1592.5959    1006.9060
   1420.65613    1676.5377    1055.4908   1420.65613    1676.5377    1055.4908
   1420.64087    1748.5392    1100.5383   1420.64087    1748.5392    1100.5383
   1420.62561    1720.1370    1082.3181   1420.62561    1720.1370    1082.3181
   1420.61035    1774.0616    1113.7612   1420.61035    1774.0616    1113.7612
   1420.59509    1876.1697    1172.7198   1420.59509    1876.1697    1172.7198
   1420.57983    1792.3950    1120.5951   1420.57983    1792.3950    1120.5951
   1420.56458    1464.2068     913.3981   1420.56458    1464.2068     913.3981
   1420.54932    1208.5094     755.2110   1420.54932    1208.5094     755.2110
   1420.53406    1112.3848     696.2054   1420.53406    1112.3848     696.2054
   1420.51880    1069.8628     668.4090   1420.51880    1069.8628     668.4090
   1420.50354    1028.6196     642.8356   1420.50354    1028.6196     642.8356
   1420.48828    1012.9071     631.6047   1420.48828    1012.9071     631.6047
   1420.47302    1048.2208     652.4385   1420.47302    1048.2208     652.4385
   1420.45776    1119.8929     693.8804   1420.45776    1119.8929     693.8804
   1420.44250    1269.4497     783.1077   1420.44250    1269.4497     783.1077
   1420.42725    1401.3962     863.4142   1420.42725    1401.3962     863.4142
   1420.41199    1383.8052     850.6437   1420.41199    1383.8052     850.6437
   1420.39673     965.2301     595.9855   1420.39673     965.2301     595.9855
   1420.38147     695.6757     431.5601   1420.38147     695.6757     431.5601
   1420.36621     619.4795     384.8921   1420.36621     619.4795     384.8921
   1420.35095     593.8204     368.8074   1420.35095     593.8204     368.8074
   1420.33569     582.9240     361.3753   1420.33569     582.9240     361.3753
   1420.32043     575.6748     357.6347   1420.32043     575.6748     357.6347
   1420.30518     571.1529     354.5852   1420.30518     571.1529     354.5852
   1420.28992     569.9265     353.3390   1420.28992     569.9265     353.3390
   1420.27466     567.2772     351.2615   1420.27466     567.2772     351.2615
   1420.25940     566.5195     350.8713   1420.25940     566.5195     350.8713
   1420.24414     566.4854     349.3579   1420.24414     566.4854     349.3579
   1420.22888     566.0182     348.6302   1420.22888     566.0182     348.6302
   1420.21362     564.8145     347.2344   1420.21362     564.8145     347.2344
   1420.19836     563.5232     345.8786   1420.19836     563.5232     345.8786
   1420.18311     562.4324     345.2997   1420.18311     562.4324     345.2997
   1420.16785     562.4450     343.9224   1420.16785     562.4450     343.9224
   1420.15259     561.5352     343.6707   1420.15259     561.5352     343.6707
   1420.13733     561.1497     342.6162   1420.13733     561.1497     342.6162
   1420.12207     560.5636     342.1683   1420.12207     560.5636     342.1683
   1420.10681     560.4403     341.6300   1420.10681     560.4403     341.6300
   1420.09155     559.1558     341.2774   1420.09155     559.1558     341.2774
   1420.07629     558.3897     340.3129   1420.07629     558.3897     340.3129
   1420.06104     558.3549     339.9872   1420.06104     558.3549     339.9872
   1420.04578     558.8979     339.4796   1420.04578     558.8979     339.4796
   1420.03052     558.6263     339.6659   1420.03052     558.6263     339.6659
   1420.01526     560.9619     341.2769   1420.01526     560.9619     341.2769
   1420.00000     561.1210     341.4630   1420.00000     561.1210     341.4630
   1419.98474     561.2796     341.6493   1419.98474     561.2796     341.6493
   1419.96948     561.3482     338.6421   1419.96948     561.3482     338.6421
   1419.95422     558.7238     337.5918   1419.95422     558.7238     337.5918
   1419.93896     558.0518     337.2454   1419.93896     558.0518     337.2454
   1419.92371     558.2020     336.5833   1419.92371     558.2020     336.5833
   1419.90845     558.1861     336.3839   1419.90845     558.1861     336.3839
   1419.89319     558.0169     335.8919   1419.89319     558.0169     335.8919
   1419.87793     557.9110     335.3859   1419.87793     557.9110     335.3859
   1419.86267     558.3836     335.0504   1419.86267     558.3836     335.0504
   1419.84741     558.2239     335.0877   1419.84741     558.2239     335.0877
   1419.83215     557.9951     335.0819   1419.83215     557.9951     335.0819
   1419.81689     558.2462     333.9839   1419.81689     558.2462     333.9839
   1419.80164     557.9886     333.9361   1419.80164     557.9886     333.9361
   1419.78638     558.3378     334.0640   1419.78638     558.3378     334.0640
   1419.77112     558.2057     333.9917   1419.77112     558.2057     333.9917
   1419.75586     557.9192     334.0199   1419.75586     557.9192     334.0199
   1419.74060     558.4561     333.2216   1419.74060     558.4561     333.2216
   1419.72534     558.9832     332.8416   1419.72534     558.9832     332.8416
   1419.71008     558.8123     333.0037   1419.71008     558.8123     333.0037
   1419.69482     558.5087     333.0401   1419.69482     558.5087     333.0401
   1419.67957     558.8311     333.0061   1419.67957     558.8311     333.0061
   1419.66431     558.9384     332.3021   1419.66431     558.9384     332.3021
   1419.64905     559.5042     332.1751   1419.64905     559.5042     332.1751
   1419.63379     559.1086     332.2183   1419.63379     559.1086     332.2183
   1419.61853     559.4201     332.1281   1419.61853     559.4201     332.1281
   1419.60327     559.9589     331.9585   1419.60327     559.9589     331.9585
   1419.58801     559.6826     331.6363   1419.58801     559.6826     331.6363
   1419.57275     560.0306     332.0580   1419.57275     560.0306     332.0580
   1419.55750     559.3568     331.9506   1419.55750     559.3568     331.9506
   1419.54224     559.6919     331.7815   1419.54224     559.6919     331.7815
   1419.52698     560.2991     331.9307   1419.52698     560.2991     331.9307
   1419.51172     561.5546     331.6420   1419.51172     561.5546     331.6420
   1419.49646     560.9277     331.8164   1419.49646     560.9277     331.8164
   1419.48120     561.0909     331.5379   1419.48120     561.0909     331.5379
   1419.46594     561.0190     332.0570   1419.46594     561.0190     332.0570
   1419.45068     560.6453     331.7719   1419.45068     560.6453     331.7719
   1419.43542     561.8262     331.8164   1419.43542     561.8262     331.8164
   1419.42017     561.9906     331.6297   1419.42017     561.9906     331.6297
   1419.40491     562.1959     331.6399   1419.40491     562.1959     331.6399
   1419.38965     562.6255     332.3218   1419.38965     562.6255     332.3218
   1419.37439     562.3200     331.7948   1419.37439     562.3200     331.7948
   1419.35913     563.0330     331.6031   1419.35913     563.0330     331.6031
   1419.34387     563.4701     332.0946   1419.34387     563.4701     332.0946
   1419.32861     562.8928     331.8866   1419.32861     562.8928     331.8866
   1419.31335     563.7905     332.0240   1419.31335     563.7905     332.0240
   1419.29810     564.4598     332.1222   1419.29810     564.4598     332.1222
   1419.28284     564.4412     332.6550   1419.28284     564.4412     332.6550
   1419.26758     566.1126     332.8835   1419.26758     566.1126     332.8835
   1419.25232     565.4875     332.8607   1419.25232     565.4875     332.8607
   1419.23706     565.3334     333.4008   1419.23706     565.3334     333.4008
   1419.22180     565.1544     332.4948   1419.22180     565.1544     332.4948
   1419.20654     565.6005     332.8302   1419.20654     565.6005     332.8302
   1419.19128     565.8487     333.7364   1419.19128     565.8487     333.7364
   1419.17603     566.6975     333.4156   1419.17603     566.6975     333.4156
   1419.16077     566.6573     334.3397   1419.16077     566.6573     334.3397
   1419.14551     567.6980     334.4339   1419.14551     567.6980     334.4339
   1419.13025     566.4546     334.3566   1419.13025     566.4546     334.3566
   1419.11499     567.8309     334.8533   1419.11499     567.8309     334.8533
   1419.09973     568.0059     334.5938   1419.09973     568.0059     334.5938
   1419.08447     568.6071     334.6352   1419.08447     568.6071     334.6352
   1419.06921     568.4080     335.1017   1419.06921     568.4080     335.1017
   1419.05396     569.9439     335.8364   1419.05396     569.9439     335.8364
   1419.03870     569.3724     335.9503   1419.03870     569.3724     335.9503
   1419.02344     570.4386     336.0799   1419.02344     570.4386     336.0799
   1419.00818     569.0614     336.3445   1419.00818     569.0614     336.3445
   1418.99292     570.7636     336.0522   1418.99292     570.7636     336.0522
   1418.97766     571.0014     337.3352   1418.97766     571.0014     337.3352
   1418.96240     571.8149     337.5666   1418.96240     571.8149     337.5666
   1418.94714     571.5843     337.6296   1418.94714     571.5843     337.6296
   1418.93188     572.1603     338.0537   1418.93188     572.1603     338.0537
   1418.91663     572.6341     338.3998   1418.91663     572.6341     338.3998
   1418.90137     573.8088     338.7659   1418.90137     573.8088     338.7659
   1418.88611     574.1904     339.4080   1418.88611     574.1904     339.4080
   1418.87085     573.8422     339.3460   1418.87085     573.8422     339.3460
   1418.85559     574.4641     340.2711   1418.85559     574.4641     340.2711
   1418.84033     575.4340     340.6317   1418.84033     575.4340     340.6317
   1418.82507     574.9995     340.2269   1418.82507     574.9995     340.2269
   1418.80981     574.6639     341.1153   1418.80981     574.6639     341.1153
   1418.79456     576.1235     342.0754   1418.79456     576.1235     342.0754
   1418.77930     576.9561     342.2558   1418.77930     576.9561     342.2558
   1418.76404     577.9062     342.8058   1418.76404     577.9062     342.8058
   1418.74878     577.2028     343.4452   1418.74878     577.2028     343.4452
   1418.73352     578.6503     342.9164   1418.73352     578.6503     342.9164
   1418.71826     579.1550     343.7422   1418.71826     579.1550     343.7422
   1418.70300     578.8492     344.1973   1418.70300     578.8492     344.1973
   1418.68774     579.9433     344.7592   1418.68774     579.9433     344.7592
   1418.67249     580.4896     345.4355   1418.67249     580.4896     345.4355
   1418.65723     581.1321     346.1555   1418.65723     581.1321     346.1555
   1418.64197     581.7424     346.6265   1418.64197     581.7424     346.6265
   1418.62671     581.6147     347.3235   1418.62671     581.6147     347.3235
   1418.61145     582.2900     347.5244   1418.61145     582.2900     347.5244
   1418.59619     582.7474     348.3907   1418.59619     582.7474     348.3907
   1418.58093     583.3779     349.5256   1418.58093     583.3779     349.5256
   1418.56567     583.5407     349.7519   1418.56567     583.5407     349.7519
   1418.55042     584.0573     349.9252   1418.55042     584.0573     349.9252
   1418.53516     583.9818     350.6623   1418.53516     583.9818     350.6623
   1418.51990     585.7723     351.4719   1418.51990     585.7723     351.4719
   1418.50464     585.4078     351.6446   1418.50464     585.4078     351.6446
   1418.48938     585.8807     352.9002   1418.48938     585.8807     352.9002
   1418.47412     587.7661     353.3975   1418.47412     587.7661     353.3975
   1418.45886     587.5215     353.8582   1418.45886     587.5215     353.8582
   1418.44360     588.2712     354.3569   1418.44360     588.2712     354.3569
   1418.42834     588.3730     355.2197   1418.42834     588.3730     355.2197
   1418.41309     589.6428     356.0576   1418.41309     589.6428     356.0576
   1418.39783     589.8158     357.0506   1418.39783     589.8158     357.0506
   1418.38257     590.7436     357.3260   1418.38257     590.7436     357.3260
   1418.36731     592.1915     357.4539   1418.36731     592.1915     357.4539
   1418.35205     592.2264     358.9254   1418.35205     592.2264     358.9254
   1418.33679     593.2527     359.6590   1418.33679     593.2527     359.6590
   1418.32153     593.8467     360.9964   1418.32153     593.8467     360.9964
   1418.30627     594.1667     360.3048   1418.30627     594.1667     360.3048
   1418.29102     594.8111     361.9262   1418.29102     594.8111     361.9262
   1418.27576     596.3979     362.2326   1418.27576     596.3979     362.2326
   1418.26050     595.6389     363.2781   1418.26050     595.6389     363.2781
   1418.24524     596.7521     364.0656   1418.24524     596.7521     364.0656
   1418.22998     597.7791     364.7926   1418.22998     597.7791     364.7926
   1418.21472     598.3264     365.7852   1418.21472     598.3264     365.7852
   1418.19946     598.9193     366.4384   1418.19946     598.9193     366.4384
   1418.18420     600.3314     367.4343   1418.18420     600.3314     367.4343
   1418.16895     600.0274     367.5985   1418.16895     600.0274     367.5985
   1418.15369     600.2758     369.0914   1418.15369     600.2758     369.0914
   1418.13843     601.9616     369.7008   1418.13843     601.9616     369.7008
   1418.12317     602.3447     369.9147   1418.12317     602.3447     369.9147
   1418.10791     603.0228     372.1426   1418.10791     603.0228     372.1426
   1418.09265     603.7947     372.1435   1418.09265     603.7947     372.1435
   1418.07739     604.2067     373.2774   1418.07739     604.2067     373.2774
   1418.06213     604.7702     373.9939   1418.06213     604.7702     373.9939
   1418.04688     604.2084     375.4766   1418.04688     604.2084     375.4766
   1418.03162     605.8605     376.0685   1418.03162     605.8605     376.0685
   1418.01636     606.4453     376.9191   1418.01636     606.4453     376.9191
   1418.00110     609.1478     377.6935   1418.00110     609.1478     377.6935
   1417.98584     609.3518     379.0954   1417.98584     609.3518     379.0954
   1417.97058     608.9730     380.3035   1417.97058     608.9730     380.3035
   1417.95532     609.7949     380.6511   1417.95532     609.7949     380.6511
   1417.94006     610.8469     381.1316   1417.94006     610.8469     381.1316
   1417.92480     611.5167     382.7325   1417.92480     611.5167     382.7325
   1417.90955     612.4056     383.4020   1417.90955     612.4056     383.4020
   1417.89429     612.7917     383.9150   1417.89429     612.7917     383.9150
   1417.87903     612.8469     385.4843   1417.87903     612.8469     385.4843
   1417.86377     615.1740     386.1872   1417.86377     615.1740     386.1872
   1417.84851     615.2682     387.4816   1417.84851     615.2682     387.4816
   1417.83325     615.4364     388.3284   1417.83325     615.4364     388.3284
   1417.81799     616.0765     389.2931   1417.81799     616.0765     389.2931
   1417.80273     618.2112     390.1592   1417.80273     618.2112     390.1592
   1417.78748     617.6850     391.3154   1417.78748     617.6850     391.3154
   1417.77222     618.5175     392.9003   1417.77222     618.5175     392.9003
   1417.75696     620.8906     392.9207   1417.75696     620.8906     392.9207
   1417.74170     620.5635     394.0294   1417.74170     620.5635     394.0294
   1417.72644     621.4700     395.6074   1417.72644     621.4700     395.6074
   1417.71118     622.0662     396.5600   1417.71118     622.0662     396.5600
   1417.69592     622.7661     397.5000   1417.69592     622.7661     397.5000
   1417.68066     623.1808     398.9010   1417.68066     623.1808     398.9010
   1417.66541     624.6172     399.7791   1417.66541     624.6172     399.7791
   1417.65015     624.9955     400.8813   1417.65015     624.9955     400.8813
   1417.63489     626.3213     401.8082   1417.63489     626.3213     401.8082
   1417.61963     626.4258     402.8922   1417.61963     626.4258     402.8922
   1417.60437     626.9514     404.2957   1417.60437     626.9514     404.2957
   1417.58911     627.2761     404.5656   1417.58911     627.2761     404.5656
   1417.57385     627.8839     406.0407   1417.57385     627.8839     406.0407
   1417.55859     629.3754     407.1371   1417.55859     629.3754     407.1371
   1417.54333     629.6038     408.5120   1417.54333     629.6038     408.5120
   1417.52808     630.8474     408.9191   1417.52808     630.8474     408.9191
   1417.51282     631.8030     409.6349   1417.51282     631.8030     409.6349
   1417.49756     632.1577     412.0679   1417.49756     632.1577     412.0679
   1417.48230     633.3244     412.5699   1417.48230     633.3244     412.5699
   1417.46704     633.5829     413.1750   1417.46704     633.5829     413.1750
   1417.45178     634.9361     414.8925   1417.45178     634.9361     414.8925
   1417.43652     634.2715     414.9157   1417.43652     634.2715     414.9157
   1417.42126     634.7871     416.5646   1417.42126     634.7871     416.5646
   1417.40601     636.7203     417.7406   1417.40601     636.7203     417.7406
   1417.39075     636.4246     417.9627   1417.39075     636.4246     417.9627
   1417.37549     638.2145     419.6841   1417.37549     638.2145     419.6841
   1417.36023     638.6711     420.6177   1417.36023     638.6711     420.6177
   1417.34497     639.0292     422.2101   1417.34497     639.0292     422.2101
   1417.32971     638.7906     422.8070   1417.32971     638.7906     422.8070
   1417.31445     639.4086     423.9924   1417.31445     639.4086     423.9924
   1417.29919     640.4960     424.6877   1417.29919     640.4960     424.6877
   1417.28394     640.7470     425.4857   1417.28394     640.7470     425.4857
   1417.26868     642.3464     426.4077   1417.26868     642.3464     426.4077
   1417.25342     643.4728     427.1339   1417.25342     643.4728     427.1339
   1417.23816     642.7654     428.9915   1417.23816     642.7654     428.9915
   1417.22290     644.3452     430.7850   1417.22290     644.3452     430.7850
   1417.20764     644.0736     431.6239   1417.20764     644.0736     431.6239
   1417.19238     645.8576     432.0779   1417.19238     645.8576     432.0779
   1417.17712     645.8020     432.8827   1417.17712     645.8020     432.8827
   1417.16187     647.0225     433.9872   1417.16187     647.0225     433.9872
   1417.14661     647.1467     434.6888   1417.14661     647.1467     434.6888
   1417.13135     648.7075     436.0905   1417.13135     648.7075     436.0905
   1417.11609     648.0107     437.5458   1417.11609     648.0107     437.5458
   1417.10083     648.8813     437.6680   1417.10083     648.8813     437.6680
   1417.08557     649.6564     438.5590   1417.08557     649.6564     438.5590
   1417.07031     649.4246     439.3409   1417.07031     649.4246     439.3409
   1417.05505     649.8939     441.2392   1417.05505     649.8939     441.2392
   1417.03979     650.3522     441.8684   1417.03979     650.3522     441.8684
   1417.02454     651.5785     443.0997   1417.02454     651.5785     443.0997
   1417.00928     652.5723     444.3922   1417.00928     652.5723     444.3922
   1416.99402     652.3904     444.4123   1416.99402     652.3904     444.4123
   1416.97876     654.2737     445.2524   1416.97876     654.2737     445.2524
   1416.96350     654.3572     446.3875   1416.96350     654.3572     446.3875
   1416.94824     653.3246     447.5382   1416.94824     653.3246     447.5382
   1416.93298     654.6990     448.3929   1416.93298     654.6990     448.3929
   1416.91772     653.7993     449.2752   1416.91772     653.7993     449.2752
   1416.90247     655.9733     449.9987   1416.90247     655.9733     449.9987
   1416.88721     655.4171     449.9096   1416.88721     655.4171     449.9096
   1416.87195     654.8632     451.2079   1416.87195     654.8632     451.2079
   1416.85669     656.5059     451.5520   1416.85669     656.5059     451.5520
   1416.84143     656.2221     452.5689   1416.84143     656.2221     452.5689
   1416.82617     656.7421     453.5583   1416.82617     656.7421     453.5583
   1416.81091     656.0350     453.6714   1416.81091     656.0350     453.6714
   1416.79565     658.4675     455.2365   1416.79565     658.4675     455.2365
   1416.78040     657.0204     455.4905   1416.78040     657.0204     455.4905
   1416.76514     657.6161     455.8460   1416.76514     657.6161     455.8460
   1416.74988     658.5539     456.0953   1416.74988     658.5539     456.0953
   1416.73462     657.8853     457.1436   1416.73462     657.8853     457.1436
   1416.71936     658.8695     457.5438   1416.71936     658.8695     457.5438
   1416.70410     659.3493     458.0655   1416.70410     659.3493     458.0655
   1416.68884     659.4476     458.7021   1416.68884     659.4476     458.7021
   1416.67358     658.8721     459.1548   1416.67358     658.8721     459.1548
   1416.65833     659.8298     459.3689   1416.65833     659.8298     459.3689
   1416.64307     659.5214     460.4907   1416.64307     659.5214     460.4907
   1416.62781     659.5674     461.1008   1416.62781     659.5674     461.1008
   1416.61255     660.5294     462.1756   1416.61255     660.5294     462.1756
   1416.59729     662.5377     461.1333   1416.59729     662.5377     461.1333
   1416.58203     660.5600     462.3306   1416.58203     660.5600     462.3306
   1416.56677     659.9749     461.9677   1416.56677     659.9749     461.9677
   1416.55151     659.1332     462.4008   1416.55151     659.1332     462.4008
   1416.53625     660.3261     463.3809   1416.53625     660.3261     463.3809
   1416.52100     660.7562     463.5933   1416.52100     660.7562     463.5933
   1416.50574     660.7112     463.4724   1416.50574     660.7112     463.4724
   1416.49048     660.4894     463.8585   1416.49048     660.4894     463.8585
   1416.47522     660.0667     463.1593   1416.47522     660.0667     463.1593
   1416.45996     659.7351     464.5280   1416.45996     659.7351     464.5280
   1416.44470     660.8917     464.5327   1416.44470     660.8917     464.5327
   1416.42944     659.5068     464.1967   1416.42944     659.5068     464.1967
   1416.41418     660.3629     463.7120   1416.41418     660.3629     463.7120
   1416.39893     660.0518     465.5329   1416.39893     660.0518     465.5329
   1416.38367     659.0538     464.0269   1416.38367     659.0538     464.0269
   1416.36841     659.7299     464.8236   1416.36841     659.7299     464.8236
   1416.35315     659.2034     464.8122   1416.35315     659.2034     464.8122
   1416.33789     659.2074     464.4866   1416.33789     659.2074     464.4866
   1416.32263     659.8186     464.4809   1416.32263     659.8186     464.4809
   1416.30737     657.7228     464.4707   1416.30737     657.7228     464.4707
   1416.29211     659.0103     464.9965   1416.29211     659.0103     464.9965
   1416.27686     658.2206     465.3356   1416.27686     658.2206     465.3356
   1416.26160     658.8099     464.0100   1416.26160     658.8099     464.0100
   1416.24634     658.6842     465.2063   1416.24634     658.6842     465.2063
   1416.23108     659.2982     463.6560   1416.23108     659.2982     463.6560
   1416.21582     659.9174     464.0303   1416.21582     659.9174     464.0303
   1416.20056     657.2384     462.8601   1416.20056     657.2384     462.8601
   1416.18530     656.7153     463.2924   1416.18530     656.7153     463.2924
   1416.17004     656.9235     463.7319   1416.17004     656.9235     463.7319
   1416.15479     655.7141     462.5930   1416.15479     655.7141     462.5930
   1416.13953     655.2191     462.6200   1416.13953     655.2191     462.6200
   1416.12427     655.1874     462.1628   1416.12427     655.1874     462.1628
   1416.10901     655.4706     463.2273   1416.10901     655.4706     463.2273
   1416.09375     654.6138     462.3349   1416.09375     654.6138     462.3349
   1416.07849     653.2020     460.8971   1416.07849     653.2020     460.8971
   1416.06323     653.3578     461.4004   1416.06323     653.3578     461.4004
   1416.04797     652.8519     460.6035   1416.04797     652.8519     460.6035
   1416.03271     653.3820     460.9297   1416.03271     653.3820     460.9297
   1416.01746     652.3312     460.5502   1416.01746     652.3312     460.5502
   1416.00220     651.8944     460.2036   1416.00220     651.8944     460.2036
   1415.98694     651.1169     459.8138   1415.98694     651.1169     459.8138
   1415.97168     650.9230     459.1775   1415.97168     650.9230     459.1775
   1415.95642     649.7454     459.0566   1415.95642     649.7454     459.0566
   1415.94116     650.0978     457.9399   1415.94116     650.0978     457.9399
   1415.92590     649.6683     457.7269   1415.92590     649.6683     457.7269
   1415.91064     648.3910     456.8043   1415.91064     648.3910     456.8043
   1415.89539     647.5905     456.1564   1415.89539     647.5905     456.1564
   1415.88013     647.8726     456.2979   1415.88013     647.8726     456.2979
   1415.86487     647.5605     455.3274   1415.86487     647.5605     455.3274
   1415.84961     646.9885     454.3438   1415.84961     646.9885     454.3438
   1415.83435     648.0283     454.8696   1415.83435     648.0283     454.8696
   1415.81909     644.7974     454.0785   1415.81909     644.7974     454.0785
   1415.80383     644.6901     452.9465   1415.80383     644.6901     452.9465
   1415.78857     644.7131     452.6214   1415.78857     644.7131     452.6214
   1415.77332     642.9097     451.7878   1415.77332     642.9097     451.7878
   1415.75806     642.1219     451.8680   1415.75806     642.1219     451.8680
   1415.74280     642.2327     450.8371   1415.74280     642.2327     450.8371
   1415.72754     641.0125     450.8684   1415.72754     641.0125     450.8684
   1415.71228     641.7272     449.0492   1415.71228     641.7272     449.0492
   1415.69702     640.3767     449.4547   1415.69702     640.3767     449.4547
   1415.68176     639.3226     448.2523   1415.68176     639.3226     448.2523
   1415.66650     640.0190     448.3085   1415.66650     640.0190     448.3085
   1415.65125     638.6192     447.7525   1415.65125     638.6192     447.7525
   1415.63599     638.2984     447.1237   1415.63599     638.2984     447.1237
   1415.62073     636.9388     445.8248   1415.62073     636.9388     445.8248
   1415.60547     636.1091     445.2541   1415.60547     636.1091     445.2541
   1415.59021     635.0068     445.5074   1415.59021     635.0068     445.5074
   1415.57495     634.6609     444.0836   1415.57495     634.6609     444.0836
   1415.55969     633.8414     443.1970   1415.55969     633.8414     443.1970
   1415.54443     632.9231     443.0109   1415.54443     632.9231     443.0109
   1415.52917     632.0300     442.3599   1415.52917     632.0300     442.3599
   1415.51392     631.8917     440.8199   1415.51392     631.8917     440.8199
   1415.49866     629.4052     440.9089   1415.49866     629.4052     440.9089
   1415.48340     629.8666     439.7270   1415.48340     629.8666     439.7270
   1415.46814     629.3831     439.8072   1415.46814     629.3831     439.8072
   1415.45288     632.5977     438.0299   1415.45288     632.5977     438.0299
   1415.43762     627.9535     438.1487   1415.43762     627.9535     438.1487
   1415.42236     626.2181     436.4489   1415.42236     626.2181     436.4489
   1415.40710     624.6425     436.2392   1415.40710     624.6425     436.2392
   1415.39185     623.9575     436.0326   1415.39185     623.9575     436.0326
   1415.37659     623.3132     435.5608   1415.37659     623.3132     435.5608
   1415.36133     622.3316     434.1012   1415.36133     622.3316     434.1012
   1415.34607     621.8892     433.0640   1415.34607     621.8892     433.0640
   1415.33081     620.3647     432.8558   1415.33081     620.3647     432.8558
   1415.31555     619.9185     431.3568   1415.31555     619.9185     431.3568
   1415.30029     618.7070     431.0472   1415.30029     618.7070     431.0472
   1415.28503     617.8359     430.8351   1415.28503     617.8359     430.8351
   1415.26978     616.1814     429.3778   1415.26978     616.1814     429.3778
   1415.25452     615.4117     427.9090   1415.25452     615.4117     427.9090
   1415.23926     614.9661     427.5455   1415.23926     614.9661     427.5455
   1415.22400     613.0048     426.8026   1415.22400     613.0048     426.8026
   1415.20874     612.3759     425.9301   1415.20874     612.3759     425.9301
   1415.19348     611.2245     425.4925   1415.19348     611.2245     425.4925
   1415.17822     610.1976     424.4631   1415.17822     610.1976     424.4631
   1415.16296     609.3277     423.1635   1415.16296     609.3277     423.1635
   1415.14771     608.0486     422.6946   1415.14771     608.0486     422.6946
   1415.13245     606.8961     421.7793   1415.13245     606.8961     421.7793
   1415.11719     606.1710     420.4432   1415.11719     606.1710     420.4432
   1415.10193     605.5118     419.1051   1415.10193     605.5118     419.1051
   1415.08667     604.0645     420.0370   1415.08667     604.0645     420.0370
   1415.07141     602.0893     417.7031   1415.07141     602.0893     417.7031
   1415.05615     601.4158     417.1520   1415.05615     601.4158     417.1520
   1415.04089     600.0282     416.2455   1415.04089     600.0282     416.2455
   1415.02563     597.9914     415.2234   1415.02563     597.9914     415.2234
   1415.01038     597.9666     414.2339   1415.01038     597.9666     414.2339
   1414.99512     595.6591     413.3640   1414.99512     595.6591     413.3640
   1414.97986     594.6428     412.0897   1414.97986     594.6428     412.0897
   1414.96460     593.2520     411.6376   1414.96460     593.2520     411.6376
   1414.94934     592.1295     410.3113   1414.94934     592.1295     410.3113
   1414.93408     591.5042     409.2858   1414.93408     591.5042     409.2858
   1414.91882     588.7698     408.7059   1414.91882     588.7698     408.7059
   1414.90356     588.8538     407.3471   1414.90356     588.8538     407.3471
   1414.88831     586.0276     406.3029   1414.88831     586.0276     406.3029
   1414.87305     584.5743     405.9908   1414.87305     584.5743     405.9908
   1414.85779     583.4261     404.3405   1414.85779     583.4261     404.3405
   1414.84253     581.9025     403.3197   1414.84253     581.9025     403.3197
   1414.82727     580.2792     402.2063   1414.82727     580.2792     402.2063
   1414.81201     579.7017     401.1042   1414.81201     579.7017     401.1042
   1414.79675     578.6608     400.4512   1414.79675     578.6608     400.4512
   1414.78149     576.4895     398.9438   1414.78149     576.4895     398.9438
   1414.76624     574.5109     397.4362   1414.76624     574.5109     397.4362
   1414.75098     573.4711     397.1193   1414.75098     573.4711     397.1193
   1414.73572     572.0784     395.8545   1414.73572     572.0784     395.8545
   1414.72046     570.0199     395.1944   1414.72046     570.0199     395.1944
   1414.70520     567.2442     393.8970   1414.70520     567.2442     393.8970
   1414.68994     567.4302     392.8331   1414.68994     567.4302     392.8331
   1414.67468     566.0093     392.3633   1414.67468     566.0093     392.3633
   1414.65942     563.5480     390.4191   1414.65942     563.5480     390.4191
   1414.64417     562.3385     389.5064   1414.64417     562.3385     389.5064
   1414.62891     560.6538     388.5256   1414.62891     560.6538     388.5256
   1414.61365     558.9150     387.0099   1414.61365     558.9150     387.0099
   1414.59839     556.0365     386.1063   1414.59839     556.0365     386.1063
   1414.58313     554.8945     385.1126   1414.58313     554.8945     385.1126
   1414.56787     552.7627     383.3629   1414.56787     552.7627     383.3629
   1414.55261     551.6261     382.5534   1414.55261     551.6261     382.5534
   1414.53735     549.7521     381.4104   1414.53735     549.7521     381.4104
   1414.52209     548.1761     379.4746   1414.52209     548.1761     379.4746
   1414.50684     546.3571     378.7724   1414.50684     546.3571     378.7724
   1414.49158     544.3061     377.0696   1414.49158     544.3061     377.0696
   1414.47632     542.4188     376.7339   1414.47632     542.4188     376.7339
   1414.46106     540.0632     374.3862   1414.46106     540.0632     374.3862
   1414.44580     539.4209     373.4106   1414.44580     539.4209     373.4106
   1414.43054     537.0981     372.1701   1414.43054     537.0981     372.1701
   1414.41528     535.0504     371.3975   1414.41528     535.0504     371.3975
   1414.40002     533.2047     370.2493   1414.40002     533.2047     370.2493
   1414.38477     530.8693     368.4358   1414.38477     530.8693     368.4358
   1414.36951     529.3384     367.2182   1414.36951     529.3384     367.2182
   1414.35425     527.9283     366.0290   1414.35425     527.9283     366.0290
   1414.33899     524.8464     364.7301   1414.33899     524.8464     364.7301
   1414.32373     523.0577     363.0406   1414.32373     523.0577     363.0406
   1414.30847     522.5606     361.8360   1414.30847     522.5606     361.8360
   1414.29321     519.7835     360.7361   1414.29321     519.7835     360.7361
   1414.27795     517.2206     359.6106   1414.27795     517.2206     359.6106
   1414.26270     514.7726     357.9943   1414.26270     514.7726     357.9943
   1414.24744     513.4112     356.3047   1414.24744     513.4112     356.3047
   1414.23218     511.7338     354.8374   1414.23218     511.7338     354.8374
   1414.21692     508.9444     353.8298   1414.21692     508.9444     353.8298
   1414.20166     506.8477     352.5237   1414.20166     506.8477     352.5237
   1414.18640     504.6803     351.2986   1414.18640     504.6803     351.2986
   1414.17114     502.2808     349.1766   1414.17114     502.2808     349.1766
   1414.15588     500.9795     348.5393   1414.15588     500.9795     348.5393
   1414.14062     498.8279     346.6591   1414.14062     498.8279     346.6591
   1414.12537     496.8702     345.5148   1414.12537     496.8702     345.5148
   1414.11011     495.0827     344.6280   1414.11011     495.0827     344.6280
   1414.09485     492.0040     341.9180   1414.09485     492.0040     341.9180
   1414.07959     489.7163     341.2511   1414.07959     489.7163     341.2511
   1414.06433     488.1671     339.4352   1414.06433     488.1671     339.4352
   1414.04907     485.3476     338.6327   1414.04907     485.3476     338.6327
   1414.03381     484.1018     337.0515   1414.03381     484.1018     337.0515
   1414.01855     482.3344     336.2151   1414.01855     482.3344     336.2151
   1414.00330     507.1628     343.2301   1414.00330     507.1628     343.2301
   1413.98804     478.7982     333.3629   1413.98804     478.7982     333.3629
   1413.97278     474.5114     331.4052   1413.97278     474.5114     331.4052
   1413.95752     472.0869     329.3288   1413.95752     472.0869     329.3288
   1413.94226     469.6992     328.0957   1413.94226     469.6992     328.0957
   1413.92700     468.5803     326.8187   1413.92700     468.5803     326.8187
   1413.91174     465.5841     325.1293   1413.91174     465.5841     325.1293
   1413.89648     463.4659     323.7407   1413.89648     463.4659     323.7407
   1413.88123     460.4303     322.4978   1413.88123     460.4303     322.4978
   1413.86597     458.4915     320.7956   1413.86597     458.4915     320.7956
   1413.85071     456.3593     319.3952   1413.85071     456.3593     319.3952
   1413.83545     454.1412     318.3996   1413.83545     454.1412     318.3996
   1413.82019     451.5988     316.5723   1413.82019     451.5988     316.5723
   1413.80493     448.9590     315.4690   1413.80493     448.9590     315.4690
   1413.78967     447.0186     313.8708   1413.78967     447.0186     313.8708
   1413.77441     444.3661     312.5827   1413.77441     444.3661     312.5827
   1413.75916     442.4556     310.5540   1413.75916     442.4556     310.5540
   1413.74390     439.9930     309.4458   1413.74390     439.9930     309.4458
   1413.72864     438.2038     307.8582   1413.72864     438.2038     307.8582
   1413.71338     436.1890     306.4438   1413.71338     436.1890     306.4438
   1413.69812     433.5657     305.1365   1413.69812     433.5657     305.1365
   1413.68286     429.9358     303.4220   1413.68286     429.9358     303.4220
   1413.66760     428.1815     302.2682   1413.66760     428.1815     302.2682
   1413.65234     426.2150     300.5463   1413.65234     426.2150     300.5463
   1413.63708     423.6510     299.6398   1413.63708     423.6510     299.6398
   1413.62183     421.0897     297.9295   1413.62183     421.0897     297.9295
   1413.60657     419.3483     296.6246   1413.60657     419.3483     296.6246
   1413.59131     416.7262     295.1177   1413.59131     416.7262     295.1177
   1413.57605     414.3309     293.6056   1413.57605     414.3309     293.6056
   1413.56079     412.0120     292.3741   1413.56079     412.0120     292.3741
   1413.54553     409.7994     290.6484   1413.54553     409.7994     290.6484
   1413.53027     408.1601     289.3250   1413.53027     408.1601     289.3250
   1413.51501     404.9657     287.8966   1413.51501     404.9657     287.8966
   1413.49976     402.4199     286.2859   1413.49976     402.4199     286.2859
   1413.48450     400.5618     285.4632   1413.48450     400.5618     285.4632
   1413.46924     398.6657     284.2757   1413.46924     398.6657     284.2757
   1413.45398     396.9044     282.7426   1413.45398     396.9044     282.7426
   1413.43872     394.0381     280.9595   1413.43872     394.0381     280.9595
   1413.42346     392.1956     279.6880   1413.42346     392.1956     279.6880
   1413.40820     389.7612     278.1386   1413.40820     389.7612     278.1386
   1413.39294     387.3819     277.3058   1413.39294     387.3819     277.3058
   1413.37769     385.3036     276.0724   1413.37769     385.3036     276.0724
   1413.36243     383.3790     274.6084   1413.36243     383.3790     274.6084
   1413.34717     380.8207     273.3867   1413.34717     380.8207     273.3867
   1413.33191     378.8481     272.1969   1413.33191     378.8481     272.1969
   1413.31665     376.3693     270.4716   1413.31665     376.3693     270.4716
   1413.30139     374.4392     269.9928   1413.30139     374.4392     269.9928
   1413.28613     372.1712     268.1218   1413.28613     372.1712     268.1218
   1413.27087     370.1536     267.1811   1413.27087     370.1536     267.1811
   1413.25562     368.3876     265.8965   1413.25562     368.3876     265.8965
   1413.24036     365.9964     264.8776   1413.24036     365.9964     264.8776
   1413.22510     363.9939     263.2769   1413.22510     363.9939     263.2769
   1413.20984     362.8782     262.1293   1413.20984     362.8782     262.1293
   1413.19458     360.6146     261.0358   1413.19458     360.6146     261.0358
   1413.17932     358.1828     260.3576   1413.17932     358.1828     260.3576
   1413.16406     356.7020     259.0182   1413.16406     356.7020     259.0182
   1413.14880     354.3462     257.6090   1413.14880     354.3462     257.6090
   1413.13354     352.8715     256.9827   1413.13354     352.8715     256.9827
   1413.11829     350.2915     255.3375   1413.11829     350.2915     255.3375
   1413.10303     347.9384     255.0409   1413.10303     347.9384     255.0409
   1413.08777     346.6535     253.9483   1413.08777     346.6535     253.9483
   1413.07251     345.4171     252.7800   1413.07251     345.4171     252.7800
   1413.05725     343.5844     251.9333   1413.05725     343.5844     251.9333
   1413.04199     341.5651     251.5344   1413.04199     341.5651     251.5344
   1413.02673     340.0817     249.9955   1413.02673     340.0817     249.9955
   1413.01147     338.5603     248.7378   1413.01147     338.5603     248.7378
   1412.99622     336.4406     248.3186   1412.99622     336.4406     248.3186
   1412.98096     335.2659     247.1586   1412.98096     335.2659     247.1586
   1412.96570     333.5227     246.6671   1412.96570     333.5227     246.6671
   1412.95044     331.9511     245.9496   1412.95044     331.9511     245.9496
   1412.93518     330.1256     244.8404   1412.93518     330.1256     244.8404
   1412.91992     328.5119     244.4570   1412.91992     328.5119     244.4570
   1412.90466     327.2015     243.7889   1412.90466     327.2015     243.7889
   1412.88940     325.6139     242.6511   1412.88940     325.6139     242.6511
   1412.87415     324.3567     242.4366   1412.87415     324.3567     242.4366
   1412.85889     323.0719     241.5202   1412.85889     323.0719     241.5202
   1412.84363     322.1638     240.9340   1412.84363     322.1638     240.9340
   1412.82837     320.9021     240.6404   1412.82837     320.9021     240.6404
   1412.81311     319.3292     240.2147   1412.81311     319.3292     240.2147
   1412.79785     317.8967     239.3496   1412.79785     317.8967     239.3496
   1412.78259     316.4665     238.9042   1412.78259     316.4665     238.9042
   1412.76733     316.0924     238.3089   1412.76733     316.0924     238.3089
   1412.75208     315.1086     238.3828   1412.75208     315.1086     238.3828
   1412.73682     313.5393     237.4847   1412.73682     313.5393     237.4847
   1412.72156     312.6324     237.3230   1412.72156     312.6324     237.3230
   1412.70630     311.9431     237.1212   1412.70630     311.9431     237.1212
   1412.69104     311.0577     236.4158   1412.69104     311.0577     236.4158
   1412.67578     309.3349     236.6105   1412.67578     309.3349     236.6105
   1412.66052     308.9750     235.9623   1412.66052     308.9750     235.9623
   1412.64526     308.2728     236.0469   1412.64526     308.2728     236.0469
   1412.63000     307.3020     235.9987   1412.63000     307.3020     235.9987
   1412.61475     306.3028     236.0213   1412.61475     306.3028     236.0213
   1412.59949     305.6889     235.7628   1412.59949     305.6889     235.7628
   1412.58423     304.9574     235.4033   1412.58423     304.9574     235.4033
   1412.56897     304.3576     235.4008   1412.56897     304.3576     235.4008
   1412.55371     303.4485     235.3626   1412.55371     303.4485     235.3626
   1412.53845     303.3586     235.6433   1412.53845     303.3586     235.6433
   1412.52319     303.0788     235.8781   1412.52319     303.0788     235.8781
   1412.50793     302.1465     235.6870   1412.50793     302.1465     235.6870
   1412.49268     301.6609     235.8668   1412.49268     301.6609     235.8668
   1412.47742     301.1808     236.4346   1412.47742     301.1808     236.4346
   1412.46216     301.5756     236.0866   1412.46216     301.5756     236.0866
   1412.44690     300.9240     236.9452   1412.44690     300.9240     236.9452
   1412.43164     300.6243     236.5463   1412.43164     300.6243     236.5463
   1412.41638     300.1371     237.1308   1412.41638     300.1371     237.1308
   1412.40112     300.6587     237.3661   1412.40112     300.6587     237.3661
   1412.38586     300.1887     238.2157   1412.38586     300.1887     238.2157
   1412.37061     300.3600     238.4016   1412.37061     300.3600     238.4016
   1412.35535     299.9389     239.2077   1412.35535     299.9389     239.2077
   1412.34009     299.9489     239.6215   1412.34009     299.9489     239.6215
   1412.32483     300.5429     239.9289   1412.32483     300.5429     239.9289
   1412.30957     299.9637     240.7290   1412.30957     299.9637     240.7290
   1412.29431     300.1830     241.5324   1412.29431     300.1830     241.5324
   1412.27905     300.6039     241.7023   1412.27905     300.6039     241.7023
   1412.26379     300.7315     242.5159   1412.26379     300.7315     242.5159
   1412.24854     301.2861     243.0410   1412.24854     301.2861     243.0410
   1412.23328     301.6202     244.0892   1412.23328     301.6202     244.0892
   1412.21802     301.6572     245.1194   1412.21802     301.6572     245.1194
   1412.20276     302.9293     246.0043   1412.20276     302.9293     246.0043