#     FILENAME=!Skynet_57528_lach-cc-80_20519_20926.cyb.fits
#     BASENAME=Skynet_57528_lach-cc-80_20519_20926
#     SRC_NAME=lach-cc-80
#     OBSERVER=ccmadison16_9505
#     DATE_OBS=2016-05-20T16:01:39.500
#        OBSID=20519
#      SCANNUM=20926
#          MJD=57528.6689
#          UTC=57788
#     SCANTYPE=track
#     DATAMODE=HIRES
#     TUNEFREQ=1420.0000
# Actual_FREQ1=1420.0000
# Actual_FREQ2=1420.0000
#    LO1Tuning=6870.000
#     RFFILTER=1355_1435
#        OBSBW=-15.6250
#        NCHAN=1024 
#        FOCUS=37.0709
#           RA=20:35:51.42
#          DEC=40:39:49.25
#      RA(hrs)=20.597800
#     DEC(deg)=40.663800
#    AZIM(deg)=303.553
#    ELEV(deg)=23.665
#     IFattens=12.00, 11.00
#      WARNING=None
#    TCAL_XL1=7.9635
#    TCAL_YR1=9.1340
#    TCAL_XL2=7.9635
#    TCAL_YR2=9.1340
#     TRX_XL1=11.7060
#     TRX_YR1=11.7060
#     TRX_XL2=11.7060
#     TRX_YR2=11.7060
#        TAVE=1.0000
#Freq1(MHz)          XL1          YR1  Freq2(MHz)          XL2          YR2 

   1427.81250     307.7010     257.7789   1427.81250     307.7010     257.7789
   1427.79724     308.4003     258.5850   1427.79724     308.4003     258.5850
   1427.78198     308.4958     259.3909   1427.78198     308.4958     259.3909
   1427.76672     309.8120     259.4578   1427.76672     309.8120     259.4578
   1427.75146     310.1065     260.0948   1427.75146     310.1065     260.0948
   1427.73621     311.0723     261.3598   1427.73621     311.0723     261.3598
   1427.72095     311.6364     261.8723   1427.72095     311.6364     261.8723
   1427.70569     312.5347     262.5988   1427.70569     312.5347     262.5988
   1427.69043     313.5018     262.9287   1427.69043     313.5018     262.9287
   1427.67517     313.6009     264.0409   1427.67517     313.6009     264.0409
   1427.65991     314.2257     264.6236   1427.65991     314.2257     264.6236
   1427.64465     315.6349     265.8214   1427.64465     315.6349     265.8214
   1427.62939     317.2798     266.5985   1427.62939     317.2798     266.5985
   1427.61414     317.4467     267.5651   1427.61414     317.4467     267.5651
   1427.59888     318.9641     268.5705   1427.59888     318.9641     268.5705
   1427.58362     319.5642     269.8646   1427.58362     319.5642     269.8646
   1427.56836     320.5703     270.3251   1427.56836     320.5703     270.3251
   1427.55310     322.1397     271.2665   1427.55310     322.1397     271.2665
   1427.53784     323.7667     272.6916   1427.53784     323.7667     272.6916
   1427.52258     324.6696     274.3257   1427.52258     324.6696     274.3257
   1427.50732     325.5792     275.4174   1427.50732     325.5792     275.4174
   1427.49207     327.3714     276.4815   1427.49207     327.3714     276.4815
   1427.47681     328.1810     277.6489   1427.47681     328.1810     277.6489
   1427.46155     330.2360     278.7014   1427.46155     330.2360     278.7014
   1427.44629     331.2106     279.8762   1427.44629     331.2106     279.8762
   1427.43103     332.8498     281.4646   1427.43103     332.8498     281.4646
   1427.41577     334.5062     282.5202   1427.41577     334.5062     282.5202
   1427.40051     335.3616     285.1348   1427.40051     335.3616     285.1348
   1427.38525     337.2221     285.8075   1427.38525     337.2221     285.8075
   1427.37000     338.8039     287.2974   1427.37000     338.8039     287.2974
   1427.35474     340.9365     288.6391   1427.35474     340.9365     288.6391
   1427.33948     343.0055     290.2061   1427.33948     343.0055     290.2061
   1427.32422     344.2536     291.6440   1427.32422     344.2536     291.6440
   1427.30896     346.1731     293.0686   1427.30896     346.1731     293.0686
   1427.29370     347.5135     294.7832   1427.29370     347.5135     294.7832
   1427.27844     350.4213     296.7099   1427.27844     350.4213     296.7099
   1427.26318     351.8162     298.4850   1427.26318     351.8162     298.4850
   1427.24792     353.4876     299.3296   1427.24792     353.4876     299.3296
   1427.23267     355.5447     301.5559   1427.23267     355.5447     301.5559
   1427.21741     357.4397     303.2160   1427.21741     357.4397     303.2160
   1427.20215     358.9741     305.0420   1427.20215     358.9741     305.0420
   1427.18689     361.1771     306.3615   1427.18689     361.1771     306.3615
   1427.17163     362.6806     308.5374   1427.17163     362.6806     308.5374
   1427.15637     365.3236     310.1586   1427.15637     365.3236     310.1586
   1427.14111     367.9082     312.0020   1427.14111     367.9082     312.0020
   1427.12585     368.7334     314.1787   1427.12585     368.7334     314.1787
   1427.11060     371.2383     316.3283   1427.11060     371.2383     316.3283
   1427.09534     373.6736     317.9418   1427.09534     373.6736     317.9418
   1427.08008     375.5729     319.9543   1427.08008     375.5729     319.9543
   1427.06482     378.3546     322.2951   1427.06482     378.3546     322.2951
   1427.04956     380.2776     324.0440   1427.04956     380.2776     324.0440
   1427.03430     382.3488     325.8718   1427.03430     382.3488     325.8718
   1427.01904     384.6697     327.7324   1427.01904     384.6697     327.7324
   1427.00378     387.3260     329.9216   1427.00378     387.3260     329.9216
   1426.98853     389.1861     332.1682   1426.98853     389.1861     332.1682
   1426.97327     391.1055     333.7970   1426.97327     391.1055     333.7970
   1426.95801     393.9847     336.5151   1426.95801     393.9847     336.5151
   1426.94275     396.8310     337.4090   1426.94275     396.8310     337.4090
   1426.92749     398.7961     339.6183   1426.92749     398.7961     339.6183
   1426.91223     401.2313     342.1458   1426.91223     401.2313     342.1458
   1426.89697     403.6019     344.4817   1426.89697     403.6019     344.4817
   1426.88171     405.3521     346.0886   1426.88171     405.3521     346.0886
   1426.86646     407.4960     348.2771   1426.86646     407.4960     348.2771
   1426.85120     410.6036     350.3546   1426.85120     410.6036     350.3546
   1426.83594     412.5389     352.2497   1426.83594     412.5389     352.2497
   1426.82068     415.7803     353.9528   1426.82068     415.7803     353.9528
   1426.80542     417.8992     356.9640   1426.80542     417.8992     356.9640
   1426.79016     420.2804     359.2200   1426.79016     420.2804     359.2200
   1426.77490     422.8887     360.5448   1426.77490     422.8887     360.5448
   1426.75964     424.8487     362.8039   1426.75964     424.8487     362.8039
   1426.74438     427.5510     365.0907   1426.74438     427.5510     365.0907
   1426.72913     430.2144     366.7004   1426.72913     430.2144     366.7004
   1426.71387     433.1883     369.6605   1426.71387     433.1883     369.6605
   1426.69861     434.9945     371.4839   1426.69861     434.9945     371.4839
   1426.68335     437.5791     373.2769   1426.68335     437.5791     373.2769
   1426.66809     440.0353     375.9038   1426.66809     440.0353     375.9038
   1426.65283     442.5709     377.6821   1426.65283     442.5709     377.6821
   1426.63757     444.4586     380.5764   1426.63757     444.4586     380.5764
   1426.62231     449.5310     382.6578   1426.62231     449.5310     382.6578
   1426.60706     450.4305     384.1154   1426.60706     450.4305     384.1154
   1426.59180     452.5986     386.4831   1426.59180     452.5986     386.4831
   1426.57654     455.1245     388.7742   1426.57654     455.1245     388.7742
   1426.56128     457.8055     390.8975   1426.56128     457.8055     390.8975
   1426.54602     459.7244     392.3795   1426.54602     459.7244     392.3795
   1426.53076     462.4511     394.8037   1426.53076     462.4511     394.8037
   1426.51550     464.2573     396.6582   1426.51550     464.2573     396.6582
   1426.50024     466.9882     398.2935   1426.50024     466.9882     398.2935
   1426.48499     469.4332     400.8900   1426.48499     469.4332     400.8900
   1426.46973     471.4695     403.1218   1426.46973     471.4695     403.1218
   1426.45447     474.3224     404.4737   1426.45447     474.3224     404.4737
   1426.43921     476.6045     406.8879   1426.43921     476.6045     406.8879
   1426.42395     478.6368     409.0451   1426.42395     478.6368     409.0451
   1426.40869     481.5648     411.0388   1426.40869     481.5648     411.0388
   1426.39343     484.0210     412.5852   1426.39343     484.0210     412.5852
   1426.37817     487.3498     415.3474   1426.37817     487.3498     415.3474
   1426.36292     488.3527     416.3031   1426.36292     488.3527     416.3031
   1426.34766     491.0142     418.6715   1426.34766     491.0142     418.6715
   1426.33240     493.8165     420.6232   1426.33240     493.8165     420.6232
   1426.31714     495.7493     423.2684   1426.31714     495.7493     423.2684
   1426.30188     497.8388     424.2990   1426.30188     497.8388     424.2990
   1426.28662     499.8283     426.6169   1426.28662     499.8283     426.6169
   1426.27136     502.5455     427.9674   1426.27136     502.5455     427.9674
   1426.25610     504.4468     430.0889   1426.25610     504.4468     430.0889
   1426.24084     507.6168     431.6148   1426.24084     507.6168     431.6148
   1426.22559     509.5464     434.1315   1426.22559     509.5464     434.1315
   1426.21033     510.8871     436.2145   1426.21033     510.8871     436.2145
   1426.19507     513.5954     437.7174   1426.19507     513.5954     437.7174
   1426.17981     516.7562     439.4253   1426.17981     516.7562     439.4253
   1426.16455     518.2891     441.6423   1426.16455     518.2891     441.6423
   1426.14929     520.7613     443.3356   1426.14929     520.7613     443.3356
   1426.13403     522.4242     444.6049   1426.13403     522.4242     444.6049
   1426.11877     523.8764     446.2114   1426.11877     523.8764     446.2114
   1426.10352     525.8243     448.6286   1426.10352     525.8243     448.6286
   1426.08826     528.4230     450.3164   1426.08826     528.4230     450.3164
   1426.07300     530.4336     451.0938   1426.07300     530.4336     451.0938
   1426.05774     533.6657     453.2754   1426.05774     533.6657     453.2754
   1426.04248     534.7620     455.8691   1426.04248     534.7620     455.8691
   1426.02722     536.3244     456.9377   1426.02722     536.3244     456.9377
   1426.01196     539.3018     457.9791   1426.01196     539.3018     457.9791
   1425.99670     540.0969     459.9221   1425.99670     540.0969     459.9221
   1425.98145     542.3723     461.3297   1425.98145     542.3723     461.3297
   1425.96619     545.0856     462.8474   1425.96619     545.0856     462.8474
   1425.95093     546.7543     464.5307   1425.95093     546.7543     464.5307
   1425.93567     547.9371     466.7161   1425.93567     547.9371     466.7161
   1425.92041     550.3007     468.3842   1425.92041     550.3007     468.3842
   1425.90515     551.7513     469.3449   1425.90515     551.7513     469.3449
   1425.88989     554.0331     470.6537   1425.88989     554.0331     470.6537
   1425.87463     555.6597     472.7436   1425.87463     555.6597     472.7436
   1425.85938     556.5989     473.8551   1425.85938     556.5989     473.8551
   1425.84412     559.0695     475.4266   1425.84412     559.0695     475.4266
   1425.82886     559.0753     477.3428   1425.82886     559.0753     477.3428
   1425.81360     562.3313     478.6385   1425.81360     562.3313     478.6385
   1425.79834     563.6573     479.7921   1425.79834     563.6573     479.7921
   1425.78308     565.1286     480.7267   1425.78308     565.1286     480.7267
   1425.76782     566.5719     482.0890   1425.76782     566.5719     482.0890
   1425.75256     568.6346     483.8757   1425.75256     568.6346     483.8757
   1425.73730     570.1279     484.6284   1425.73730     570.1279     484.6284
   1425.72205     571.9503     485.7656   1425.72205     571.9503     485.7656
   1425.70679     572.3920     488.2881   1425.70679     572.3920     488.2881
   1425.69153     574.4684     488.6774   1425.69153     574.4684     488.6774
   1425.67627     576.6638     489.8068   1425.67627     576.6638     489.8068
   1425.66101     577.9807     491.3279   1425.66101     577.9807     491.3279
   1425.64575     578.6023     492.7168   1425.64575     578.6023     492.7168
   1425.63049     581.0516     493.9178   1425.63049     581.0516     493.9178
   1425.61523     582.1126     494.6313   1425.61523     582.1126     494.6313
   1425.59998     582.6174     496.8227   1425.59998     582.6174     496.8227
   1425.58472     584.4344     497.6783   1425.58472     584.4344     497.6783
   1425.56946     585.4972     499.1348   1425.56946     585.4972     499.1348
   1425.55420     587.3342     499.4034   1425.55420     587.3342     499.4034
   1425.53894     588.3282     501.1011   1425.53894     588.3282     501.1011
   1425.52368     588.8915     501.9033   1425.52368     588.8915     501.9033
   1425.50842     590.4255     502.6201   1425.50842     590.4255     502.6201
   1425.49316     590.4512     504.5454   1425.49316     590.4512     504.5454
   1425.47791     592.4006     506.1891   1425.47791     592.4006     506.1891
   1425.46265     594.4677     506.8928   1425.46265     594.4677     506.8928
   1425.44739     594.2833     507.8848   1425.44739     594.2833     507.8848
   1425.43213     596.4154     508.2372   1425.43213     596.4154     508.2372
   1425.41687     597.8768     509.6265   1425.41687     597.8768     509.6265
   1425.40161     597.0155     511.7656   1425.40161     597.0155     511.7656
   1425.38635     599.4081     513.0904   1425.38635     599.4081     513.0904
   1425.37109     600.1093     512.6315   1425.37109     600.1093     512.6315
   1425.35583     600.2988     514.5311   1425.35583     600.2988     514.5311
   1425.34058     601.8108     515.2983   1425.34058     601.8108     515.2983
   1425.32532     603.3004     515.4793   1425.32532     603.3004     515.4793
   1425.31006     602.4182     516.6438   1425.31006     602.4182     516.6438
   1425.29480     603.6091     516.5355   1425.29480     603.6091     516.5355
   1425.27954     605.7327     517.8721   1425.27954     605.7327     517.8721
   1425.26428     605.6545     519.5350   1425.26428     605.6545     519.5350
   1425.24902     607.2784     520.5674   1425.24902     607.2784     520.5674
   1425.23376     607.1147     520.5038   1425.23376     607.1147     520.5038
   1425.21851     609.1372     521.3707   1425.21851     609.1372     521.3707
   1425.20325     608.2692     521.7475   1425.20325     608.2692     521.7475
   1425.18799     610.5385     524.4371   1425.18799     610.5385     524.4371
   1425.17273     610.4540     524.0308   1425.17273     610.4540     524.0308
   1425.15747     609.6545     525.3339   1425.15747     609.6545     525.3339
   1425.14221     611.5958     525.9104   1425.14221     611.5958     525.9104
   1425.12695     610.9700     526.8534   1425.12695     610.9700     526.8534
   1425.11169     612.5982     527.8226   1425.11169     612.5982     527.8226
   1425.09644     614.1738     529.0864   1425.09644     614.1738     529.0864
   1425.08118     614.1370     529.8619   1425.08118     614.1370     529.8619
   1425.06592     615.3300     531.0349   1425.06592     615.3300     531.0349
   1425.05066     615.2841     530.8184   1425.05066     615.2841     530.8184
   1425.03540     614.5038     531.7090   1425.03540     614.5038     531.7090
   1425.02014     616.4888     532.2196   1425.02014     616.4888     532.2196
   1425.00488     617.9197     532.5844   1425.00488     617.9197     532.5844
   1424.98962     617.3422     534.2407   1424.98962     617.3422     534.2407
   1424.97437     617.3362     534.9185   1424.97437     617.3362     534.9185
   1424.95911     618.4254     535.6818   1424.95911     618.4254     535.6818
   1424.94385     619.4663     537.5068   1424.94385     619.4663     537.5068
   1424.92859     620.1357     537.1237   1424.92859     620.1357     537.1237
   1424.91333     620.7852     537.8976   1424.91333     620.7852     537.8976
   1424.89807     621.1520     539.7035   1424.89807     621.1520     539.7035
   1424.88281     620.3252     540.2076   1424.88281     620.3252     540.2076
   1424.86755     621.0773     539.7377   1424.86755     621.0773     539.7377
   1424.85229     620.9450     541.5411   1424.85229     620.9450     541.5411
   1424.83704     621.0456     541.7815   1424.83704     621.0456     541.7815
   1424.82178     621.0270     541.1940   1424.82178     621.0270     541.1940
   1424.80652     621.5611     541.5375   1424.80652     621.5611     541.5375
   1424.79126     621.4040     543.2202   1424.79126     621.4040     543.2202
   1424.77600     621.6249     542.6238   1424.77600     621.6249     542.6238
   1424.76074     621.7617     543.8645   1424.76074     621.7617     543.8645
   1424.74548     621.4491     545.0984   1424.74548     621.4491     545.0984
   1424.73022     622.4272     545.0820   1424.73022     622.4272     545.0820
   1424.71497     622.3543     545.2208   1424.71497     622.3543     545.2208
   1424.69971     621.7537     545.2946   1424.69971     621.7537     545.2946
   1424.68445     623.6999     545.8585   1424.68445     623.6999     545.8585
   1424.66919     623.4216     546.4708   1424.66919     623.4216     546.4708
   1424.65393     623.0043     548.1326   1424.65393     623.0043     548.1326
   1424.63867     623.6257     547.3662   1424.63867     623.6257     547.3662
   1424.62341     622.5982     549.3828   1424.62341     622.5982     549.3828
   1424.60815     623.3001     549.3907   1424.60815     623.3001     549.3907
   1424.59290     624.0331     550.1946   1424.59290     624.0331     550.1946
   1424.57764     624.8862     550.6969   1424.57764     624.8862     550.6969
   1424.56238     624.0423     551.2770   1424.56238     624.0423     551.2770
   1424.54712     623.1501     551.6331   1424.54712     623.1501     551.6331
   1424.53186     623.3506     552.2897   1424.53186     623.3506     552.2897
   1424.51660     623.9136     552.9986   1424.51660     623.9136     552.9986
   1424.50134     624.3107     554.5639   1424.50134     624.3107     554.5639
   1424.48608     624.3011     554.0742   1424.48608     624.3011     554.0742
   1424.47083     624.3608     554.4442   1424.47083     624.3608     554.4442
   1424.45557     624.4496     555.3749   1424.45557     624.4496     555.3749
   1424.44031     624.2954     555.3518   1424.44031     624.2954     555.3518
   1424.42505     624.7711     556.3982   1424.42505     624.7711     556.3982
   1424.40979     624.2767     556.7202   1424.40979     624.2767     556.7202
   1424.39453     623.8338     557.3026   1424.39453     623.8338     557.3026
   1424.37927     623.9603     558.6991   1424.37927     623.9603     558.6991
   1424.36401     625.0936     559.6805   1424.36401     625.0936     559.6805
   1424.34875     624.6127     559.0061   1424.34875     624.6127     559.0061
   1424.33350     624.1357     559.9446   1424.33350     624.1357     559.9446
   1424.31824     623.9993     561.1873   1424.31824     623.9993     561.1873
   1424.30298     624.6656     560.2219   1424.30298     624.6656     560.2219
   1424.28772     624.8121     561.5558   1424.28772     624.8121     561.5558
   1424.27246     624.4804     561.7208   1424.27246     624.4804     561.7208
   1424.25720     624.3972     563.1140   1424.25720     624.3972     563.1140
   1424.24194     623.9198     562.6739   1424.24194     623.9198     562.6739
   1424.22668     624.6346     563.1186   1424.22668     624.6346     563.1186
   1424.21143     624.3057     564.4489   1424.21143     624.3057     564.4489
   1424.19617     624.3224     564.5306   1424.19617     624.3224     564.5306
   1424.18091     624.9610     565.7126   1424.18091     624.9610     565.7126
   1424.16565     622.4373     565.6288   1424.16565     622.4373     565.6288
   1424.15039     624.6461     565.8859   1424.15039     624.6461     565.8859
   1424.13513     623.7272     566.4269   1424.13513     623.7272     566.4269
   1424.11987     623.6069     566.1614   1424.11987     623.6069     566.1614
   1424.10461     624.2388     567.0709   1424.10461     624.2388     567.0709
   1424.08936     623.4554     567.2025   1424.08936     623.4554     567.2025
   1424.07410     623.6195     568.8876   1424.07410     623.6195     568.8876
   1424.05884     623.1586     568.5817   1424.05884     623.1586     568.5817
   1424.04358     623.5242     569.5492   1424.04358     623.5242     569.5492
   1424.02832     623.7719     568.9322   1424.02832     623.7719     568.9322
   1424.01306     622.7344     569.6243   1424.01306     622.7344     569.6243
   1423.99780     623.4278     571.2850   1423.99780     623.4278     571.2850
   1423.98254     623.2028     570.6257   1423.98254     623.2028     570.6257
   1423.96729     622.3956     572.2404   1423.96729     622.3956     572.2404
   1423.95203     622.2571     572.1559   1423.95203     622.2571     572.1559
   1423.93677     623.4965     573.2170   1423.93677     623.4965     573.2170
   1423.92151     622.6663     572.9991   1423.92151     622.6663     572.9991
   1423.90625     622.5675     574.3186   1423.90625     622.5675     574.3186
   1423.89099     623.0179     574.2800   1423.89099     623.0179     574.2800
   1423.87573     622.1868     574.7310   1423.87573     622.1868     574.7310
   1423.86047     622.6130     574.3373   1423.86047     622.6130     574.3373
   1423.84521     621.8256     575.0642   1423.84521     621.8256     575.0642
   1423.82996     622.4230     575.7308   1423.82996     622.4230     575.7308
   1423.81470     622.4559     575.1067   1423.81470     622.4559     575.1067
   1423.79944     621.9114     577.5087   1423.79944     621.9114     577.5087
   1423.78418     621.1982     577.4596   1423.78418     621.1982     577.4596
   1423.76892     621.6057     576.8929   1423.76892     621.6057     576.8929
   1423.75366     621.2360     577.7297   1423.75366     621.2360     577.7297
   1423.73840     621.1053     578.7376   1423.73840     621.1053     578.7376
   1423.72314     621.6405     578.3999   1423.72314     621.6405     578.3999
   1423.70789     621.3278     577.4581   1423.70789     621.3278     577.4581
   1423.69263     621.5416     579.2002   1423.69263     621.5416     579.2002
   1423.67737     621.1707     579.3633   1423.67737     621.1707     579.3633
   1423.66211     620.6314     580.0441   1423.66211     620.6314     580.0441
   1423.64685     620.0661     580.2391   1423.64685     620.0661     580.2391
   1423.63159     619.7073     580.6834   1423.63159     619.7073     580.6834
   1423.61633     620.2045     580.5595   1423.61633     620.2045     580.5595
   1423.60107     620.5096     581.1277   1423.60107     620.5096     581.1277
   1423.58582     620.6603     581.7152   1423.58582     620.6603     581.7152
   1423.57056     619.5866     582.3139   1423.57056     619.5866     582.3139
   1423.55530     620.6743     581.9841   1423.55530     620.6743     581.9841
   1423.54004     619.3895     582.0085   1423.54004     619.3895     582.0085
   1423.52478     619.8801     581.4873   1423.52478     619.8801     581.4873
   1423.50952     619.9660     582.1940   1423.50952     619.9660     582.1940
   1423.49426     619.5537     582.9614   1423.49426     619.5537     582.9614
   1423.47900     619.0901     583.1512   1423.47900     619.0901     583.1512
   1423.46375     619.6712     583.7221   1423.46375     619.6712     583.7221
   1423.44849     619.5847     583.4606   1423.44849     619.5847     583.4606
   1423.43323     618.5310     582.9964   1423.43323     618.5310     582.9964
   1423.41797     618.9403     583.6362   1423.41797     618.9403     583.6362
   1423.40271     617.7454     583.9327   1423.40271     617.7454     583.9327
   1423.38745     618.5231     584.0549   1423.38745     618.5231     584.0549
   1423.37219     619.9457     585.7069   1423.37219     619.9457     585.7069
   1423.35693     618.9819     585.0984   1423.35693     618.9819     585.0984
   1423.34167     618.3968     584.8945   1423.34167     618.3968     584.8945
   1423.32642     617.8797     584.3190   1423.32642     617.8797     584.3190
   1423.31116     617.9346     584.4338   1423.31116     617.9346     584.4338
   1423.29590     617.9796     585.3124   1423.29590     617.9796     585.3124
   1423.28064     617.7542     585.6556   1423.28064     617.7542     585.6556
   1423.26538     617.3488     584.7190   1423.26538     617.3488     584.7190
   1423.25012     617.6254     584.5544   1423.25012     617.6254     584.5544
   1423.23486     616.8507     585.5985   1423.23486     616.8507     585.5985
   1423.21960     617.7385     585.2222   1423.21960     617.7385     585.2222
   1423.20435     617.0120     584.7588   1423.20435     617.0120     584.7588
   1423.18909     616.5709     584.5854   1423.18909     616.5709     584.5854
   1423.17383     616.0561     585.1143   1423.17383     616.0561     585.1143
   1423.15857     616.3028     584.6984   1423.15857     616.3028     584.6984
   1423.14331     616.0781     584.8970   1423.14331     616.0781     584.8970
   1423.12805     616.6392     584.8368   1423.12805     616.6392     584.8368
   1423.11279     616.7184     584.0803   1423.11279     616.7184     584.0803
   1423.09753     616.1440     585.3913   1423.09753     616.1440     585.3913
   1423.08228     615.6147     584.1874   1423.08228     615.6147     584.1874
   1423.06702     616.0236     584.2542   1423.06702     616.0236     584.2542
   1423.05176     615.6778     584.0612   1423.05176     615.6778     584.0612
   1423.03650     615.6057     582.8934   1423.03650     615.6057     582.8934
   1423.02124     614.5599     583.6634   1423.02124     614.5599     583.6634
   1423.00598     615.4366     583.5396   1423.00598     615.4366     583.5396
   1422.99072     615.8339     583.4467   1422.99072     615.8339     583.4467
   1422.97546     613.9452     584.0394   1422.97546     613.9452     584.0394
   1422.96021     615.1633     583.2294   1422.96021     615.1633     583.2294
   1422.94495     614.3727     583.2060   1422.94495     614.3727     583.2060
   1422.92969     614.8499     583.1446   1422.92969     614.8499     583.1446
   1422.91443     614.6019     582.7048   1422.91443     614.6019     582.7048
   1422.89917     614.1479     581.1423   1422.89917     614.1479     581.1423
   1422.88391     614.2309     582.0880   1422.88391     614.2309     582.0880
   1422.86865     614.3351     580.8427   1422.86865     614.3351     580.8427
   1422.85339     613.4089     580.0579   1422.85339     613.4089     580.0579
   1422.83813     613.8223     580.4137   1422.83813     613.8223     580.4137
   1422.82288     613.1813     580.7155   1422.82288     613.1813     580.7155
   1422.80762     613.4011     579.6222   1422.80762     613.4011     579.6222
   1422.79236     613.6875     578.6495   1422.79236     613.6875     578.6495
   1422.77710     613.0525     577.4766   1422.77710     613.0525     577.4766
   1422.76184     613.5507     578.3740   1422.76184     613.5507     578.3740
   1422.74658     611.6663     577.6680   1422.74658     611.6663     577.6680
   1422.73132     613.4554     577.0390   1422.73132     613.4554     577.0390
   1422.71606     611.4369     576.9522   1422.71606     611.4369     576.9522
   1422.70081     611.4172     575.3632   1422.70081     611.4172     575.3632
   1422.68555     611.8052     575.4208   1422.68555     611.8052     575.4208
   1422.67029     612.5606     574.2526   1422.67029     612.5606     574.2526
   1422.65503     611.7652     573.7302   1422.65503     611.7652     573.7302
   1422.63977     611.6975     573.9114   1422.63977     611.6975     573.9114
   1422.62451     612.2816     572.1063   1422.62451     612.2816     572.1063
   1422.60925     611.7079     572.5880   1422.60925     611.7079     572.5880
   1422.59399     611.2493     571.3122   1422.59399     611.2493     571.3122
   1422.57874     610.7012     571.2793   1422.57874     610.7012     571.2793
   1422.56348     610.6418     569.4744   1422.56348     610.6418     569.4744
   1422.54822     610.3284     569.2624   1422.54822     610.3284     569.2624
   1422.53296     611.0316     569.1274   1422.53296     611.0316     569.1274
   1422.51770     610.8104     567.5837   1422.51770     610.8104     567.5837
   1422.50244     610.3022     567.0644   1422.50244     610.3022     567.0644
   1422.48718     609.3783     566.0475   1422.48718     609.3783     566.0475
   1422.47192     610.9025     565.7869   1422.47192     610.9025     565.7869
   1422.45667     608.3692     564.3694   1422.45667     608.3692     564.3694
   1422.44141     609.4622     563.6747   1422.44141     609.4622     563.6747
   1422.42615     608.9817     562.3097   1422.42615     608.9817     562.3097
   1422.41089     609.7804     562.2523   1422.41089     609.7804     562.2523
   1422.39563     609.0978     561.7059   1422.39563     609.0978     561.7059
   1422.38037     608.9135     560.1801   1422.38037     608.9135     560.1801
   1422.36511     609.0200     559.1421   1422.36511     609.0200     559.1421
   1422.34985     608.3428     558.8901   1422.34985     608.3428     558.8901
   1422.33459     608.8494     556.6614   1422.33459     608.8494     556.6614
   1422.31934     608.1735     556.8538   1422.31934     608.1735     556.8538
   1422.30408     608.1567     555.7314   1422.30408     608.1567     555.7314
   1422.28882     607.7072     553.9849   1422.28882     607.7072     553.9849
   1422.27356     606.7597     554.4800   1422.27356     606.7597     554.4800
   1422.25830     607.3696     552.5005   1422.25830     607.3696     552.5005
   1422.24304     608.0175     552.1736   1422.24304     608.0175     552.1736
   1422.22778     607.2196     551.0226   1422.22778     607.2196     551.0226
   1422.21252     606.4698     548.7109   1422.21252     606.4698     548.7109
   1422.19727     607.4166     549.0273   1422.19727     607.4166     549.0273
   1422.18201     605.4711     547.1567   1422.18201     605.4711     547.1567
   1422.16675     606.3595     546.4318   1422.16675     606.3595     546.4318
   1422.15149     606.5621     545.9226   1422.15149     606.5621     545.9226
   1422.13623     606.4439     545.6047   1422.13623     606.4439     545.6047
   1422.12097     606.5668     543.6368   1422.12097     606.5668     543.6368
   1422.10571     606.0228     541.4250   1422.10571     606.0228     541.4250
   1422.09045     605.1344     541.2238   1422.09045     605.1344     541.2238
   1422.07520     605.3768     540.6429   1422.07520     605.3768     540.6429
   1422.05994     604.5264     538.5869   1422.05994     604.5264     538.5869
   1422.04468     604.8331     536.8242   1422.04468     604.8331     536.8242
   1422.02942     604.4418     535.1552   1422.02942     604.4418     535.1552
   1422.01416     604.7982     534.9698   1422.01416     604.7982     534.9698
   1421.99890     605.1363     534.2237   1421.99890     605.1363     534.2237
   1421.98364     604.0237     532.5434   1421.98364     604.0237     532.5434
   1421.96838     604.5391     531.7120   1421.96838     604.5391     531.7120
   1421.95312     604.2066     530.3129   1421.95312     604.2066     530.3129
   1421.93787     603.9960     529.4240   1421.93787     603.9960     529.4240
   1421.92261     603.2638     526.5064   1421.92261     603.2638     526.5064
   1421.90735     603.2476     526.3379   1421.90735     603.2476     526.3379
   1421.89209     603.1031     524.8920   1421.89209     603.1031     524.8920
   1421.87683     602.2026     523.5031   1421.87683     602.2026     523.5031
   1421.86157     602.5831     522.8622   1421.86157     602.5831     522.8622
   1421.84631     602.0934     520.7382   1421.84631     602.0934     520.7382
   1421.83105     601.3829     519.5346   1421.83105     601.3829     519.5346
   1421.81580     602.1488     518.8220   1421.81580     602.1488     518.8220
   1421.80054     602.2869     517.0823   1421.80054     602.2869     517.0823
   1421.78528     601.5635     516.4453   1421.78528     601.5635     516.4453
   1421.77002     602.7311     514.6060   1421.77002     602.7311     514.6060
   1421.75476     601.6165     514.0569   1421.75476     601.6165     514.0569
   1421.73950     601.5136     512.3322   1421.73950     601.5136     512.3322
   1421.72424     602.1629     510.7539   1421.72424     602.1629     510.7539
   1421.70898     600.8193     508.6469   1421.70898     600.8193     508.6469
   1421.69373     600.8562     508.2862   1421.69373     600.8562     508.2862
   1421.67847     600.2001     507.4865   1421.67847     600.2001     507.4865
   1421.66321     600.8702     505.6145   1421.66321     600.8702     505.6145
   1421.64795     600.1753     503.9450   1421.64795     600.1753     503.9450
   1421.63269     599.3001     503.0694   1421.63269     599.3001     503.0694
   1421.61743     600.7744     501.8625   1421.61743     600.7744     501.8625
   1421.60217     600.3729     500.0621   1421.60217     600.3729     500.0621
   1421.58691     600.1769     498.6605   1421.58691     600.1769     498.6605
   1421.57166     599.1888     496.9335   1421.57166     599.1888     496.9335
   1421.55640     599.0787     495.8556   1421.55640     599.0787     495.8556
   1421.54114     598.4573     495.0146   1421.54114     598.4573     495.0146
   1421.52588     599.4313     493.2646   1421.52588     599.4313     493.2646
   1421.51062     598.9177     492.2710   1421.51062     598.9177     492.2710
   1421.49536     599.4745     492.5001   1421.49536     599.4745     492.5001
   1421.48010     598.2881     489.3577   1421.48010     598.2881     489.3577
   1421.46484     599.4108     487.9121   1421.46484     599.4108     487.9121
   1421.44958     598.4846     487.0246   1421.44958     598.4846     487.0246
   1421.43433     597.9109     485.1293   1421.43433     597.9109     485.1293
   1421.41907     597.8988     484.7762   1421.41907     597.8988     484.7762
   1421.40381     598.1891     483.2581   1421.40381     598.1891     483.2581
   1421.38855     597.9972     481.3176   1421.38855     597.9972     481.3176
   1421.37329     598.0774     479.6388   1421.37329     598.0774     479.6388
   1421.35803     596.7877     478.5759   1421.35803     596.7877     478.5759
   1421.34277     597.3587     477.4284   1421.34277     597.3587     477.4284
   1421.32751     597.5967     476.5815   1421.32751     597.5967     476.5815
   1421.31226     598.0121     475.5448   1421.31226     598.0121     475.5448
   1421.29700     597.7642     474.1413   1421.29700     597.7642     474.1413
   1421.28174     597.7150     472.4128   1421.28174     597.7150     472.4128
   1421.26648     599.0678     471.8859   1421.26648     599.0678     471.8859
   1421.25122     596.8544     471.6151   1421.25122     596.8544     471.6151
   1421.23596     598.6182     470.3409   1421.23596     598.6182     470.3409
   1421.22070     598.8792     469.2793   1421.22070     598.8792     469.2793
   1421.20544     598.8678     468.8114   1421.20544     598.8678     468.8114
   1421.19019     600.6423     468.1521   1421.19019     600.6423     468.1521
   1421.17493     601.7714     467.7210   1421.17493     601.7714     467.7210
   1421.15967     602.2741     466.2890   1421.15967     602.2741     466.2890
   1421.14441     601.7291     466.3924   1421.14441     601.7291     466.3924
   1421.12915     602.6176     465.7362   1421.12915     602.6176     465.7362
   1421.11389     603.5935     465.4898   1421.11389     603.5935     465.4898
   1421.09863     604.8469     464.7467   1421.09863     604.8469     464.7467
   1421.08337     609.3647     466.0473   1421.08337     609.3647     466.0473
   1421.06812     614.3491     468.5621   1421.06812     614.3491     468.5621
   1421.05286     622.3145     473.1599   1421.05286     622.3145     473.1599
   1421.03760     635.7123     482.3842   1421.03760     635.7123     482.3842
   1421.02234     655.9346     495.4245   1421.02234     655.9346     495.4245
   1421.00708     689.6262     519.0875   1421.00708     689.6262     519.0875
   1420.99182     737.4225     552.9130   1420.99182     737.4225     552.9130
   1420.97656     748.2089     558.3947   1420.97656     748.2089     558.3947
   1420.96130     762.3300     569.6962   1420.96130     762.3300     569.6962
   1420.94604     789.0496     586.9678   1420.94604     789.0496     586.9678
   1420.93079     823.9229     611.8019   1420.93079     823.9229     611.8019
   1420.91553     900.8242     663.4551   1420.91553     900.8242     663.4551
   1420.90027     998.5647     732.1384   1420.90027     998.5647     732.1384
   1420.88501    1040.0828     760.6663   1420.88501    1040.0828     760.6663
   1420.86975    1022.0435     746.1328   1420.86975    1022.0435     746.1328
   1420.85449     922.5225     674.0477   1420.85449     922.5225     674.0477
   1420.83923     837.9984     610.5764   1420.83923     837.9984     610.5764
   1420.82397     826.7034     599.8632   1420.82397     826.7034     599.8632
   1420.80872     908.1708     655.8439   1420.80872     908.1708     655.8439
   1420.79346    1028.2257     738.7368   1420.79346    1028.2257     738.7368
   1420.77820    1099.2366     789.9511   1420.77820    1099.2366     789.9511
   1420.76294    1157.5317     831.3521   1420.76294    1157.5317     831.3521
   1420.74768    1093.1831     782.6057   1420.74768    1093.1831     782.6057
   1420.73242     989.0202     706.6698   1420.73242     989.0202     706.6698
   1420.71716     924.4907     661.6918   1420.71716     924.4907     661.6918
   1420.70190     881.3600     630.9088   1420.70190     881.3600     630.9088
   1420.68665     877.4406     624.4318   1420.68665     877.4406     624.4318
   1420.67139     877.1354     622.1974   1420.67139     877.1354     622.1974
   1420.65613     858.6560     607.2559   1420.65613     858.6560     607.2559
   1420.64087     921.4905     648.1050   1420.64087     921.4905     648.1050
   1420.62561    1114.5198     780.3446   1420.62561    1114.5198     780.3446
   1420.61035    1383.6023     964.8315   1420.61035    1383.6023     964.8315
   1420.59509    1650.0486    1146.2260   1420.59509    1650.0486    1146.2260
   1420.57983    1736.1752    1203.9778   1420.57983    1736.1752    1203.9778
   1420.56458    1715.5408    1187.8676   1420.56458    1715.5408    1187.8676
   1420.54932    1729.7795    1193.4952   1420.54932    1729.7795    1193.4952
   1420.53406    1760.6002    1210.1138   1420.53406    1760.6002    1210.1138
   1420.51880    1824.2408    1250.1775   1420.51880    1824.2408    1250.1775
   1420.50354    1684.6353    1153.2440   1420.50354    1684.6353    1153.2440
   1420.48828    1336.3639     915.9916   1420.48828    1336.3639     915.9916
   1420.47302     997.2075     685.9287   1420.47302     997.2075     685.9287
   1420.45776     799.1675     550.8431   1420.45776     799.1675     550.8431
   1420.44250     699.7382     482.7704   1420.44250     699.7382     482.7704
   1420.42725     653.2963     449.9884   1420.42725     653.2963     449.9884
   1420.41199     629.3294     432.6800   1420.41199     629.3294     432.6800
   1420.39673     615.5190     423.6137   1420.39673     615.5190     423.6137
   1420.38147     607.6486     417.5498   1420.38147     607.6486     417.5498
   1420.36621     604.1885     413.8761   1420.36621     604.1885     413.8761
   1420.35095     602.9388     411.7390   1420.35095     602.9388     411.7390
   1420.33569     601.4480     409.7082   1420.33569     601.4480     409.7082
   1420.32043     601.4352     408.0445   1420.32043     601.4352     408.0445
   1420.30518     599.2468     407.5071   1420.30518     599.2468     407.5071
   1420.28992     599.9327     406.0545   1420.28992     599.9327     406.0545
   1420.27466     599.6666     405.4814   1420.27466     599.6666     405.4814
   1420.25940     598.7628     404.0121   1420.25940     598.7628     404.0121
   1420.24414     598.9929     403.7131   1420.24414     598.9929     403.7131
   1420.22888     598.7856     402.2387   1420.22888     598.7856     402.2387
   1420.21362     596.3997     400.9863   1420.21362     596.3997     400.9863
   1420.19836     595.1454     399.5884   1420.19836     595.1454     399.5884
   1420.18311     595.9607     398.6000   1420.18311     595.9607     398.6000
   1420.16785     594.1620     396.8920   1420.16785     594.1620     396.8920
   1420.15259     593.8857     396.3700   1420.15259     593.8857     396.3700
   1420.13733     594.0162     394.9432   1420.13733     594.0162     394.9432
   1420.12207     592.9576     393.7740   1420.12207     592.9576     393.7740
   1420.10681     592.9275     392.7685   1420.10681     592.9275     392.7685
   1420.09155     591.8108     392.6330   1420.09155     591.8108     392.6330
   1420.07629     592.8087     391.4120   1420.07629     592.8087     391.4120
   1420.06104     593.0466     390.7071   1420.06104     593.0466     390.7071
   1420.04578     593.3257     390.4568   1420.04578     593.3257     390.4568
   1420.03052     592.2311     389.2174   1420.03052     592.2311     389.2174
   1420.01526     593.3141     389.3021   1420.01526     593.3141     389.3021
   1420.00000     594.3068     389.7076   1420.00000     594.3068     389.7076
   1419.98474     595.2995     390.1131   1419.98474     595.2995     390.1131
   1419.96948     595.0146     388.3474   1419.96948     595.0146     388.3474
   1419.95422     592.7227     386.7668   1419.95422     592.7227     386.7668
   1419.93896     593.4525     385.3820   1419.93896     593.4525     385.3820
   1419.92371     592.8690     384.7670   1419.92371     592.8690     384.7670
   1419.90845     593.7051     384.7310   1419.90845     593.7051     384.7310
   1419.89319     594.4836     384.1611   1419.89319     594.4836     384.1611
   1419.87793     594.3661     383.7532   1419.87793     594.3661     383.7532
   1419.86267     594.3955     383.5823   1419.86267     594.3955     383.5823
   1419.84741     594.9966     382.8583   1419.84741     594.9966     382.8583
   1419.83215     594.0999     381.5871   1419.83215     594.0999     381.5871
   1419.81689     596.1003     382.2666   1419.81689     596.1003     382.2666
   1419.80164     594.8700     382.3183   1419.80164     594.8700     382.3183
   1419.78638     596.3466     381.8122   1419.78638     596.3466     381.8122
   1419.77112     597.0086     381.0562   1419.77112     597.0086     381.0562
   1419.75586     596.5961     381.0283   1419.75586     596.5961     381.0283
   1419.74060     596.8035     380.5076   1419.74060     596.8035     380.5076
   1419.72534     596.6504     379.1206   1419.72534     596.6504     379.1206
   1419.71008     596.9532     379.2209   1419.71008     596.9532     379.2209
   1419.69482     598.0300     379.2537   1419.69482     598.0300     379.2537
   1419.67957     598.4244     379.8562   1419.67957     598.4244     379.8562
   1419.66431     599.3012     378.8704   1419.66431     599.3012     378.8704
   1419.64905     599.3124     378.3442   1419.64905     599.3124     378.3442
   1419.63379     599.7173     378.0947   1419.63379     599.7173     378.0947
   1419.61853     599.6407     377.9050   1419.61853     599.6407     377.9050
   1419.60327     600.3513     376.8980   1419.60327     600.3513     376.8980
   1419.58801     600.4017     377.6369   1419.58801     600.4017     377.6369
   1419.57275     600.1092     377.0854   1419.57275     600.1092     377.0854
   1419.55750     600.2643     376.9637   1419.55750     600.2643     376.9637
   1419.54224     600.6816     376.9012   1419.54224     600.6816     376.9012
   1419.52698     601.9547     377.0009   1419.52698     601.9547     377.0009
   1419.51172     601.6539     375.8393   1419.51172     601.6539     375.8393
   1419.49646     601.6495     376.0289   1419.49646     601.6495     376.0289
   1419.48120     602.6420     375.8037   1419.48120     602.6420     375.8037
   1419.46594     602.7647     375.6601   1419.46594     602.7647     375.6601
   1419.45068     603.3882     376.0583   1419.45068     603.3882     376.0583
   1419.43542     603.5880     375.3114   1419.43542     603.5880     375.3114
   1419.42017     604.9284     375.4440   1419.42017     604.9284     375.4440
   1419.40491     603.7753     375.2690   1419.40491     603.7753     375.2690
   1419.38965     604.6411     375.4083   1419.38965     604.6411     375.4083
   1419.37439     604.9140     375.0628   1419.37439     604.9140     375.0628
   1419.35913     605.4247     374.4483   1419.35913     605.4247     374.4483
   1419.34387     606.2553     375.0231   1419.34387     606.2553     375.0231
   1419.32861     606.1701     374.8842   1419.32861     606.1701     374.8842
   1419.31335     606.9590     374.7590   1419.31335     606.9590     374.7590
   1419.29810     607.3936     374.6802   1419.29810     607.3936     374.6802
   1419.28284     607.8098     374.3583   1419.28284     607.8098     374.3583
   1419.26758     607.5515     374.9044   1419.26758     607.5515     374.9044
   1419.25232     608.6241     374.1346   1419.25232     608.6241     374.1346
   1419.23706     610.2278     374.3703   1419.23706     610.2278     374.3703
   1419.22180     609.6033     374.7053   1419.22180     609.6033     374.7053
   1419.20654     610.0477     374.3888   1419.20654     610.0477     374.3888
   1419.19128     611.0593     374.7380   1419.19128     611.0593     374.7380
   1419.17603     611.1668     374.2464   1419.17603     611.1668     374.2464
   1419.16077     611.9401     374.5350   1419.16077     611.9401     374.5350
   1419.14551     612.1854     374.8387   1419.14551     612.1854     374.8387
   1419.13025     612.8649     374.8200   1419.13025     612.8649     374.8200
   1419.11499     613.4633     374.5923   1419.11499     613.4633     374.5923
   1419.09973     613.1331     374.4098   1419.09973     613.1331     374.4098
   1419.08447     614.9182     375.0229   1419.08447     614.9182     375.0229
   1419.06921     613.6933     375.0038   1419.06921     613.6933     375.0038
   1419.05396     614.8616     375.3019   1419.05396     614.8616     375.3019
   1419.03870     615.2972     374.9613   1419.03870     615.2972     374.9613
   1419.02344     616.1161     375.2255   1419.02344     616.1161     375.2255
   1419.00818     616.0886     375.5646   1419.00818     616.0886     375.5646
   1418.99292     617.5350     375.7386   1418.99292     617.5350     375.7386
   1418.97766     617.2963     376.0424   1418.97766     617.2963     376.0424
   1418.96240     618.9866     376.0814   1418.96240     618.9866     376.0814
   1418.94714     619.1042     375.6583   1418.94714     619.1042     375.6583
   1418.93188     619.7023     375.9961   1418.93188     619.7023     375.9961
   1418.91663     620.7406     376.1762   1418.91663     620.7406     376.1762
   1418.90137     619.7139     376.3387   1418.90137     619.7139     376.3387
   1418.88611     621.0446     376.7295   1418.88611     621.0446     376.7295
   1418.87085     621.8137     377.1780   1418.87085     621.8137     377.1780
   1418.85559     622.0413     376.8515   1418.85559     622.0413     376.8515
   1418.84033     622.9718     377.5394   1418.84033     622.9718     377.5394
   1418.82507     624.5438     378.0624   1418.82507     624.5438     378.0624
   1418.80981     624.5679     377.6270   1418.80981     624.5679     377.6270
   1418.79456     624.0901     377.9880   1418.79456     624.0901     377.9880
   1418.77930     625.1346     377.3519   1418.77930     625.1346     377.3519
   1418.76404     626.2258     377.9550   1418.76404     626.2258     377.9550
   1418.74878     625.6037     378.5597   1418.74878     625.6037     378.5597
   1418.73352     627.5239     378.4428   1418.73352     627.5239     378.4428
   1418.71826     628.1025     378.7026   1418.71826     628.1025     378.7026
   1418.70300     627.8514     379.0891   1418.70300     627.8514     379.0891
   1418.68774     628.7880     379.9269   1418.68774     628.7880     379.9269
   1418.67249     629.2705     380.3317   1418.67249     629.2705     380.3317
   1418.65723     629.9844     380.5003   1418.65723     629.9844     380.5003
   1418.64197     632.1047     380.5545   1418.64197     632.1047     380.5545
   1418.62671     631.7790     380.7556   1418.62671     631.7790     380.7556
   1418.61145     632.9083     381.2195   1418.61145     632.9083     381.2195
   1418.59619     633.1412     381.6195   1418.59619     633.1412     381.6195
   1418.58093     633.4188     381.7748   1418.58093     633.4188     381.7748
   1418.56567     633.8909     382.8179   1418.56567     633.8909     382.8179
   1418.55042     634.7634     382.7217   1418.55042     634.7634     382.7217
   1418.53516     635.3757     383.0011   1418.53516     635.3757     383.0011
   1418.51990     635.7651     383.0705   1418.51990     635.7651     383.0705
   1418.50464     636.3979     383.1326   1418.50464     636.3979     383.1326
   1418.48938     637.0220     384.1427   1418.48938     637.0220     384.1427
   1418.47412     637.3929     384.8056   1418.47412     637.3929     384.8056
   1418.45886     638.1876     384.6501   1418.45886     638.1876     384.6501
   1418.44360     639.8467     385.1102   1418.44360     639.8467     385.1102
   1418.42834     640.1185     385.4099   1418.42834     640.1185     385.4099
   1418.41309     640.1774     386.2056   1418.41309     640.1774     386.2056
   1418.39783     641.3702     386.3367   1418.39783     641.3702     386.3367
   1418.38257     642.2905     387.0139   1418.38257     642.2905     387.0139
   1418.36731     643.0423     387.6621   1418.36731     643.0423     387.6621
   1418.35205     643.1348     387.7790   1418.35205     643.1348     387.7790
   1418.33679     643.9320     388.0697   1418.33679     643.9320     388.0697
   1418.32153     644.3256     388.5358   1418.32153     644.3256     388.5358
   1418.30627     645.5239     388.8777   1418.30627     645.5239     388.8777
   1418.29102     646.6921     389.6833   1418.29102     646.6921     389.6833
   1418.27576     647.3292     389.9073   1418.27576     647.3292     389.9073
   1418.26050     647.2661     390.4469   1418.26050     647.2661     390.4469
   1418.24524     649.3422     390.8157   1418.24524     649.3422     390.8157
   1418.22998     649.7220     391.7520   1418.22998     649.7220     391.7520
   1418.21472     651.5483     391.5553   1418.21472     651.5483     391.5553
   1418.19946     650.4720     392.1740   1418.19946     650.4720     392.1740
   1418.18420     651.2996     392.5993   1418.18420     651.2996     392.5993
   1418.16895     651.9907     393.3509   1418.16895     651.9907     393.3509
   1418.15369     652.6964     393.2357   1418.15369     652.6964     393.2357
   1418.13843     654.0435     394.4572   1418.13843     654.0435     394.4572
   1418.12317     654.9194     394.4709   1418.12317     654.9194     394.4709
   1418.10791     655.8409     394.8898   1418.10791     655.8409     394.8898
   1418.09265     656.5297     395.0212   1418.09265     656.5297     395.0212
   1418.07739     657.8597     395.7943   1418.07739     657.8597     395.7943
   1418.06213     657.9872     396.7769   1418.06213     657.9872     396.7769
   1418.04688     658.8019     397.4441   1418.04688     658.8019     397.4441
   1418.03162     659.2173     397.1956   1418.03162     659.2173     397.1956
   1418.01636     660.9916     398.2356   1418.01636     660.9916     398.2356
   1418.00110     661.4024     398.7928   1418.00110     661.4024     398.7928
   1417.98584     661.9213     399.5174   1417.98584     661.9213     399.5174
   1417.97058     663.5696     399.9518   1417.97058     663.5696     399.9518
   1417.95532     663.8770     400.3408   1417.95532     663.8770     400.3408
   1417.94006     665.0717     401.0114   1417.94006     665.0717     401.0114
   1417.92480     665.7580     401.2954   1417.92480     665.7580     401.2954
   1417.90955     665.7735     401.6721   1417.90955     665.7735     401.6721
   1417.89429     667.2017     402.4664   1417.89429     667.2017     402.4664
   1417.87903     667.4278     403.9074   1417.87903     667.4278     403.9074
   1417.86377     668.2875     404.0381   1417.86377     668.2875     404.0381
   1417.84851     669.6816     404.3206   1417.84851     669.6816     404.3206
   1417.83325     671.0344     405.0239   1417.83325     671.0344     405.0239
   1417.81799     671.9099     405.2868   1417.81799     671.9099     405.2868
   1417.80273     671.5376     405.5887   1417.80273     671.5376     405.5887
   1417.78748     673.5717     406.2260   1417.78748     673.5717     406.2260
   1417.77222     672.9268     407.4661   1417.77222     672.9268     407.4661
   1417.75696     674.5331     407.9009   1417.75696     674.5331     407.9009
   1417.74170     675.1736     407.9674   1417.74170     675.1736     407.9674
   1417.72644     676.6816     408.6834   1417.72644     676.6816     408.6834
   1417.71118     677.3459     409.5176   1417.71118     677.3459     409.5176
   1417.69592     677.4681     410.1727   1417.69592     677.4681     410.1727
   1417.68066     677.8343     410.5859   1417.68066     677.8343     410.5859
   1417.66541     679.5571     411.5733   1417.66541     679.5571     411.5733
   1417.65015     681.0543     411.5404   1417.65015     681.0543     411.5404
   1417.63489     680.7771     412.7217   1417.63489     680.7771     412.7217
   1417.61963     682.7817     413.1145   1417.61963     682.7817     413.1145
   1417.60437     684.6729     413.6758   1417.60437     684.6729     413.6758
   1417.58911     683.8677     413.7816   1417.58911     683.8677     413.7816
   1417.57385     684.4607     414.7654   1417.57385     684.4607     414.7654
   1417.55859     684.3661     415.4284   1417.55859     684.3661     415.4284
   1417.54333     686.3408     416.0219   1417.54333     686.3408     416.0219
   1417.52808     687.7936     416.8475   1417.52808     687.7936     416.8475
   1417.51282     688.9244     417.7853   1417.51282     688.9244     417.7853
   1417.49756     689.2369     417.7361   1417.49756     689.2369     417.7361
   1417.48230     689.8420     418.7068   1417.48230     689.8420     418.7068
   1417.46704     688.8380     418.8573   1417.46704     688.8380     418.8573
   1417.45178     691.3679     420.3149   1417.45178     691.3679     420.3149
   1417.43652     692.7505     420.2186   1417.43652     692.7505     420.2186
   1417.42126     693.0178     421.5722   1417.42126     693.0178     421.5722
   1417.40601     694.9760     421.2583   1417.40601     694.9760     421.2583
   1417.39075     694.4911     422.5454   1417.39075     694.4911     422.5454
   1417.37549     695.1140     422.7132   1417.37549     695.1140     422.7132
   1417.36023     696.4138     423.3534   1417.36023     696.4138     423.3534
   1417.34497     697.2535     424.1456   1417.34497     697.2535     424.1456
   1417.32971     697.5868     424.5555   1417.32971     697.5868     424.5555
   1417.31445     698.7205     425.0755   1417.31445     698.7205     425.0755
   1417.29919     698.4191     425.4402   1417.29919     698.4191     425.4402
   1417.28394     700.1412     425.9198   1417.28394     700.1412     425.9198
   1417.26868     700.8073     426.6443   1417.26868     700.8073     426.6443
   1417.25342     701.2766     427.1259   1417.25342     701.2766     427.1259
   1417.23816     703.0089     427.8145   1417.23816     703.0089     427.8145
   1417.22290     702.8526     428.9820   1417.22290     702.8526     428.9820
   1417.20764     703.6947     429.5472   1417.20764     703.6947     429.5472
   1417.19238     704.3506     430.0147   1417.19238     704.3506     430.0147
   1417.17712     704.4286     430.0734   1417.17712     704.4286     430.0734
   1417.16187     705.7526     431.0701   1417.16187     705.7526     431.0701
   1417.14661     705.4993     431.7499   1417.14661     705.4993     431.7499
   1417.13135     707.6353     432.4459   1417.13135     707.6353     432.4459
   1417.11609     708.5540     432.2772   1417.11609     708.5540     432.2772
   1417.10083     707.6215     433.5648   1417.10083     707.6215     433.5648
   1417.08557     708.8995     433.9182   1417.08557     708.8995     433.9182
   1417.07031     710.0929     434.3822   1417.07031     710.0929     434.3822
   1417.05505     709.4302     434.0215   1417.05505     709.4302     434.0215
   1417.03979     711.4181     435.1912   1417.03979     711.4181     435.1912
   1417.02454     711.5126     436.3827   1417.02454     711.5126     436.3827
   1417.00928     711.9981     435.8907   1417.00928     711.9981     435.8907
   1416.99402     713.6517     437.1773   1416.99402     713.6517     437.1773
   1416.97876     713.8707     437.5616   1416.97876     713.8707     437.5616
   1416.96350     714.2349     438.3666   1416.96350     714.2349     438.3666
   1416.94824     716.0294     438.7759   1416.94824     716.0294     438.7759
   1416.93298     715.0082     438.3221   1416.93298     715.0082     438.3221
   1416.91772     716.0638     439.7233   1416.91772     716.0638     439.7233
   1416.90247     717.8202     439.5405   1416.90247     717.8202     439.5405
   1416.88721     716.1882     440.6562   1416.88721     716.1882     440.6562
   1416.87195     717.9489     440.5967   1416.87195     717.9489     440.5967
   1416.85669     717.8854     440.6187   1416.85669     717.8854     440.6187
   1416.84143     718.9902     441.3854   1416.84143     718.9902     441.3854
   1416.82617     718.5384     441.8085   1416.82617     718.5384     441.8085
   1416.81091     718.5397     443.3338   1416.81091     718.5397     443.3338
   1416.79565     718.7322     442.5336   1416.79565     718.7322     442.5336
   1416.78040     720.6885     443.2491   1416.78040     720.6885     443.2491
   1416.76514     720.1161     443.6555   1416.76514     720.1161     443.6555
   1416.74988     720.2792     443.8297   1416.74988     720.2792     443.8297
   1416.73462     721.1809     444.7207   1416.73462     721.1809     444.7207
   1416.71936     721.3917     444.9471   1416.71936     721.3917     444.9471
   1416.70410     722.2213     445.1452   1416.70410     722.2213     445.1452
   1416.68884     722.9243     445.2841   1416.68884     722.9243     445.2841
   1416.67358     722.6967     445.4021   1416.67358     722.6967     445.4021
   1416.65833     723.2344     446.1099   1416.65833     723.2344     446.1099
   1416.64307     722.8639     445.5890   1416.64307     722.8639     445.5890
   1416.62781     722.8763     447.0852   1416.62781     722.8763     447.0852
   1416.61255     723.9316     446.6896   1416.61255     723.9316     446.6896
   1416.59729     723.6033     447.0184   1416.59729     723.6033     447.0184
   1416.58203     723.2997     447.4406   1416.58203     723.2997     447.4406
   1416.56677     722.5517     447.8552   1416.56677     722.5517     447.8552
   1416.55151     723.9290     447.3657   1416.55151     723.9290     447.3657
   1416.53625     724.6272     447.9980   1416.53625     724.6272     447.9980
   1416.52100     722.8637     447.3718   1416.52100     722.8637     447.3718
   1416.50574     724.3524     448.5441   1416.50574     724.3524     448.5441
   1416.49048     724.7238     448.4855   1416.49048     724.7238     448.4855
   1416.47522     724.2939     448.9607   1416.47522     724.2939     448.9607
   1416.45996     722.3377     448.8253   1416.45996     722.3377     448.8253
   1416.44470     723.8094     448.3959   1416.44470     723.8094     448.3959
   1416.42944     723.7991     449.5386   1416.42944     723.7991     449.5386
   1416.41418     724.5151     449.4214   1416.41418     724.5151     449.4214
   1416.39893     725.4711     449.2366   1416.39893     725.4711     449.2366
   1416.38367     723.4522     449.2490   1416.38367     723.4522     449.2490
   1416.36841     723.8569     448.9344   1416.36841     723.8569     448.9344
   1416.35315     724.0549     449.4213   1416.35315     724.0549     449.4213
   1416.33789     723.5681     450.2996   1416.33789     723.5681     450.2996
   1416.32263     723.0292     450.1295   1416.32263     723.0292     450.1295
   1416.30737     722.9066     449.4895   1416.30737     722.9066     449.4895
   1416.29211     723.2125     449.6235   1416.29211     723.2125     449.6235
   1416.27686     722.9398     450.1517   1416.27686     722.9398     450.1517
   1416.26160     721.8281     450.0025   1416.26160     721.8281     450.0025
   1416.24634     722.4103     449.4658   1416.24634     722.4103     449.4658
   1416.23108     722.5690     449.9593   1416.23108     722.5690     449.9593
   1416.21582     721.5638     449.5593   1416.21582     721.5638     449.5593
   1416.20056     721.8464     449.7554   1416.20056     721.8464     449.7554
   1416.18530     721.0143     448.4939   1416.18530     721.0143     448.4939
   1416.17004     720.5648     449.0519   1416.17004     720.5648     449.0519
   1416.15479     720.0636     448.8440   1416.15479     720.0636     448.8440
   1416.13953     720.1354     449.1158   1416.13953     720.1354     449.1158
   1416.12427     719.6008     449.3330   1416.12427     719.6008     449.3330
   1416.10901     718.7255     449.0281   1416.10901     718.7255     449.0281
   1416.09375     719.2358     448.7972   1416.09375     719.2358     448.7972
   1416.07849     718.4542     449.0559   1416.07849     718.4542     449.0559
   1416.06323     717.9258     449.1833   1416.06323     717.9258     449.1833
   1416.04797     719.5748     449.3060   1416.04797     719.5748     449.3060
   1416.03271     717.5021     448.7482   1416.03271     717.5021     448.7482
   1416.01746     716.8278     448.4983   1416.01746     716.8278     448.4983
   1416.00220     718.1794     448.7395   1416.00220     718.1794     448.7395
   1415.98694     716.4134     448.8867   1415.98694     716.4134     448.8867
   1415.97168     715.8867     448.5685   1415.97168     715.8867     448.5685
   1415.95642     715.1456     448.1409   1415.95642     715.1456     448.1409
   1415.94116     713.8536     447.7977   1415.94116     713.8536     447.7977
   1415.92590     714.2653     447.9605   1415.92590     714.2653     447.9605
   1415.91064     712.6393     447.7518   1415.91064     712.6393     447.7518
   1415.89539     712.8219     447.0494   1415.89539     712.8219     447.0494
   1415.88013     711.6307     446.9468   1415.88013     711.6307     446.9468
   1415.86487     712.0889     447.2629   1415.86487     712.0889     447.2629
   1415.84961     710.6823     446.8737   1415.84961     710.6823     446.8737
   1415.83435     711.4879     446.8640   1415.83435     711.4879     446.8640
   1415.81909     709.5509     446.7990   1415.81909     709.5509     446.7990
   1415.80383     708.7985     446.7641   1415.80383     708.7985     446.7641
   1415.78857     708.9149     446.2715   1415.78857     708.9149     446.2715
   1415.77332     708.3031     445.3354   1415.77332     708.3031     445.3354
   1415.75806     707.2318     445.2571   1415.75806     707.2318     445.2571
   1415.74280     707.6124     446.0790   1415.74280     707.6124     446.0790
   1415.72754     705.9186     445.9254   1415.72754     705.9186     445.9254
   1415.71228     706.1092     444.8004   1415.71228     706.1092     444.8004
   1415.69702     705.1169     444.8031   1415.69702     705.1169     444.8031
   1415.68176     704.8688     444.5302   1415.68176     704.8688     444.5302
   1415.66650     703.1183     444.5360   1415.66650     703.1183     444.5360
   1415.65125     702.3934     443.6859   1415.65125     702.3934     443.6859
   1415.63599     701.3796     443.8596   1415.63599     701.3796     443.8596
   1415.62073     700.0909     443.8485   1415.62073     700.0909     443.8485
   1415.60547     699.8854     443.1420   1415.60547     699.8854     443.1420
   1415.59021     699.3107     443.3729   1415.59021     699.3107     443.3729
   1415.57495     698.1722     442.5703   1415.57495     698.1722     442.5703
   1415.55969     697.7432     442.1982   1415.55969     697.7432     442.1982
   1415.54443     696.2615     442.2303   1415.54443     696.2615     442.2303
   1415.52917     695.8781     441.7710   1415.52917     695.8781     441.7710
   1415.51392     694.6581     442.0958   1415.51392     694.6581     442.0958
   1415.49866     693.9563     440.2351   1415.49866     693.9563     440.2351
   1415.48340     692.3437     440.6451   1415.48340     692.3437     440.6451
   1415.46814     692.2504     441.1237   1415.46814     692.2504     441.1237
   1415.45288     690.8486     440.4447   1415.45288     690.8486     440.4447
   1415.43762     689.8167     439.6999   1415.43762     689.8167     439.6999
   1415.42236     689.9274     439.5335   1415.42236     689.9274     439.5335
   1415.40710     688.1954     439.2198   1415.40710     688.1954     439.2198
   1415.39185     686.9850     438.4508   1415.39185     686.9850     438.4508
   1415.37659     686.8807     438.4622   1415.37659     686.8807     438.4622
   1415.36133     685.5158     438.6619   1415.36133     685.5158     438.6619
   1415.34607     684.6309     438.0721   1415.34607     684.6309     438.0721
   1415.33081     684.0830     436.5954   1415.33081     684.0830     436.5954
   1415.31555     681.8903     436.4303   1415.31555     681.8903     436.4303
   1415.30029     681.0389     436.5642   1415.30029     681.0389     436.5642
   1415.28503     679.8443     436.0777   1415.28503     679.8443     436.0777
   1415.26978     679.0256     435.8443   1415.26978     679.0256     435.8443
   1415.25452     677.8477     435.1593   1415.25452     677.8477     435.1593
   1415.23926     676.5906     435.0740   1415.23926     676.5906     435.0740
   1415.22400     675.4711     434.2340   1415.22400     675.4711     434.2340
   1415.20874     674.2093     434.1317   1415.20874     674.2093     434.1317
   1415.19348     673.4901     433.3104   1415.19348     673.4901     433.3104
   1415.17822     671.2921     432.9395   1415.17822     671.2921     432.9395
   1415.16296     670.6331     432.5787   1415.16296     670.6331     432.5787
   1415.14771     667.8528     432.1767   1415.14771     667.8528     432.1767
   1415.13245     667.3345     431.9372   1415.13245     667.3345     431.9372
   1415.11719     666.2939     431.2731   1415.11719     666.2939     431.2731
   1415.10193     665.6790     430.8463   1415.10193     665.6790     430.8463
   1415.08667     663.4805     430.2605   1415.08667     663.4805     430.2605
   1415.07141     663.3063     429.5076   1415.07141     663.3063     429.5076
   1415.05615     660.3207     429.4034   1415.05615     660.3207     429.4034
   1415.04089     658.4385     428.9596   1415.04089     658.4385     428.9596
   1415.02563     658.8589     427.9345   1415.02563     658.8589     427.9345
   1415.01038     656.9461     427.6855   1415.01038     656.9461     427.6855
   1414.99512     655.2252     427.2034   1414.99512     655.2252     427.2034
   1414.97986     654.0480     426.7838   1414.97986     654.0480     426.7838
   1414.96460     652.6298     425.7110   1414.96460     652.6298     425.7110
   1414.94934     651.1249     425.1187   1414.94934     651.1249     425.1187
   1414.93408     648.5623     423.9871   1414.93408     648.5623     423.9871
   1414.91882     646.9067     424.0063   1414.91882     646.9067     424.0063
   1414.90356     645.3531     423.3148   1414.90356     645.3531     423.3148
   1414.88831     644.3755     423.0824   1414.88831     644.3755     423.0824
   1414.87305     641.5999     421.9995   1414.87305     641.5999     421.9995
   1414.85779     640.7529     422.0037   1414.85779     640.7529     422.0037
   1414.84253     638.6751     421.0349   1414.84253     638.6751     421.0349
   1414.82727     636.7838     420.1824   1414.82727     636.7838     420.1824
   1414.81201     635.3752     419.1184   1414.81201     635.3752     419.1184
   1414.79675     633.3809     419.2186   1414.79675     633.3809     419.2186
   1414.78149     632.5664     417.9435   1414.78149     632.5664     417.9435
   1414.76624     630.1858     417.7746   1414.76624     630.1858     417.7746
   1414.75098     628.2602     416.5103   1414.75098     628.2602     416.5103
   1414.73572     627.0361     415.6670   1414.73572     627.0361     415.6670
   1414.72046     625.4369     414.9885   1414.72046     625.4369     414.9885
   1414.70520     622.9745     414.1397   1414.70520     622.9745     414.1397
   1414.68994     620.9705     413.3584   1414.68994     620.9705     413.3584
   1414.67468     617.8590     412.6106   1414.67468     617.8590     412.6106
   1414.65942     617.0491     411.3464   1414.65942     617.0491     411.3464
   1414.64417     615.8082     411.4999   1414.64417     615.8082     411.4999
   1414.62891     613.0229     411.0818   1414.62891     613.0229     411.0818
   1414.61365     611.0975     409.4910   1414.61365     611.0975     409.4910
   1414.59839     608.8000     408.5703   1414.59839     608.8000     408.5703
   1414.58313     607.5997     408.4121   1414.58313     607.5997     408.4121
   1414.56787     605.4056     407.6252   1414.56787     605.4056     407.6252
   1414.55261     603.8354     406.4976   1414.55261     603.8354     406.4976
   1414.53735     600.2047     405.7289   1414.53735     600.2047     405.7289
   1414.52209     597.9193     404.1954   1414.52209     597.9193     404.1954
   1414.50684     595.9132     403.8591   1414.50684     595.9132     403.8591
   1414.49158     594.7751     402.6546   1414.49158     594.7751     402.6546
   1414.47632     591.7446     402.3288   1414.47632     591.7446     402.3288
   1414.46106     589.6610     401.8116   1414.46106     589.6610     401.8116
   1414.44580     587.6119     400.0876   1414.44580     587.6119     400.0876
   1414.43054     585.4519     398.9017   1414.43054     585.4519     398.9017
   1414.41528     583.2106     398.4598   1414.41528     583.2106     398.4598
   1414.40002     582.1030     397.4386   1414.40002     582.1030     397.4386
   1414.38477     578.1075     396.0374   1414.38477     578.1075     396.0374
   1414.36951     575.9988     395.4105   1414.36951     575.9988     395.4105
   1414.35425     574.3209     394.5309   1414.35425     574.3209     394.5309
   1414.33899     572.3426     393.4701   1414.33899     572.3426     393.4701
   1414.32373     569.7886     392.1220   1414.32373     569.7886     392.1220
   1414.30847     567.7951     391.6008   1414.30847     567.7951     391.6008
   1414.29321     564.3304     390.0467   1414.29321     564.3304     390.0467
   1414.27795     562.5469     388.7533   1414.27795     562.5469     388.7533
   1414.26270     560.4720     387.5781   1414.26270     560.4720     387.5781
   1414.24744     557.2363     387.2201   1414.24744     557.2363     387.2201
   1414.23218     554.3159     385.8743   1414.23218     554.3159     385.8743
   1414.21692     552.3922     384.3458   1414.21692     552.3922     384.3458
   1414.20166     549.7617     383.6057   1414.20166     549.7617     383.6057
   1414.18640     547.3922     382.3903   1414.18640     547.3922     382.3903
   1414.17114     544.4883     381.1617   1414.17114     544.4883     381.1617
   1414.15588     542.2770     380.5722   1414.15588     542.2770     380.5722
   1414.14062     539.6860     378.5552   1414.14062     539.6860     378.5552
   1414.12537     537.9551     377.5316   1414.12537     537.9551     377.5316
   1414.11011     534.1228     376.8372   1414.11011     534.1228     376.8372
   1414.09485     532.0883     375.7133   1414.09485     532.0883     375.7133
   1414.07959     530.5801     373.9318   1414.07959     530.5801     373.9318
   1414.06433     527.2910     373.0162   1414.06433     527.2910     373.0162
   1414.04907     524.2311     371.6867   1414.04907     524.2311     371.6867
   1414.03381     522.5358     370.8957   1414.03381     522.5358     370.8957
   1414.01855     519.7263     369.4791   1414.01855     519.7263     369.4791
   1414.00330     541.6443     379.2117   1414.00330     541.6443     379.2117
   1413.98804     515.7280     367.5785   1413.98804     515.7280     367.5785
   1413.97278     511.3641     365.3192   1413.97278     511.3641     365.3192
   1413.95752     508.4856     364.5428   1413.95752     508.4856     364.5428
   1413.94226     505.3403     363.4010   1413.94226     505.3403     363.4010
   1413.92700     502.3329     361.1910   1413.92700     502.3329     361.1910
   1413.91174     500.0706     359.8418   1413.91174     500.0706     359.8418
   1413.89648     497.2455     359.0606   1413.89648     497.2455     359.0606
   1413.88123     494.2079     358.0860   1413.88123     494.2079     358.0860
   1413.86597     491.8588     357.1587   1413.86597     491.8588     357.1587
   1413.85071     489.4769     354.9531   1413.85071     489.4769     354.9531
   1413.83545     485.9070     353.8550   1413.83545     485.9070     353.8550
   1413.82019     484.0646     352.0296   1413.82019     484.0646     352.0296
   1413.80493     481.6914     350.9338   1413.80493     481.6914     350.9338
   1413.78967     478.3372     349.6385   1413.78967     478.3372     349.6385
   1413.77441     476.1526     348.1909   1413.77441     476.1526     348.1909
   1413.75916     472.4208     347.1169   1413.75916     472.4208     347.1169
   1413.74390     469.9810     346.0066   1413.74390     469.9810     346.0066
   1413.72864     467.3440     344.8866   1413.72864     467.3440     344.8866
   1413.71338     464.5273     342.8589   1413.71338     464.5273     342.8589
   1413.69812     461.7952     340.8756   1413.69812     461.7952     340.8756
   1413.68286     459.2297     340.0247   1413.68286     459.2297     340.0247
   1413.66760     456.7135     338.0208   1413.66760     456.7135     338.0208
   1413.65234     453.8428     337.8202   1413.65234     453.8428     337.8202
   1413.63708     450.4006     335.8791   1413.63708     450.4006     335.8791
   1413.62183     448.0251     334.6586   1413.62183     448.0251     334.6586
   1413.60657     445.4402     332.9878   1413.60657     445.4402     332.9878
   1413.59131     442.7968     331.8050   1413.59131     442.7968     331.8050
   1413.57605     440.4149     330.3502   1413.57605     440.4149     330.3502
   1413.56079     437.0588     328.9687   1413.56079     437.0588     328.9687
   1413.54553     434.8705     327.4127   1413.54553     434.8705     327.4127
   1413.53027     432.0628     326.3949   1413.53027     432.0628     326.3949
   1413.51501     429.2702     324.6197   1413.51501     429.2702     324.6197
   1413.49976     426.4128     323.3356   1413.49976     426.4128     323.3356
   1413.48450     423.8270     321.5992   1413.48450     423.8270     321.5992
   1413.46924     421.3183     319.7772   1413.46924     421.3183     319.7772
   1413.45398     418.9418     319.2127   1413.45398     418.9418     319.2127
   1413.43872     415.7682     317.8432   1413.43872     415.7682     317.8432
   1413.42346     413.4356     316.5661   1413.42346     413.4356     316.5661
   1413.40820     411.4279     315.1821   1413.40820     411.4279     315.1821
   1413.39294     408.6250     313.4696   1413.39294     408.6250     313.4696
   1413.37769     406.1421     312.2874   1413.37769     406.1421     312.2874
   1413.36243     403.0779     311.3002   1413.36243     403.0779     311.3002
   1413.34717     400.6805     309.0681   1413.34717     400.6805     309.0681
   1413.33191     398.5000     307.7584   1413.33191     398.5000     307.7584
   1413.31665     395.2906     306.4933   1413.31665     395.2906     306.4933
   1413.30139     393.7531     305.2644   1413.30139     393.7531     305.2644
   1413.28613     390.8772     303.8441   1413.28613     390.8772     303.8441
   1413.27087     388.3099     302.3540   1413.27087     388.3099     302.3540
   1413.25562     385.8953     301.2983   1413.25562     385.8953     301.2983
   1413.24036     383.3642     299.5883   1413.24036     383.3642     299.5883
   1413.22510     382.0011     298.2407   1413.22510     382.0011     298.2407
   1413.20984     379.1779     296.9622   1413.20984     379.1779     296.9622
   1413.19458     376.5548     295.6564   1413.19458     376.5548     295.6564
   1413.17932     374.9930     294.4262   1413.17932     374.9930     294.4262
   1413.16406     372.4183     292.9345   1413.16406     372.4183     292.9345
   1413.14880     370.5594     292.0277   1413.14880     370.5594     292.0277
   1413.13354     368.0076     291.0241   1413.13354     368.0076     291.0241
   1413.11829     365.9964     289.6927   1413.11829     365.9964     289.6927
   1413.10303     363.6935     287.9315   1413.10303     363.6935     287.9315
   1413.08777     361.9651     286.8094   1413.08777     361.9651     286.8094
   1413.07251     359.8708     285.7251   1413.07251     359.8708     285.7251
   1413.05725     357.4734     284.3792   1413.05725     357.4734     284.3792
   1413.04199     355.4725     283.5689   1413.04199     355.4725     283.5689
   1413.02673     353.4122     282.1549   1413.02673     353.4122     282.1549
   1413.01147     352.1211     281.2733   1413.01147     352.1211     281.2733
   1412.99622     349.6381     279.6339   1412.99622     349.6381     279.6339
   1412.98096     347.6359     278.7980   1412.98096     347.6359     278.7980
   1412.96570     345.9970     277.5970   1412.96570     345.9970     277.5970
   1412.95044     344.2503     276.8322   1412.95044     344.2503     276.8322
   1412.93518     342.6262     275.5379   1412.93518     342.6262     275.5379
   1412.91992     340.4753     274.6840   1412.91992     340.4753     274.6840
   1412.90466     338.7002     273.3493   1412.90466     338.7002     273.3493
   1412.88940     337.2177     272.5414   1412.88940     337.2177     272.5414
   1412.87415     335.3911     271.3250   1412.87415     335.3911     271.3250
   1412.85889     334.0913     270.8653   1412.85889     334.0913     270.8653
   1412.84363     332.2007     269.6581   1412.84363     332.2007     269.6581
   1412.82837     330.7428     268.5363   1412.82837     330.7428     268.5363
   1412.81311     329.7233     268.2608   1412.81311     329.7233     268.2608
   1412.79785     328.3378     266.8358   1412.79785     328.3378     266.8358
   1412.78259     327.3589     266.7054   1412.78259     327.3589     266.7054
   1412.76733     325.2711     265.2369   1412.76733     325.2711     265.2369
   1412.75208     323.7764     264.4504   1412.75208     323.7764     264.4504
   1412.73682     322.5464     264.0872   1412.73682     322.5464     264.0872
   1412.72156     321.8348     263.0890   1412.72156     321.8348     263.0890
   1412.70630     320.2357     262.3286   1412.70630     320.2357     262.3286
   1412.69104     319.4127     262.1456   1412.69104     319.4127     262.1456
   1412.67578     318.2217     261.0184   1412.67578     318.2217     261.0184
   1412.66052     317.6724     260.8011   1412.66052     317.6724     260.8011
   1412.64526     316.4921     259.9699   1412.64526     316.4921     259.9699
   1412.63000     315.3206     259.4426   1412.63000     315.3206     259.4426
   1412.61475     314.5237     259.1831   1412.61475     314.5237     259.1831
   1412.59949     313.7442     258.6174   1412.59949     313.7442     258.6174
   1412.58423     312.4970     257.9313   1412.58423     312.4970     257.9313
   1412.56897     311.7150     257.8632   1412.56897     311.7150     257.8632
   1412.55371     311.1494     256.8364   1412.55371     311.1494     256.8364
   1412.53845     310.7206     256.5070   1412.53845     310.7206     256.5070
   1412.52319     309.8625     256.2993   1412.52319     309.8625     256.2993
   1412.50793     309.0940     256.2297   1412.50793     309.0940     256.2297
   1412.49268     308.6186     255.8167   1412.49268     308.6186     255.8167
   1412.47742     308.3024     255.3657   1412.47742     308.3024     255.3657
   1412.46216     307.9904     255.3874   1412.46216     307.9904     255.3874
   1412.44690     307.5616     255.2257   1412.44690     307.5616     255.2257
   1412.43164     307.3914     254.9116   1412.43164     307.3914     254.9116
   1412.41638     306.8560     255.1040   1412.41638     306.8560     255.1040
   1412.40112     306.7648     254.6162   1412.40112     306.7648     254.6162
   1412.38586     306.5437     254.7823   1412.38586     306.5437     254.7823
   1412.37061     306.4764     254.8221   1412.37061     306.4764     254.8221
   1412.35535     306.2901     255.0670   1412.35535     306.2901     255.0670
   1412.34009     306.0934     255.0209   1412.34009     306.0934     255.0209
   1412.32483     305.9518     255.3188   1412.32483     305.9518     255.3188
   1412.30957     306.4091     255.8507   1412.30957     306.4091     255.8507
   1412.29431     306.2739     256.0391   1412.29431     306.2739     256.0391
   1412.27905     306.0348     255.9700   1412.27905     306.0348     255.9700
   1412.26379     306.5656     255.9727   1412.26379     306.5656     255.9727
   1412.24854     307.1045     256.5467   1412.24854     307.1045     256.5467
   1412.23328     306.7297     257.0682   1412.23328     306.7297     257.0682
   1412.21802     307.6602     256.8315   1412.21802     307.6602     256.8315
   1412.20276     307.9300     257.4099   1412.20276     307.9300     257.4099