#     FILENAME=!Skynet_57528_lach-cc-245_20661_21037.cyb.fits
#     BASENAME=Skynet_57528_lach-cc-245_20661_21037
#     SRC_NAME=lach-cc-245
#     OBSERVER=ccmadison16_9505
#     DATE_OBS=2016-05-20T19:50:32.120
#        OBSID=20661
#      SCANNUM=21037
#          MJD=57528.8278
#          UTC=71520
#     SCANTYPE=track
#     DATAMODE=HIRES
#     TUNEFREQ=1420.0000
# Actual_FREQ1=1420.0000
# Actual_FREQ2=1420.0000
#    LO1Tuning=6870.000
#     RFFILTER=1355_1435
#        OBSBW=-15.6250
#        NCHAN=1024 
#        FOCUS=37.0709
#           RA=07:55:17.12
#          DEC=-28:11:52.12
#      RA(hrs)=7.921400
#     DEC(deg)=-28.197800
#    AZIM(deg)=158.637
#    ELEV(deg)=19.989
#     IFattens=11.00, 10.00
#      WARNING=None
#    TCAL_XL1=7.9635
#    TCAL_YR1=9.1340
#    TCAL_XL2=7.9635
#    TCAL_YR2=9.1340
#     TRX_XL1=11.7060
#     TRX_YR1=11.7060
#     TRX_XL2=11.7060
#     TRX_YR2=11.7060
#        TAVE=1.0000
#Freq1(MHz)          XL1          YR1  Freq2(MHz)          XL2          YR2 

   1427.81250     298.8649     241.1237   1427.81250     298.8649     241.1237
   1427.79724     299.1294     241.1146   1427.79724     299.1294     241.1146
   1427.78198     300.0768     241.3046   1427.78198     300.0768     241.3046
   1427.76672     300.8223     242.1505   1427.76672     300.8223     242.1505
   1427.75146     301.2527     242.5946   1427.75146     301.2527     242.5946
   1427.73621     302.0591     242.7364   1427.73621     302.0591     242.7364
   1427.72095     303.2007     243.4031   1427.72095     303.2007     243.4031
   1427.70569     303.4362     243.9026   1427.70569     303.4362     243.9026
   1427.69043     304.5999     244.7082   1427.69043     304.5999     244.7082
   1427.67517     305.3437     245.5920   1427.67517     305.3437     245.5920
   1427.65991     306.2475     245.8357   1427.65991     306.2475     245.8357
   1427.64465     307.4449     246.8989   1427.64465     307.4449     246.8989
   1427.62939     308.5104     247.3339   1427.62939     308.5104     247.3339
   1427.61414     309.7127     247.4069   1427.61414     309.7127     247.4069
   1427.59888     310.5973     248.9684   1427.59888     310.5973     248.9684
   1427.58362     312.0711     249.8887   1427.58362     312.0711     249.8887
   1427.56836     312.3020     250.5293   1427.56836     312.3020     250.5293
   1427.55310     314.0787     251.3438   1427.55310     314.0787     251.3438
   1427.53784     315.4049     252.5190   1427.53784     315.4049     252.5190
   1427.52258     316.5107     253.4122   1427.52258     316.5107     253.4122
   1427.50732     316.9409     254.3488   1427.50732     316.9409     254.3488
   1427.49207     319.1599     255.7296   1427.49207     319.1599     255.7296
   1427.47681     320.4532     256.4280   1427.47681     320.4532     256.4280
   1427.46155     321.9224     257.6201   1427.46155     321.9224     257.6201
   1427.44629     323.0670     258.8385   1427.44629     323.0670     258.8385
   1427.43103     324.9911     260.1195   1427.43103     324.9911     260.1195
   1427.41577     326.5932     261.5276   1427.41577     326.5932     261.5276
   1427.40051     328.4849     262.4162   1427.40051     328.4849     262.4162
   1427.38525     329.0403     263.5085   1427.38525     329.0403     263.5085
   1427.37000     331.4312     265.0553   1427.37000     331.4312     265.0553
   1427.35474     333.0496     266.3567   1427.35474     333.0496     266.3567
   1427.33948     334.4339     267.7999   1427.33948     334.4339     267.7999
   1427.32422     336.8098     269.3655   1427.32422     336.8098     269.3655
   1427.30896     338.1851     270.1829   1427.30896     338.1851     270.1829
   1427.29370     339.9919     271.6020   1427.29370     339.9919     271.6020
   1427.27844     341.8146     273.5277   1427.27844     341.8146     273.5277
   1427.26318     343.1551     275.1826   1427.26318     343.1551     275.1826
   1427.24792     345.6918     276.1261   1427.24792     345.6918     276.1261
   1427.23267     347.1649     277.2646   1427.23267     347.1649     277.2646
   1427.21741     349.7409     279.6006   1427.21741     349.7409     279.6006
   1427.20215     351.1181     281.2317   1427.20215     351.1181     281.2317
   1427.18689     352.9953     282.5975   1427.18689     352.9953     282.5975
   1427.17163     355.1644     283.9751   1427.17163     355.1644     283.9751
   1427.15637     357.0836     286.1912   1427.15637     357.0836     286.1912
   1427.14111     358.9800     287.7883   1427.14111     358.9800     287.7883
   1427.12585     361.0269     289.7842   1427.12585     361.0269     289.7842
   1427.11060     363.6030     291.4479   1427.11060     363.6030     291.4479
   1427.09534     365.7313     293.1141   1427.09534     365.7313     293.1141
   1427.08008     367.9938     294.6395   1427.08008     367.9938     294.6395
   1427.06482     370.5752     296.5438   1427.06482     370.5752     296.5438
   1427.04956     371.6581     298.4949   1427.04956     371.6581     298.4949
   1427.03430     374.4572     299.8783   1427.03430     374.4572     299.8783
   1427.01904     376.6454     302.3289   1427.01904     376.6454     302.3289
   1427.00378     378.7246     303.9436   1427.00378     378.7246     303.9436
   1426.98853     380.8864     305.8460   1426.98853     380.8864     305.8460
   1426.97327     383.1604     307.5630   1426.97327     383.1604     307.5630
   1426.95801     385.3033     309.9262   1426.95801     385.3033     309.9262
   1426.94275     388.0446     311.5654   1426.94275     388.0446     311.5654
   1426.92749     389.7213     313.3950   1426.92749     389.7213     313.3950
   1426.91223     392.6197     315.8289   1426.91223     392.6197     315.8289
   1426.89697     395.1788     317.6199   1426.89697     395.1788     317.6199
   1426.88171     397.3972     319.6444   1426.88171     397.3972     319.6444
   1426.86646     399.7072     321.9110   1426.86646     399.7072     321.9110
   1426.85120     401.7381     324.0076   1426.85120     401.7381     324.0076
   1426.83594     404.2826     325.4846   1426.83594     404.2826     325.4846
   1426.82068     406.9380     327.7585   1426.82068     406.9380     327.7585
   1426.80542     408.8957     330.0394   1426.80542     408.8957     330.0394
   1426.79016     411.8892     332.2273   1426.79016     411.8892     332.2273
   1426.77490     413.6454     333.9308   1426.77490     413.6454     333.9308
   1426.75964     416.0609     336.2755   1426.75964     416.0609     336.2755
   1426.74438     418.1587     338.1144   1426.74438     418.1587     338.1144
   1426.72913     421.0459     340.5593   1426.72913     421.0459     340.5593
   1426.71387     423.0995     342.8753   1426.71387     423.0995     342.8753
   1426.69861     425.1757     344.5443   1426.69861     425.1757     344.5443
   1426.68335     428.0760     347.2760   1426.68335     428.0760     347.2760
   1426.66809     430.6444     348.8958   1426.66809     430.6444     348.8958
   1426.65283     433.6961     351.0413   1426.65283     433.6961     351.0413
   1426.63757     435.8761     353.4422   1426.63757     435.8761     353.4422
   1426.62231     440.1842     360.6371   1426.62231     440.1842     360.6371
   1426.60706     440.7071     357.8044   1426.60706     440.7071     357.8044
   1426.59180     443.0473     359.9178   1426.59180     443.0473     359.9178
   1426.57654     444.8616     361.5552   1426.57654     444.8616     361.5552
   1426.56128     447.6408     364.5582   1426.56128     447.6408     364.5582
   1426.54602     449.7140     366.4886   1426.54602     449.7140     366.4886
   1426.53076     452.0397     368.2611   1426.53076     452.0397     368.2611
   1426.51550     454.9958     370.1901   1426.51550     454.9958     370.1901
   1426.50024     456.9697     373.5106   1426.50024     456.9697     373.5106
   1426.48499     459.1441     374.4789   1426.48499     459.1441     374.4789
   1426.46973     462.0093     376.8163   1426.46973     462.0093     376.8163
   1426.45447     463.3043     379.8949   1426.45447     463.3043     379.8949
   1426.43921     466.0759     381.2626   1426.43921     466.0759     381.2626
   1426.42395     468.5664     384.1863   1426.42395     468.5664     384.1863
   1426.40869     470.9836     385.4085   1426.40869     470.9836     385.4085
   1426.39343     473.4907     388.1694   1426.39343     473.4907     388.1694
   1426.37817     475.5372     389.9738   1426.37817     475.5372     389.9738
   1426.36292     477.4300     391.8284   1426.36292     477.4300     391.8284
   1426.34766     479.9486     394.2726   1426.34766     479.9486     394.2726
   1426.33240     482.0281     396.3341   1426.33240     482.0281     396.3341
   1426.31714     484.2860     398.3599   1426.31714     484.2860     398.3599
   1426.30188     486.4133     400.7969   1426.30188     486.4133     400.7969
   1426.28662     489.0661     402.4420   1426.28662     489.0661     402.4420
   1426.27136     491.4777     404.4146   1426.27136     491.4777     404.4146
   1426.25610     494.1148     406.4300   1426.25610     494.1148     406.4300
   1426.24084     495.5044     409.5156   1426.24084     495.5044     409.5156
   1426.22559     497.5033     411.4854   1426.22559     497.5033     411.4854
   1426.21033     500.3158     412.9997   1426.21033     500.3158     412.9997
   1426.19507     502.2143     415.3009   1426.19507     502.2143     415.3009
   1426.17981     504.4676     417.6509   1426.17981     504.4676     417.6509
   1426.16455     505.7907     419.1606   1426.16455     505.7907     419.1606
   1426.14929     509.1642     421.3459   1426.14929     509.1642     421.3459
   1426.13403     510.5750     424.2029   1426.13403     510.5750     424.2029
   1426.11877     512.6492     426.0957   1426.11877     512.6492     426.0957
   1426.10352     515.4149     426.8206   1426.10352     515.4149     426.8206
   1426.08826     516.1607     430.1092   1426.08826     516.1607     430.1092
   1426.07300     518.5008     431.8644   1426.07300     518.5008     431.8644
   1426.05774     519.6324     433.8976   1426.05774     519.6324     433.8976
   1426.04248     522.4443     435.2401   1426.04248     522.4443     435.2401
   1426.02722     523.4981     438.1817   1426.02722     523.4981     438.1817
   1426.01196     526.0241     439.5557   1426.01196     526.0241     439.5557
   1425.99670     527.7936     441.6818   1425.99670     527.7936     441.6818
   1425.98145     530.1649     443.6118   1425.98145     530.1649     443.6118
   1425.96619     531.4473     445.2080   1425.96619     531.4473     445.2080
   1425.95093     533.2900     447.6783   1425.95093     533.2900     447.6783
   1425.93567     535.1884     449.5942   1425.93567     535.1884     449.5942
   1425.92041     536.7534     450.5656   1425.92041     536.7534     450.5656
   1425.90515     538.6802     454.2780   1425.90515     538.6802     454.2780
   1425.88989     540.0147     454.4652   1425.88989     540.0147     454.4652
   1425.87463     541.9564     456.8081   1425.87463     541.9564     456.8081
   1425.85938     543.3786     459.4375   1425.85938     543.3786     459.4375
   1425.84412     545.8216     460.1974   1425.84412     545.8216     460.1974
   1425.82886     546.2730     461.9071   1425.82886     546.2730     461.9071
   1425.81360     547.6246     463.7585   1425.81360     547.6246     463.7585
   1425.79834     551.0370     465.6143   1425.79834     551.0370     465.6143
   1425.78308     552.3284     467.7159   1425.78308     552.3284     467.7159
   1425.76782     553.8278     469.4610   1425.76782     553.8278     469.4610
   1425.75256     555.5109     471.1651   1425.75256     555.5109     471.1651
   1425.73730     556.2785     472.6436   1425.73730     556.2785     472.6436
   1425.72205     556.8772     474.4349   1425.72205     556.8772     474.4349
   1425.70679     559.6257     475.9542   1425.70679     559.6257     475.9542
   1425.69153     560.4996     477.0118   1425.69153     560.4996     477.0118
   1425.67627     560.8181     479.3475   1425.67627     560.8181     479.3475
   1425.66101     561.9675     481.5199   1425.66101     561.9675     481.5199
   1425.64575     564.2838     482.6412   1425.64575     564.2838     482.6412
   1425.63049     565.7656     484.3573   1425.63049     565.7656     484.3573
   1425.61523     567.9930     485.5688   1425.61523     567.9930     485.5688
   1425.59998     567.5394     487.3093   1425.59998     567.5394     487.3093
   1425.58472     569.7198     488.9062   1425.58472     569.7198     488.9062
   1425.56946     571.4972     490.0540   1425.56946     571.4972     490.0540
   1425.55420     571.8422     491.5795   1425.55420     571.8422     491.5795
   1425.53894     572.1165     494.1942   1425.53894     572.1165     494.1942
   1425.52368     575.1486     495.8340   1425.52368     575.1486     495.8340
   1425.50842     575.7394     496.3553   1425.50842     575.7394     496.3553
   1425.49316     575.6564     497.4040   1425.49316     575.6564     497.4040
   1425.47791     578.0309     499.3939   1425.47791     578.0309     499.3939
   1425.46265     577.9304     501.2267   1425.46265     577.9304     501.2267
   1425.44739     579.4601     502.0643   1425.44739     579.4601     502.0643
   1425.43213     579.5862     503.8988   1425.43213     579.5862     503.8988
   1425.41687     583.1596     506.0226   1425.41687     583.1596     506.0226
   1425.40161     582.4377     506.4378   1425.40161     582.4377     506.4378
   1425.38635     584.0954     508.2193   1425.38635     584.0954     508.2193
   1425.37109     584.3022     509.8206   1425.37109     584.3022     509.8206
   1425.35583     584.8344     510.3154   1425.35583     584.8344     510.3154
   1425.34058     585.6597     511.4281   1425.34058     585.6597     511.4281
   1425.32532     586.1852     512.8669   1425.32532     586.1852     512.8669
   1425.31006     587.2716     513.4594   1425.31006     587.2716     513.4594
   1425.29480     588.4966     515.8303   1425.29480     588.4966     515.8303
   1425.27954     588.7331     516.7095   1425.27954     588.7331     516.7095
   1425.26428     589.9479     518.2156   1425.26428     589.9479     518.2156
   1425.24902     590.9083     519.4177   1425.24902     590.9083     519.4177
   1425.23376     591.0253     520.6819   1425.23376     591.0253     520.6819
   1425.21851     591.8527     521.8609   1425.21851     591.8527     521.8609
   1425.20325     592.5729     523.3881   1425.20325     592.5729     523.3881
   1425.18799     594.3938     524.3613   1425.18799     594.3938     524.3613
   1425.17273     593.6923     525.3318   1425.17273     593.6923     525.3318
   1425.15747     594.5557     526.2825   1425.15747     594.5557     526.2825
   1425.14221     595.5842     527.2606   1425.14221     595.5842     527.2606
   1425.12695     594.9086     527.9321   1425.12695     594.9086     527.9321
   1425.11169     595.8811     530.3110   1425.11169     595.8811     530.3110
   1425.09644     597.2219     530.8721   1425.09644     597.2219     530.8721
   1425.08118     597.8405     532.1589   1425.08118     597.8405     532.1589
   1425.06592     597.0557     533.0684   1425.06592     597.0557     533.0684
   1425.05066     597.8123     533.8112   1425.05066     597.8123     533.8112
   1425.03540     599.6566     535.2639   1425.03540     599.6566     535.2639
   1425.02014     599.3608     536.5528   1425.02014     599.3608     536.5528
   1425.00488     599.1201     537.2513   1425.00488     599.1201     537.2513
   1424.98962     601.2106     538.2046   1424.98962     601.2106     538.2046
   1424.97437     600.5627     538.5719   1424.97437     600.5627     538.5719
   1424.95911     601.4572     539.7852   1424.95911     601.4572     539.7852
   1424.94385     601.4293     540.7534   1424.94385     601.4293     540.7534
   1424.92859     601.4293     541.9055   1424.92859     601.4293     541.9055
   1424.91333     602.2904     542.6700   1424.91333     602.2904     542.6700
   1424.89807     601.1394     543.3737   1424.89807     601.1394     543.3737
   1424.88281     602.7338     543.7523   1424.88281     602.7338     543.7523
   1424.86755     602.8251     545.5247   1424.86755     602.8251     545.5247
   1424.85229     603.6788     547.1158   1424.85229     603.6788     547.1158
   1424.83704     603.5317     547.2955   1424.83704     603.5317     547.2955
   1424.82178     604.2104     548.0353   1424.82178     604.2104     548.0353
   1424.80652     603.8590     548.7687   1424.80652     603.8590     548.7687
   1424.79126     603.7344     549.3180   1424.79126     603.7344     549.3180
   1424.77600     604.7490     549.4818   1424.77600     604.7490     549.4818
   1424.76074     604.5400     550.8348   1424.76074     604.5400     550.8348
   1424.74548     604.3813     551.9248   1424.74548     604.3813     551.9248
   1424.73022     604.1644     551.9407   1424.73022     604.1644     551.9407
   1424.71497     605.2574     552.8971   1424.71497     605.2574     552.8971
   1424.69971     604.9348     554.2588   1424.69971     604.9348     554.2588
   1424.68445     605.8270     555.4781   1424.68445     605.8270     555.4781
   1424.66919     605.2826     555.9035   1424.66919     605.2826     555.9035
   1424.65393     605.4907     555.6420   1424.65393     605.4907     555.6420
   1424.63867     605.4511     557.3295   1424.63867     605.4511     557.3295
   1424.62341     606.3688     557.7330   1424.62341     606.3688     557.7330
   1424.60815     605.7514     557.8360   1424.60815     605.7514     557.8360
   1424.59290     606.2531     558.0899   1424.59290     606.2531     558.0899
   1424.57764     605.7824     559.1171   1424.57764     605.7824     559.1171
   1424.56238     606.0272     559.2635   1424.56238     606.0272     559.2635
   1424.54712     605.1037     560.4271   1424.54712     605.1037     560.4271
   1424.53186     606.9754     560.8552   1424.53186     606.9754     560.8552
   1424.51660     605.8661     560.6942   1424.51660     605.8661     560.6942
   1424.50134     605.9654     562.8894   1424.50134     605.9654     562.8894
   1424.48608     606.6541     563.3296   1424.48608     606.6541     563.3296
   1424.47083     605.6628     563.0812   1424.47083     605.6628     563.0812
   1424.45557     605.9033     563.9349   1424.45557     605.9033     563.9349
   1424.44031     605.6051     563.7113   1424.44031     605.6051     563.7113
   1424.42505     606.4233     564.6885   1424.42505     606.4233     564.6885
   1424.40979     605.4702     564.4631   1424.40979     605.4702     564.4631
   1424.39453     606.2373     565.2103   1424.39453     606.2373     565.2103
   1424.37927     606.0355     565.8621   1424.37927     606.0355     565.8621
   1424.36401     605.9710     566.8069   1424.36401     605.9710     566.8069
   1424.34875     606.6229     567.5854   1424.34875     606.6229     567.5854
   1424.33350     605.0142     566.3252   1424.33350     605.0142     566.3252
   1424.31824     606.7002     567.2974   1424.31824     606.7002     567.2974
   1424.30298     605.5050     567.5569   1424.30298     605.5050     567.5569
   1424.28772     605.1461     568.9225   1424.28772     605.1461     568.9225
   1424.27246     605.4553     569.1380   1424.27246     605.4553     569.1380
   1424.25720     605.7819     569.6481   1424.25720     605.7819     569.6481
   1424.24194     605.5010     568.7770   1424.24194     605.5010     568.7770
   1424.22668     604.6603     570.1053   1424.22668     604.6603     570.1053
   1424.21143     605.4229     569.9653   1424.21143     605.4229     569.9653
   1424.19617     605.4579     569.0752   1424.19617     605.4579     569.0752
   1424.18091     604.6847     570.9000   1424.18091     604.6847     570.9000
   1424.16565     604.8381     570.2488   1424.16565     604.8381     570.2488
   1424.15039     604.9111     570.0345   1424.15039     604.9111     570.0345
   1424.13513     605.4957     571.4908   1424.13513     605.4957     571.4908
   1424.11987     604.7586     571.0262   1424.11987     604.7586     571.0262
   1424.10461     603.9835     572.4440   1424.10461     603.9835     572.4440
   1424.08936     604.0446     571.3647   1424.08936     604.0446     571.3647
   1424.07410     603.5438     571.9475   1424.07410     603.5438     571.9475
   1424.05884     603.9368     572.4792   1424.05884     603.9368     572.4792
   1424.04358     604.3188     571.9895   1424.04358     604.3188     571.9895
   1424.02832     604.4319     572.1761   1424.02832     604.4319     572.1761
   1424.01306     603.4833     572.9929   1424.01306     603.4833     572.9929
   1423.99780     603.2303     572.5065   1423.99780     603.2303     572.5065
   1423.98254     604.1392     572.4272   1423.98254     604.1392     572.4272
   1423.96729     602.7391     573.1411   1423.96729     602.7391     573.1411
   1423.95203     603.1428     572.7268   1423.95203     603.1428     572.7268
   1423.93677     603.0708     573.5267   1423.93677     603.0708     573.5267
   1423.92151     602.4915     572.6533   1423.92151     602.4915     572.6533
   1423.90625     603.7226     573.2862   1423.90625     603.7226     573.2862
   1423.89099     602.5504     572.9308   1423.89099     602.5504     572.9308
   1423.87573     602.5648     574.2388   1423.87573     602.5648     574.2388
   1423.86047     602.7056     573.8395   1423.86047     602.7056     573.8395
   1423.84521     601.4353     572.9731   1423.84521     601.4353     572.9731
   1423.82996     602.4734     573.1142   1423.82996     602.4734     573.1142
   1423.81470     602.5168     573.1237   1423.81470     602.5168     573.1237
   1423.79944     602.5380     573.0521   1423.79944     602.5380     573.0521
   1423.78418     601.1115     573.8984   1423.78418     601.1115     573.8984
   1423.76892     601.3459     572.6061   1423.76892     601.3459     572.6061
   1423.75366     601.4686     572.9899   1423.75366     601.4686     572.9899
   1423.73840     601.4417     572.1817   1423.73840     601.4417     572.1817
   1423.72314     600.9669     571.9153   1423.72314     600.9669     571.9153
   1423.70789     600.9356     572.7067   1423.70789     600.9356     572.7067
   1423.69263     600.1693     573.0411   1423.69263     600.1693     573.0411
   1423.67737     600.4762     573.1085   1423.67737     600.4762     573.1085
   1423.66211     600.6292     571.5661   1423.66211     600.6292     571.5661
   1423.64685     600.0067     572.7175   1423.64685     600.0067     572.7175
   1423.63159     600.6966     571.7271   1423.63159     600.6966     571.7271
   1423.61633     599.8738     571.5918   1423.61633     599.8738     571.5918
   1423.60107     599.3090     571.6660   1423.60107     599.3090     571.6660
   1423.58582     599.9212     571.4452   1423.58582     599.9212     571.4452
   1423.57056     599.7308     570.7189   1423.57056     599.7308     570.7189
   1423.55530     599.6136     570.2714   1423.55530     599.6136     570.2714
   1423.54004     599.2963     570.8839   1423.54004     599.2963     570.8839
   1423.52478     597.8949     570.2727   1423.52478     597.8949     570.2727
   1423.50952     599.1854     570.2037   1423.50952     599.1854     570.2037
   1423.49426     598.3057     569.6520   1423.49426     598.3057     569.6520
   1423.47900     598.0014     569.2297   1423.47900     598.0014     569.2297
   1423.46375     597.8997     569.3803   1423.46375     597.8997     569.3803
   1423.44849     597.6652     568.9728   1423.44849     597.6652     568.9728
   1423.43323     597.5162     568.5928   1423.43323     597.5162     568.5928
   1423.41797     598.4244     567.9434   1423.41797     598.4244     567.9434
   1423.40271     597.1302     567.6563   1423.40271     597.1302     567.6563
   1423.38745     597.3395     566.8632   1423.38745     597.3395     566.8632
   1423.37219     599.6512     567.2491   1423.37219     599.6512     567.2491
   1423.35693     597.2880     567.4305   1423.35693     597.2880     567.4305
   1423.34167     597.4981     566.5676   1423.34167     597.4981     566.5676
   1423.32642     597.3096     565.9221   1423.32642     597.3096     565.9221
   1423.31116     597.9550     564.7993   1423.31116     597.9550     564.7993
   1423.29590     595.9209     563.8096   1423.29590     595.9209     563.8096
   1423.28064     595.4104     563.2938   1423.28064     595.4104     563.2938
   1423.26538     596.6927     563.3088   1423.26538     596.6927     563.3088
   1423.25012     595.8808     562.9395   1423.25012     595.8808     562.9395
   1423.23486     595.4030     563.5529   1423.23486     595.4030     563.5529
   1423.21960     594.9765     563.0478   1423.21960     594.9765     563.0478
   1423.20435     595.7186     562.3270   1423.20435     595.7186     562.3270
   1423.18909     595.1027     560.9400   1423.18909     595.1027     560.9400
   1423.17383     594.2255     560.6110   1423.17383     594.2255     560.6110
   1423.15857     596.0240     559.9024   1423.15857     596.0240     559.9024
   1423.14331     594.3307     558.6384   1423.14331     594.3307     558.6384
   1423.12805     594.5471     558.5023   1423.12805     594.5471     558.5023
   1423.11279     595.7748     558.6747   1423.11279     595.7748     558.6747
   1423.09753     594.0814     556.7182   1423.09753     594.0814     556.7182
   1423.08228     594.5614     556.5831   1423.08228     594.5614     556.5831
   1423.06702     593.1469     556.3261   1423.06702     593.1469     556.3261
   1423.05176     593.7606     555.5473   1423.05176     593.7606     555.5473
   1423.03650     593.5789     554.1915   1423.03650     593.5789     554.1915
   1423.02124     592.5674     554.2032   1423.02124     592.5674     554.2032
   1423.00598     593.7698     553.4202   1423.00598     593.7698     553.4202
   1422.99072     592.1969     551.9615   1422.99072     592.1969     551.9615
   1422.97546     591.5852     552.1452   1422.97546     591.5852     552.1452
   1422.96021     592.1690     550.4327   1422.96021     592.1690     550.4327
   1422.94495     591.9642     550.5689   1422.94495     591.9642     550.5689
   1422.92969     592.4011     549.1920   1422.92969     592.4011     549.1920
   1422.91443     592.2864     550.2018   1422.91443     592.2864     550.2018
   1422.89917     592.1873     547.7001   1422.89917     592.1873     547.7001
   1422.88391     592.1761     547.6252   1422.88391     592.1761     547.6252
   1422.86865     590.7195     547.0169   1422.86865     590.7195     547.0169
   1422.85339     590.7206     546.3600   1422.85339     590.7206     546.3600
   1422.83813     592.1917     545.0055   1422.83813     592.1917     545.0055
   1422.82288     590.9947     543.9391   1422.82288     590.9947     543.9391
   1422.80762     590.7463     542.4986   1422.80762     590.7463     542.4986
   1422.79236     590.6640     542.0685   1422.79236     590.6640     542.0685
   1422.77710     591.2302     542.1135   1422.77710     591.2302     542.1135
   1422.76184     589.2255     540.4393   1422.76184     589.2255     540.4393
   1422.74658     591.1400     540.2194   1422.74658     591.1400     540.2194
   1422.73132     589.4209     537.8064   1422.73132     589.4209     537.8064
   1422.71606     589.8614     537.7501   1422.71606     589.8614     537.7501
   1422.70081     589.9840     536.3322   1422.70081     589.9840     536.3322
   1422.68555     589.2086     535.4432   1422.68555     589.2086     535.4432
   1422.67029     588.3528     535.2771   1422.67029     588.3528     535.2771
   1422.65503     589.1888     534.4739   1422.65503     589.1888     534.4739
   1422.63977     588.9018     533.5506   1422.63977     588.9018     533.5506
   1422.62451     588.2330     532.1465   1422.62451     588.2330     532.1465
   1422.60925     587.7833     530.8460   1422.60925     587.7833     530.8460
   1422.59399     588.6568     530.6047   1422.59399     588.6568     530.6047
   1422.57874     587.5369     529.8474   1422.57874     587.5369     529.8474
   1422.56348     586.8867     528.6102   1422.56348     586.8867     528.6102
   1422.54822     586.7717     527.1633   1422.54822     586.7717     527.1633
   1422.53296     587.9149     527.2206   1422.53296     587.9149     527.2206
   1422.51770     586.8258     526.2538   1422.51770     586.8258     526.2538
   1422.50244     587.5658     524.4829   1422.50244     587.5658     524.4829
   1422.48718     587.5128     524.1152   1422.48718     587.5128     524.1152
   1422.47192     586.8192     522.4470   1422.47192     586.8192     522.4470
   1422.45667     585.8055     521.4620   1422.45667     585.8055     521.4620
   1422.44141     587.0920     520.9185   1422.44141     587.0920     520.9185
   1422.42615     586.6921     519.9495   1422.42615     586.6921     519.9495
   1422.41089     587.4693     518.6724   1422.41089     587.4693     518.6724
   1422.39563     585.8489     518.3853   1422.39563     585.8489     518.3853
   1422.38037     586.2012     516.5817   1422.38037     586.2012     516.5817
   1422.36511     585.8179     516.0005   1422.36511     585.8179     516.0005
   1422.34985     584.7112     514.6278   1422.34985     584.7112     514.6278
   1422.33459     586.1458     513.3078   1422.33459     586.1458     513.3078
   1422.31934     585.3834     512.1140   1422.31934     585.3834     512.1140
   1422.30408     585.2026     511.6725   1422.30408     585.2026     511.6725
   1422.28882     585.0336     510.2739   1422.28882     585.0336     510.2739
   1422.27356     584.5620     509.1336   1422.27356     584.5620     509.1336
   1422.25830     585.3248     508.0181   1422.25830     585.3248     508.0181
   1422.24304     584.8536     507.6108   1422.24304     584.8536     507.6108
   1422.22778     583.3464     506.3595   1422.22778     583.3464     506.3595
   1422.21252     583.6552     504.4899   1422.21252     583.6552     504.4899
   1422.19727     584.7457     503.4307   1422.19727     584.7457     503.4307
   1422.18201     583.5945     503.1357   1422.18201     583.5945     503.1357
   1422.16675     582.9583     501.2467   1422.16675     582.9583     501.2467
   1422.15149     582.8627     500.8102   1422.15149     582.8627     500.8102
   1422.13623     583.8372     499.9891   1422.13623     583.8372     499.9891
   1422.12097     583.1467     498.0563   1422.12097     583.1467     498.0563
   1422.10571     582.2040     497.7531   1422.10571     582.2040     497.7531
   1422.09045     583.2731     495.9095   1422.09045     583.2731     495.9095
   1422.07520     582.1556     494.5987   1422.07520     582.1556     494.5987
   1422.05994     582.7741     494.1412   1422.05994     582.7741     494.1412
   1422.04468     582.6688     493.1904   1422.04468     582.6688     493.1904
   1422.02942     582.3416     491.8069   1422.02942     582.3416     491.8069
   1422.01416     581.1440     490.4317   1422.01416     581.1440     490.4317
   1421.99890     581.2172     489.0672   1421.99890     581.2172     489.0672
   1421.98364     581.4658     487.7919   1421.98364     581.4658     487.7919
   1421.96838     581.3164     487.1013   1421.96838     581.3164     487.1013
   1421.95312     581.7208     486.4443   1421.95312     581.7208     486.4443
   1421.93787     581.2578     484.6297   1421.93787     581.2578     484.6297
   1421.92261     581.3022     483.7996   1421.92261     581.3022     483.7996
   1421.90735     580.1753     482.9162   1421.90735     580.1753     482.9162
   1421.89209     580.3661     481.7179   1421.89209     580.3661     481.7179
   1421.87683     580.5447     480.3211   1421.87683     580.5447     480.3211
   1421.86157     580.6971     479.6868   1421.86157     580.6971     479.6868
   1421.84631     580.3991     478.2585   1421.84631     580.3991     478.2585
   1421.83105     579.5285     477.5782   1421.83105     579.5285     477.5782
   1421.81580     579.0272     476.0917   1421.81580     579.0272     476.0917
   1421.80054     580.3240     475.8798   1421.80054     580.3240     475.8798
   1421.78528     579.2332     474.6528   1421.78528     579.2332     474.6528
   1421.77002     579.6247     472.9536   1421.77002     579.6247     472.9536
   1421.75476     578.7704     472.3650   1421.75476     578.7704     472.3650
   1421.73950     579.2621     470.9860   1421.73950     579.2621     470.9860
   1421.72424     578.8331     470.3801   1421.72424     578.8331     470.3801
   1421.70898     578.6255     468.0570   1421.70898     578.6255     468.0570
   1421.69373     578.8931     467.5088   1421.69373     578.8931     467.5088
   1421.67847     578.0740     467.3298   1421.67847     578.0740     467.3298
   1421.66321     577.8521     464.4941   1421.66321     577.8521     464.4941
   1421.64795     578.3195     464.7947   1421.64795     578.3195     464.7947
   1421.63269     576.7708     463.2513   1421.63269     576.7708     463.2513
   1421.61743     577.6221     462.7655   1421.61743     577.6221     462.7655
   1421.60217     576.0238     461.5550   1421.60217     576.0238     461.5550
   1421.58691     576.3407     460.1370   1421.58691     576.3407     460.1370
   1421.57166     576.1903     458.5689   1421.57166     576.1903     458.5689
   1421.55640     575.7396     457.7694   1421.55640     575.7396     457.7694
   1421.54114     576.1174     455.8874   1421.54114     576.1174     455.8874
   1421.52588     575.1940     455.6479   1421.52588     575.1940     455.6479
   1421.51062     575.2780     454.7730   1421.51062     575.2780     454.7730
   1421.49536     576.0425     454.1247   1421.49536     576.0425     454.1247
   1421.48010     575.1318     451.9772   1421.48010     575.1318     451.9772
   1421.46484     575.2402     451.3505   1421.46484     575.2402     451.3505
   1421.44958     575.0636     449.7875   1421.44958     575.0636     449.7875
   1421.43433     575.9023     448.7639   1421.43433     575.9023     448.7639
   1421.41907     573.9636     447.7589   1421.41907     573.9636     447.7589
   1421.40381     573.5634     446.6691   1421.40381     573.5634     446.6691
   1421.38855     574.3218     445.9506   1421.38855     574.3218     445.9506
   1421.37329     573.9550     444.7261   1421.37329     573.9550     444.7261
   1421.35803     574.1214     443.3223   1421.35803     574.1214     443.3223
   1421.34277     573.9649     442.7759   1421.34277     573.9649     442.7759
   1421.32751     573.6414     442.1377   1421.32751     573.6414     442.1377
   1421.31226     573.4903     440.9134   1421.31226     573.4903     440.9134
   1421.29700     572.8989     440.0406   1421.29700     572.8989     440.0406
   1421.28174     572.9130     438.4876   1421.28174     572.9130     438.4876
   1421.26648     572.8154     437.9616   1421.26648     572.8154     437.9616
   1421.25122     572.3451     437.3325   1421.25122     572.3451     437.3325
   1421.23596     572.2568     435.0818   1421.23596     572.2568     435.0818
   1421.22070     572.3379     434.8002   1421.22070     572.3379     434.8002
   1421.20544     571.8116     433.8322   1421.20544     571.8116     433.8322
   1421.19019     571.6768     432.8582   1421.19019     571.6768     432.8582
   1421.17493     571.4974     431.9263   1421.17493     571.4974     431.9263
   1421.15967     571.9041     430.2822   1421.15967     571.9041     430.2822
   1421.14441     570.7358     429.2631   1421.14441     570.7358     429.2631
   1421.12915     571.4443     428.8180   1421.12915     571.4443     428.8180
   1421.11389     569.5202     427.4773   1421.11389     569.5202     427.4773
   1421.09863     570.0994     426.4902   1421.09863     570.0994     426.4902
   1421.08337     570.5620     425.8417   1421.08337     570.5620     425.8417
   1421.06812     570.2324     424.4854   1421.06812     570.2324     424.4854
   1421.05286     570.8043     423.6689   1421.05286     570.8043     423.6689
   1421.03760     570.7595     422.5818   1421.03760     570.7595     422.5818
   1421.02234     569.5930     421.7864   1421.02234     569.5930     421.7864
   1421.00708     568.9111     420.8744   1421.00708     568.9111     420.8744
   1420.99182     570.2458     419.9565   1420.99182     570.2458     419.9565
   1420.97656     569.7283     418.8641   1420.97656     569.7283     418.8641
   1420.96130     569.7122     418.5235   1420.96130     569.7122     418.5235
   1420.94604     569.2285     417.6465   1420.94604     569.2285     417.6465
   1420.93079     567.9036     415.9340   1420.93079     567.9036     415.9340
   1420.91553     568.9439     415.6266   1420.91553     568.9439     415.6266
   1420.90027     567.8226     413.6612   1420.90027     567.8226     413.6612
   1420.88501     567.6252     413.1171   1420.88501     567.6252     413.1171
   1420.86975     567.7103     412.3863   1420.86975     567.7103     412.3863
   1420.85449     568.1368     411.5404   1420.85449     568.1368     411.5404
   1420.83923     567.1935     410.5613   1420.83923     567.1935     410.5613
   1420.82397     567.2029     409.9306   1420.82397     567.2029     409.9306
   1420.80872     567.4261     409.2924   1420.80872     567.4261     409.2924
   1420.79346     568.1837     408.4926   1420.79346     568.1837     408.4926
   1420.77820     568.3874     407.5999   1420.77820     568.3874     407.5999
   1420.76294     567.8559     406.7697   1420.76294     567.8559     406.7697
   1420.74768     567.2966     405.8962   1420.74768     567.2966     405.8962
   1420.73242     567.9448     404.5804   1420.73242     567.9448     404.5804
   1420.71716     569.2535     404.3607   1420.71716     569.2535     404.3607
   1420.70190     567.9566     403.8251   1420.70190     567.9566     403.8251
   1420.68665     567.4744     403.1529   1420.68665     567.4744     403.1529
   1420.67139     567.5319     403.0963   1420.67139     567.5319     403.0963
   1420.65613     568.0426     401.1727   1420.65613     568.0426     401.1727
   1420.64087     567.4874     400.0956   1420.64087     567.4874     400.0956
   1420.62561     568.5558     400.0505   1420.62561     568.5558     400.0505
   1420.61035     567.3258     398.9595   1420.61035     567.3258     398.9595
   1420.59509     567.2465     398.3035   1420.59509     567.2465     398.3035
   1420.57983     567.4675     397.3240   1420.57983     567.4675     397.3240
   1420.56458     567.7043     396.9633   1420.56458     567.7043     396.9633
   1420.54932     568.8982     396.4893   1420.54932     568.8982     396.4893
   1420.53406     569.6226     396.2355   1420.53406     569.6226     396.2355
   1420.51880     570.6658     396.5219   1420.51880     570.6658     396.5219
   1420.50354     570.3613     395.8557   1420.50354     570.3613     395.8557
   1420.48828     571.0718     395.5081   1420.48828     571.0718     395.5081
   1420.47302     570.4396     394.3711   1420.47302     570.4396     394.3711
   1420.45776     570.3382     393.1834   1420.45776     570.3382     393.1834
   1420.44250     569.7341     393.0157   1420.44250     569.7341     393.0157
   1420.42725     571.0527     392.2386   1420.42725     571.0527     392.2386
   1420.41199     570.0170     391.3486   1420.41199     570.0170     391.3486
   1420.39673     568.9916     390.0055   1420.39673     568.9916     390.0055
   1420.38147     569.1104     389.4304   1420.38147     569.1104     389.4304
   1420.36621     569.5507     389.3398   1420.36621     569.5507     389.3398
   1420.35095     569.8070     388.5300   1420.35095     569.8070     388.5300
   1420.33569     570.5809     388.0197   1420.33569     570.5809     388.0197
   1420.32043     571.2336     388.4631   1420.32043     571.2336     388.4631
   1420.30518     573.5469     389.1504   1420.30518     573.5469     389.1504
   1420.28992     577.4317     391.6661   1420.28992     577.4317     391.6661
   1420.27466     586.2872     397.2880   1420.27466     586.2872     397.2880
   1420.25940     615.1071     414.2575   1420.25940     615.1071     414.2575
   1420.24414     671.1153     450.4825   1420.24414     671.1153     450.4825
   1420.22888     720.4496     481.4445   1420.22888     720.4496     481.4445
   1420.21362     738.9330     492.2536   1420.21362     738.9330     492.2536
   1420.19836     798.1947     530.6956   1420.19836     798.1947     530.6956
   1420.18311     946.3369     624.0554   1420.18311     946.3369     624.0554
   1420.16785    1183.6510     776.3061   1420.16785    1183.6510     776.3061
   1420.15259    1478.9437     960.3583   1420.15259    1478.9437     960.3583
   1420.13733    1651.8405    1070.3433   1420.13733    1651.8405    1070.3433
   1420.12207    1444.8079     937.8316   1420.12207    1444.8079     937.8316
   1420.10681     992.7485     647.0464   1420.10681     992.7485     647.0464
   1420.09155     742.3690     486.5826   1420.09155     742.3690     486.5826
   1420.07629     650.5833     428.1434   1420.07629     650.5833     428.1434
   1420.06104     618.1648     408.2039   1420.06104     618.1648     408.2039
   1420.04578     616.9568     406.3462   1420.04578     616.9568     406.3462
   1420.03052     640.0392     420.9934   1420.03052     640.0392     420.9934
   1420.01526     698.5471     458.3456   1420.01526     698.5471     458.3456
   1420.00000     836.4628     545.2354   1420.00000     836.4628     545.2354
   1419.98474     974.3785     632.1253   1419.98474     974.3785     632.1253
   1419.96948    1130.3704     726.4529   1419.96948    1130.3704     726.4529
   1419.95422    1180.1428     756.4472   1419.95422    1180.1428     756.4472
   1419.93896    1113.5177     713.2523   1419.93896    1113.5177     713.2523
   1419.92371     947.9383     609.0992   1419.92371     947.9383     609.0992
   1419.90845     949.9057     609.0824   1419.90845     949.9057     609.0824
   1419.89319    1037.0814     661.8291   1419.89319    1037.0814     661.8291
   1419.87793    1053.1465     671.0325   1419.87793    1053.1465     671.0325
   1419.86267    1019.5317     648.0888   1419.86267    1019.5317     648.0888
   1419.84741     997.1844     633.6667   1419.84741     997.1844     633.6667
   1419.83215    1004.3088     636.7718   1419.83215    1004.3088     636.7718
   1419.81689     941.4222     599.2807   1419.81689     941.4222     599.2807
   1419.80164     841.8622     538.4727   1419.80164     841.8622     538.4727
   1419.78638     746.6618     478.0137   1419.78638     746.6618     478.0137
   1419.77112     698.1096     447.2291   1419.77112     698.1096     447.2291
   1419.75586     673.2747     430.8425   1419.75586     673.2747     430.8425
   1419.74060     664.2238     424.8884   1419.74060     664.2238     424.8884
   1419.72534     666.1476     426.1620   1419.72534     666.1476     426.1620
   1419.71008     666.1705     425.1287   1419.71008     666.1705     425.1287
   1419.69482     633.5711     404.6570   1419.69482     633.5711     404.6570
   1419.67957     623.2339     398.2846   1419.67957     623.2339     398.2846
   1419.66431     620.3324     395.7093   1419.66431     620.3324     395.7093
   1419.64905     618.0908     393.9048   1419.64905     618.0908     393.9048
   1419.63379     609.5017     388.8786   1419.63379     609.5017     388.8786
   1419.61853     597.6360     380.5429   1419.61853     597.6360     380.5429
   1419.60327     587.6749     373.4901   1419.60327     587.6749     373.4901
   1419.58801     579.3351     368.3073   1419.58801     579.3351     368.3073
   1419.57275     573.6846     364.5992   1419.57275     573.6846     364.5992
   1419.55750     570.3214     362.1093   1419.55750     570.3214     362.1093
   1419.54224     567.9036     360.3087   1419.54224     567.9036     360.3087
   1419.52698     567.5728     359.9279   1419.52698     567.5728     359.9279
   1419.51172     566.4277     359.1073   1419.51172     566.4277     359.1073
   1419.49646     565.6628     358.0449   1419.49646     565.6628     358.0449
   1419.48120     566.5157     357.7923   1419.48120     566.5157     357.7923
   1419.46594     565.8924     357.2598   1419.46594     565.8924     357.2598
   1419.45068     565.7828     356.8728   1419.45068     565.7828     356.8728
   1419.43542     565.8291     356.6345   1419.43542     565.8291     356.6345
   1419.42017     566.9048     356.4442   1419.42017     566.9048     356.4442
   1419.40491     567.0491     356.4149   1419.40491     567.0491     356.4149
   1419.38965     566.8286     356.7093   1419.38965     566.8286     356.7093
   1419.37439     567.0360     356.0901   1419.37439     567.0360     356.0901
   1419.35913     567.4000     355.5708   1419.35913     567.4000     355.5708
   1419.34387     567.9868     355.6305   1419.34387     567.9868     355.6305
   1419.32861     568.3954     356.0313   1419.32861     568.3954     356.0313
   1419.31335     568.5817     355.2782   1419.31335     568.5817     355.2782
   1419.29810     569.0578     355.1552   1419.29810     569.0578     355.1552
   1419.28284     568.2012     355.5374   1419.28284     568.2012     355.5374
   1419.26758     569.5127     355.0893   1419.26758     569.5127     355.0893
   1419.25232     569.9418     355.3724   1419.25232     569.9418     355.3724
   1419.23706     570.5840     354.9905   1419.23706     570.5840     354.9905
   1419.22180     570.6351     354.8481   1419.22180     570.6351     354.8481
   1419.20654     570.8423     354.5571   1419.20654     570.8423     354.5571
   1419.19128     571.0511     354.3560   1419.19128     571.0511     354.3560
   1419.17603     572.1007     355.3159   1419.17603     572.1007     355.3159
   1419.16077     571.5154     355.2071   1419.16077     571.5154     355.2071
   1419.14551     572.3773     354.3782   1419.14551     572.3773     354.3782
   1419.13025     573.0565     354.9147   1419.13025     573.0565     354.9147
   1419.11499     573.3052     355.7364   1419.11499     573.3052     355.7364
   1419.09973     573.0468     355.3842   1419.09973     573.0468     355.3842
   1419.08447     573.4427     354.8876   1419.08447     573.4427     354.8876
   1419.06921     574.0235     354.1389   1419.06921     574.0235     354.1389
   1419.05396     575.6087     354.6150   1419.05396     575.6087     354.6150
   1419.03870     574.6946     354.7729   1419.03870     574.6946     354.7729
   1419.02344     576.4423     354.5959   1419.02344     576.4423     354.5959
   1419.00818     576.5318     355.5832   1419.00818     576.5318     355.5832
   1418.99292     577.9360     354.9928   1418.99292     577.9360     354.9928
   1418.97766     577.4568     354.9020   1418.97766     577.4568     354.9020
   1418.96240     577.3256     355.5423   1418.96240     577.3256     355.5423
   1418.94714     578.4193     355.6120   1418.94714     578.4193     355.6120
   1418.93188     578.4885     355.8226   1418.93188     578.4885     355.8226
   1418.91663     579.7753     355.3937   1418.91663     579.7753     355.3937
   1418.90137     579.4257     355.6474   1418.90137     579.4257     355.6474
   1418.88611     580.7008     355.3085   1418.88611     580.7008     355.3085
   1418.87085     580.6338     355.8957   1418.87085     580.6338     355.8957
   1418.85559     582.0068     356.1402   1418.85559     582.0068     356.1402
   1418.84033     580.9706     356.1034   1418.84033     580.9706     356.1034
   1418.82507     582.8398     356.8594   1418.82507     582.8398     356.8594
   1418.80981     584.1979     356.5597   1418.80981     584.1979     356.5597
   1418.79456     584.7047     356.6782   1418.79456     584.7047     356.6782
   1418.77930     584.8759     356.7290   1418.77930     584.8759     356.7290
   1418.76404     584.6716     357.5498   1418.76404     584.6716     357.5498
   1418.74878     586.1801     357.6116   1418.74878     586.1801     357.6116
   1418.73352     585.8085     358.4438   1418.73352     585.8085     358.4438
   1418.71826     587.4082     357.6278   1418.71826     587.4082     357.6278
   1418.70300     588.1247     358.4211   1418.70300     588.1247     358.4211
   1418.68774     588.9386     358.4944   1418.68774     588.9386     358.4944
   1418.67249     588.9986     358.7408   1418.67249     588.9986     358.7408
   1418.65723     589.6895     358.9237   1418.65723     589.6895     358.9237
   1418.64197     589.3210     358.9749   1418.64197     589.3210     358.9749
   1418.62671     589.7626     359.9768   1418.62671     589.7626     359.9768
   1418.61145     592.1039     359.3787   1418.61145     592.1039     359.3787
   1418.59619     593.5700     359.8829   1418.59619     593.5700     359.8829
   1418.58093     593.1793     360.4310   1418.58093     593.1793     360.4310
   1418.56567     593.5360     360.0277   1418.56567     593.5360     360.0277
   1418.55042     595.5620     360.6707   1418.55042     595.5620     360.6707
   1418.53516     595.3090     360.6214   1418.53516     595.3090     360.6214
   1418.51990     595.5622     361.4539   1418.51990     595.5622     361.4539
   1418.50464     596.7757     361.7227   1418.50464     596.7757     361.7227
   1418.48938     597.7158     362.2540   1418.48938     597.7158     362.2540
   1418.47412     597.8355     362.6779   1418.47412     597.8355     362.6779
   1418.45886     599.5455     362.9294   1418.45886     599.5455     362.9294
   1418.44360     599.3875     363.1597   1418.44360     599.3875     363.1597
   1418.42834     600.8480     363.5056   1418.42834     600.8480     363.5056
   1418.41309     601.8245     363.5849   1418.41309     601.8245     363.5849
   1418.39783     602.4601     364.4788   1418.39783     602.4601     364.4788
   1418.38257     603.8507     364.2202   1418.38257     603.8507     364.2202
   1418.36731     604.6328     364.5590   1418.36731     604.6328     364.5590
   1418.35205     604.8745     365.3857   1418.35205     604.8745     365.3857
   1418.33679     604.9296     365.6900   1418.33679     604.9296     365.6900
   1418.32153     605.8275     366.6730   1418.32153     605.8275     366.6730
   1418.30627     606.5307     365.6945   1418.30627     606.5307     365.6945
   1418.29102     608.1281     366.9659   1418.29102     608.1281     366.9659
   1418.27576     609.1099     367.3273   1418.27576     609.1099     367.3273
   1418.26050     610.4996     367.9109   1418.26050     610.4996     367.9109
   1418.24524     611.0590     367.7283   1418.24524     611.0590     367.7283
   1418.22998     612.0582     368.6068   1418.22998     612.0582     368.6068
   1418.21472     612.2542     369.2051   1418.21472     612.2542     369.2051
   1418.19946     613.7301     369.3492   1418.19946     613.7301     369.3492
   1418.18420     614.2592     369.3727   1418.18420     614.2592     369.3727
   1418.16895     615.5280     370.8149   1418.16895     615.5280     370.8149
   1418.15369     616.6763     371.0347   1418.15369     616.6763     371.0347
   1418.13843     617.0689     371.5232   1418.13843     617.0689     371.5232
   1418.12317     617.1166     371.5594   1418.12317     617.1166     371.5594
   1418.10791     619.3847     372.1358   1418.10791     619.3847     372.1358
   1418.09265     619.2265     372.7392   1418.09265     619.2265     372.7392
   1418.07739     621.1663     372.8799   1418.07739     621.1663     372.8799
   1418.06213     621.9737     373.6477   1418.06213     621.9737     373.6477
   1418.04688     622.9732     374.3111   1418.04688     622.9732     374.3111
   1418.03162     624.0433     374.2449   1418.03162     624.0433     374.2449
   1418.01636     624.4247     374.9803   1418.01636     624.4247     374.9803
   1418.00110     625.8297     376.2953   1418.00110     625.8297     376.2953
   1417.98584     626.6127     376.0605   1417.98584     626.6127     376.0605
   1417.97058     628.3167     376.6374   1417.97058     628.3167     376.6374
   1417.95532     629.8597     378.1015   1417.95532     629.8597     378.1015
   1417.94006     629.5338     377.5336   1417.94006     629.5338     377.5336
   1417.92480     630.7521     378.4539   1417.92480     630.7521     378.4539
   1417.90955     631.6847     378.3167   1417.90955     631.6847     378.3167
   1417.89429     632.3098     379.4235   1417.89429     632.3098     379.4235
   1417.87903     634.0270     379.2558   1417.87903     634.0270     379.2558
   1417.86377     634.3521     379.7715   1417.86377     634.3521     379.7715
   1417.84851     636.1808     381.1367   1417.84851     636.1808     381.1367
   1417.83325     637.3298     381.2745   1417.83325     637.3298     381.2745
   1417.81799     637.9821     381.9342   1417.81799     637.9821     381.9342
   1417.80273     638.3831     382.3549   1417.80273     638.3831     382.3549
   1417.78748     640.3748     382.3650   1417.78748     640.3748     382.3650
   1417.77222     640.8392     383.6716   1417.77222     640.8392     383.6716
   1417.75696     641.1899     383.6901   1417.75696     641.1899     383.6901
   1417.74170     642.5864     385.2292   1417.74170     642.5864     385.2292
   1417.72644     644.6622     384.8105   1417.72644     644.6622     384.8105
   1417.71118     645.4587     386.0195   1417.71118     645.4587     386.0195
   1417.69592     645.6556     386.2780   1417.69592     645.6556     386.2780
   1417.68066     646.2178     386.8661   1417.68066     646.2178     386.8661
   1417.66541     647.3842     387.6802   1417.66541     647.3842     387.6802
   1417.65015     649.0035     388.0637   1417.65015     649.0035     388.0637
   1417.63489     649.8288     388.8242   1417.63489     649.8288     388.8242
   1417.61963     650.2520     387.9760   1417.61963     650.2520     387.9760
   1417.60437     651.6452     389.8002   1417.60437     651.6452     389.8002
   1417.58911     652.5742     389.7778   1417.58911     652.5742     389.7778
   1417.57385     653.6066     390.5475   1417.57385     653.6066     390.5475
   1417.55859     654.2318     391.5257   1417.55859     654.2318     391.5257
   1417.54333     656.3920     391.4356   1417.54333     656.3920     391.4356
   1417.52808     656.7995     392.1778   1417.52808     656.7995     392.1778
   1417.51282     657.7812     393.9758   1417.51282     657.7812     393.9758
   1417.49756     658.4271     393.4489   1417.49756     658.4271     393.4489
   1417.48230     659.9636     394.7385   1417.48230     659.9636     394.7385
   1417.46704     659.9559     394.6526   1417.46704     659.9559     394.6526
   1417.45178     661.7013     395.5384   1417.45178     661.7013     395.5384
   1417.43652     662.8023     395.8027   1417.43652     662.8023     395.8027
   1417.42126     662.5085     396.4003   1417.42126     662.5085     396.4003
   1417.40601     664.3167     397.3510   1417.40601     664.3167     397.3510
   1417.39075     664.7403     397.4952   1417.39075     664.7403     397.4952
   1417.37549     665.0615     398.0916   1417.37549     665.0615     398.0916
   1417.36023     666.9025     398.1695   1417.36023     666.9025     398.1695
   1417.34497     668.6729     398.5732   1417.34497     668.6729     398.5732
   1417.32971     668.7184     399.9813   1417.32971     668.7184     399.9813
   1417.31445     669.6980     400.4564   1417.31445     669.6980     400.4564
   1417.29919     670.9963     400.8672   1417.29919     670.9963     400.8672
   1417.28394     671.2037     400.8708   1417.28394     671.2037     400.8708
   1417.26868     672.0260     401.3251   1417.26868     672.0260     401.3251
   1417.25342     672.8856     402.6366   1417.25342     672.8856     402.6366
   1417.23816     673.8912     402.5522   1417.23816     673.8912     402.5522
   1417.22290     676.3451     403.6509   1417.22290     676.3451     403.6509
   1417.20764     676.1105     403.9097   1417.20764     676.1105     403.9097
   1417.19238     676.0331     404.5087   1417.19238     676.0331     404.5087
   1417.17712     678.2248     405.0755   1417.17712     678.2248     405.0755
   1417.16187     676.9473     405.6567   1417.16187     676.9473     405.6567
   1417.14661     678.9302     406.5042   1417.14661     678.9302     406.5042
   1417.13135     680.8586     406.6634   1417.13135     680.8586     406.6634
   1417.11609     681.3097     406.6846   1417.11609     681.3097     406.6846
   1417.10083     682.3605     407.6693   1417.10083     682.3605     407.6693
   1417.08557     682.9773     408.2693   1417.08557     682.9773     408.2693
   1417.07031     682.2036     408.7590   1417.07031     682.2036     408.7590
   1417.05505     682.9054     408.8945   1417.05505     682.9054     408.8945
   1417.03979     684.1365     409.5436   1417.03979     684.1365     409.5436
   1417.02454     684.9808     409.7411   1417.02454     684.9808     409.7411
   1417.00928     685.6369     410.3418   1417.00928     685.6369     410.3418
   1416.99402     686.3453     410.8855   1416.99402     686.3453     410.8855
   1416.97876     686.2509     411.4161   1416.97876     686.2509     411.4161
   1416.96350     687.2070     412.0181   1416.96350     687.2070     412.0181
   1416.94824     687.8184     412.1949   1416.94824     687.8184     412.1949
   1416.93298     688.5524     411.9068   1416.93298     688.5524     411.9068
   1416.91772     689.0614     412.9295   1416.91772     689.0614     412.9295
   1416.90247     690.2702     413.4213   1416.90247     690.2702     413.4213
   1416.88721     690.3200     413.6313   1416.88721     690.3200     413.6313
   1416.87195     689.5857     413.7042   1416.87195     689.5857     413.7042
   1416.85669     692.3591     414.9377   1416.85669     692.3591     414.9377
   1416.84143     691.5049     415.5576   1416.84143     691.5049     415.5576
   1416.82617     692.3636     415.6132   1416.82617     692.3636     415.6132
   1416.81091     692.0198     415.5718   1416.81091     692.0198     415.5718
   1416.79565     692.9431     415.8142   1416.79565     692.9431     415.8142
   1416.78040     693.7571     417.0568   1416.78040     693.7571     417.0568
   1416.76514     694.0477     416.7758   1416.76514     694.0477     416.7758
   1416.74988     694.1042     417.4427   1416.74988     694.1042     417.4427
   1416.73462     693.6248     416.9913   1416.73462     693.6248     416.9913
   1416.71936     695.2057     417.8750   1416.71936     695.2057     417.8750
   1416.70410     695.1560     417.7235   1416.70410     695.1560     417.7235
   1416.68884     694.5526     418.4008   1416.68884     694.5526     418.4008
   1416.67358     696.4848     418.0440   1416.67358     696.4848     418.0440
   1416.65833     695.8264     418.9610   1416.65833     695.8264     418.9610
   1416.64307     696.9699     418.8879   1416.64307     696.9699     418.8879
   1416.62781     696.0046     419.0914   1416.62781     696.0046     419.0914
   1416.61255     696.9548     419.9510   1416.61255     696.9548     419.9510
   1416.59729     697.1584     419.8598   1416.59729     697.1584     419.8598
   1416.58203     696.2672     419.5863   1416.58203     696.2672     419.5863
   1416.56677     697.0803     419.6437   1416.56677     697.0803     419.6437
   1416.55151     696.0938     420.2187   1416.55151     696.0938     420.2187
   1416.53625     695.9349     420.3812   1416.53625     695.9349     420.3812
   1416.52100     696.1395     420.4720   1416.52100     696.1395     420.4720
   1416.50574     696.4152     419.9897   1416.50574     696.4152     419.9897
   1416.49048     696.2798     420.9632   1416.49048     696.2798     420.9632
   1416.47522     697.0339     421.1986   1416.47522     697.0339     421.1986
   1416.45996     696.1271     420.6091   1416.45996     696.1271     420.6091
   1416.44470     696.9320     421.0398   1416.44470     696.9320     421.0398
   1416.42944     696.3094     421.4275   1416.42944     696.3094     421.4275
   1416.41418     695.7180     421.2190   1416.41418     695.7180     421.2190
   1416.39893     695.8531     421.0407   1416.39893     695.8531     421.0407
   1416.38367     695.1573     420.8069   1416.38367     695.1573     420.8069
   1416.36841     695.7177     420.9604   1416.36841     695.7177     420.9604
   1416.35315     695.4131     420.4529   1416.35315     695.4131     420.4529
   1416.33789     694.9586     421.0153   1416.33789     694.9586     421.0153
   1416.32263     695.5546     421.1587   1416.32263     695.5546     421.1587
   1416.30737     694.9677     421.7865   1416.30737     694.9677     421.7865
   1416.29211     695.1670     421.0651   1416.29211     695.1670     421.0651
   1416.27686     693.9310     421.1694   1416.27686     693.9310     421.1694
   1416.26160     693.7977     421.5854   1416.26160     693.7977     421.5854
   1416.24634     694.0386     421.1576   1416.24634     694.0386     421.1576
   1416.23108     694.1276     421.3702   1416.23108     694.1276     421.3702
   1416.21582     693.1091     420.8741   1416.21582     693.1091     420.8741
   1416.20056     693.6246     421.3293   1416.20056     693.6246     421.3293
   1416.18530     692.3069     420.8188   1416.18530     692.3069     420.8188
   1416.17004     691.8224     421.1093   1416.17004     691.8224     421.1093
   1416.15479     691.3909     420.6694   1416.15479     691.3909     420.6694
   1416.13953     690.8441     421.1086   1416.13953     690.8441     421.1086
   1416.12427     689.5460     420.4623   1416.12427     689.5460     420.4623
   1416.10901     690.4269     419.6668   1416.10901     690.4269     419.6668
   1416.09375     689.0426     421.2378   1416.09375     689.0426     421.2378
   1416.07849     689.5626     419.6784   1416.07849     689.5626     419.6784
   1416.06323     688.1791     419.5230   1416.06323     688.1791     419.5230
   1416.04797     688.0085     420.2003   1416.04797     688.0085     420.2003
   1416.03271     688.6365     420.1138   1416.03271     688.6365     420.1138
   1416.01746     687.4384     419.5570   1416.01746     687.4384     419.5570
   1416.00220     685.6283     419.7394   1416.00220     685.6283     419.7394
   1415.98694     686.3505     419.6294   1415.98694     686.3505     419.6294
   1415.97168     685.5602     418.8694   1415.97168     685.5602     418.8694
   1415.95642     684.2298     419.9762   1415.95642     684.2298     419.9762
   1415.94116     684.3224     419.4596   1415.94116     684.3224     419.4596
   1415.92590     683.9427     419.1304   1415.92590     683.9427     419.1304
   1415.91064     682.7366     418.8304   1415.91064     682.7366     418.8304
   1415.89539     682.0296     418.9342   1415.89539     682.0296     418.9342
   1415.88013     681.9221     418.3474   1415.88013     681.9221     418.3474
   1415.86487     680.4514     418.1943   1415.86487     680.4514     418.1943
   1415.84961     679.1563     418.2689   1415.84961     679.1563     418.2689
   1415.83435     678.6910     418.3353   1415.83435     678.6910     418.3353
   1415.81909     678.0187     418.1521   1415.81909     678.0187     418.1521
   1415.80383     677.3834     418.2030   1415.80383     677.3834     418.2030
   1415.78857     677.1786     417.4194   1415.78857     677.1786     417.4194
   1415.77332     675.5336     417.3620   1415.77332     675.5336     417.3620
   1415.75806     675.9094     416.9874   1415.75806     675.9094     416.9874
   1415.74280     675.7296     416.2623   1415.74280     675.7296     416.2623
   1415.72754     673.5613     417.4460   1415.72754     673.5613     417.4460
   1415.71228     672.7128     416.8834   1415.71228     672.7128     416.8834
   1415.69702     673.0318     416.2365   1415.69702     673.0318     416.2365
   1415.68176     670.7944     416.8483   1415.68176     670.7944     416.8483
   1415.66650     671.0431     416.3413   1415.66650     671.0431     416.3413
   1415.65125     669.4685     415.8164   1415.65125     669.4685     415.8164
   1415.63599     668.0436     415.4216   1415.63599     668.0436     415.4216
   1415.62073     667.6000     414.9890   1415.62073     667.6000     414.9890
   1415.60547     667.7087     415.3231   1415.60547     667.7087     415.3231
   1415.59021     665.5597     414.8470   1415.59021     665.5597     414.8470
   1415.57495     666.4558     415.4317   1415.57495     666.4558     415.4317
   1415.55969     663.9161     414.7957   1415.55969     663.9161     414.7957
   1415.54443     663.5130     414.4305   1415.54443     663.5130     414.4305
   1415.52917     662.9649     414.6470   1415.52917     662.9649     414.6470
   1415.51392     662.5878     413.5045   1415.51392     662.5878     413.5045
   1415.49866     660.4859     413.5338   1415.49866     660.4859     413.5338
   1415.48340     660.2347     413.5220   1415.48340     660.2347     413.5220
   1415.46814     657.9713     413.4297   1415.46814     657.9713     413.4297
   1415.45288     657.5318     412.9564   1415.45288     657.5318     412.9564
   1415.43762     656.4844     412.4341   1415.43762     656.4844     412.4341
   1415.42236     655.6416     411.8134   1415.42236     655.6416     411.8134
   1415.40710     654.1865     411.3813   1415.40710     654.1865     411.3813
   1415.39185     653.7116     411.4994   1415.39185     653.7116     411.4994
   1415.37659     652.7841     411.8117   1415.37659     652.7841     411.8117
   1415.36133     651.6389     411.3374   1415.36133     651.6389     411.3374
   1415.34607     650.5130     410.9043   1415.34607     650.5130     410.9043
   1415.33081     648.6450     410.7210   1415.33081     648.6450     410.7210
   1415.31555     647.4185     410.2707   1415.31555     647.4185     410.2707
   1415.30029     647.0719     409.2749   1415.30029     647.0719     409.2749
   1415.28503     646.5964     409.2892   1415.28503     646.5964     409.2892
   1415.26978     645.6794     408.9691   1415.26978     645.6794     408.9691
   1415.25452     643.3545     408.7006   1415.25452     643.3545     408.7006
   1415.23926     641.4847     408.3863   1415.23926     641.4847     408.3863
   1415.22400     640.1830     408.0182   1415.22400     640.1830     408.0182
   1415.20874     639.5281     407.5536   1415.20874     639.5281     407.5536
   1415.19348     640.1640     407.3780   1415.19348     640.1640     407.3780
   1415.17822     639.7988     407.6987   1415.17822     639.7988     407.6987
   1415.16296     635.7264     405.7171   1415.16296     635.7264     405.7171
   1415.14771     635.0771     405.9241   1415.14771     635.0771     405.9241
   1415.13245     632.9909     405.1542   1415.13245     632.9909     405.1542
   1415.11719     632.2705     405.2498   1415.11719     632.2705     405.2498
   1415.10193     630.2161     404.7212   1415.10193     630.2161     404.7212
   1415.08667     628.7136     404.8778   1415.08667     628.7136     404.8778
   1415.07141     627.3248     404.4629   1415.07141     627.3248     404.4629
   1415.05615     627.1748     403.7444   1415.05615     627.1748     403.7444
   1415.04089     625.3770     402.9852   1415.04089     625.3770     402.9852
   1415.02563     622.7639     402.9164   1415.02563     622.7639     402.9164
   1415.01038     622.6921     401.7325   1415.01038     622.6921     401.7325
   1414.99512     621.7813     401.5427   1414.99512     621.7813     401.5427
   1414.97986     619.1424     401.4516   1414.97986     619.1424     401.4516
   1414.96460     618.2848     400.6234   1414.96460     618.2848     400.6234
   1414.94934     615.5599     400.7098   1414.94934     615.5599     400.7098
   1414.93408     614.4021     399.3137   1414.93408     614.4021     399.3137
   1414.91882     613.2524     399.1800   1414.91882     613.2524     399.1800
   1414.90356     611.2496     398.7232   1414.90356     611.2496     398.7232
   1414.88831     609.1849     398.3536   1414.88831     609.1849     398.3536
   1414.87305     608.0352     397.9097   1414.87305     608.0352     397.9097
   1414.85779     606.3928     396.8402   1414.85779     606.3928     396.8402
   1414.84253     604.4745     397.2092   1414.84253     604.4745     397.2092
   1414.82727     602.4669     396.2243   1414.82727     602.4669     396.2243
   1414.81201     601.1933     395.3217   1414.81201     601.1933     395.3217
   1414.79675     599.7881     395.0744   1414.79675     599.7881     395.0744
   1414.78149     597.5604     394.0958   1414.78149     597.5604     394.0958
   1414.76624     596.2509     393.3633   1414.76624     596.2509     393.3633
   1414.75098     594.4641     393.2573   1414.75098     594.4641     393.2573
   1414.73572     593.0576     392.6200   1414.73572     593.0576     392.6200
   1414.72046     591.1287     392.3358   1414.72046     591.1287     392.3358
   1414.70520     589.3798     391.0872   1414.70520     589.3798     391.0872
   1414.68994     587.2473     390.4928   1414.68994     587.2473     390.4928
   1414.67468     585.5773     390.2147   1414.67468     585.5773     390.2147
   1414.65942     582.9377     389.3422   1414.65942     582.9377     389.3422
   1414.64417     581.7938     388.0000   1414.64417     581.7938     388.0000
   1414.62891     579.2490     387.4057   1414.62891     579.2490     387.4057
   1414.61365     579.0245     386.4524   1414.61365     579.0245     386.4524
   1414.59839     576.2923     386.2567   1414.59839     576.2923     386.2567
   1414.58313     573.9003     385.3780   1414.58313     573.9003     385.3780
   1414.56787     571.8441     384.9424   1414.56787     571.8441     384.9424
   1414.55261     571.1939     384.0030   1414.55261     571.1939     384.0030
   1414.53735     567.8633     383.2918   1414.53735     567.8633     383.2918
   1414.52209     566.4294     382.2152   1414.52209     566.4294     382.2152
   1414.50684     563.8104     381.4346   1414.50684     563.8104     381.4346
   1414.49158     562.2009     381.1963   1414.49158     562.2009     381.1963
   1414.47632     559.4490     380.1902   1414.47632     559.4490     380.1902
   1414.46106     557.1937     379.1942   1414.46106     557.1937     379.1942
   1414.44580     555.9202     377.9432   1414.44580     555.9202     377.9432
   1414.43054     554.1348     377.2673   1414.43054     554.1348     377.2673
   1414.41528     551.4807     376.4921   1414.41528     551.4807     376.4921
   1414.40002     549.3033     375.7473   1414.40002     549.3033     375.7473
   1414.38477     546.8420     374.4045   1414.38477     546.8420     374.4045
   1414.36951     544.9664     373.8013   1414.36951     544.9664     373.8013
   1414.35425     542.3641     372.8996   1414.35425     542.3641     372.8996
   1414.33899     539.9066     372.3055   1414.33899     539.9066     372.3055
   1414.32373     538.0071     371.9783   1414.32373     538.0071     371.9783
   1414.30847     535.8506     370.3881   1414.30847     535.8506     370.3881
   1414.29321     533.0351     368.9903   1414.29321     533.0351     368.9903
   1414.27795     530.4287     367.8132   1414.27795     530.4287     367.8132
   1414.26270     528.7819     366.8802   1414.26270     528.7819     366.8802
   1414.24744     526.8334     365.8214   1414.24744     526.8334     365.8214
   1414.23218     525.3225     365.2577   1414.23218     525.3225     365.2577
   1414.21692     522.5717     363.9616   1414.21692     522.5717     363.9616
   1414.20166     519.8575     362.9332   1414.20166     519.8575     362.9332
   1414.18640     517.3561     361.9155   1414.18640     517.3561     361.9155
   1414.17114     515.1537     360.5305   1414.17114     515.1537     360.5305
   1414.15588     512.5916     359.5623   1414.15588     512.5916     359.5623
   1414.14062     510.0494     358.1949   1414.14062     510.0494     358.1949
   1414.12537     506.7404     358.0948   1414.12537     506.7404     358.0948
   1414.11011     505.4147     357.0901   1414.11011     505.4147     357.0901
   1414.09485     502.0102     355.6151   1414.09485     502.0102     355.6151
   1414.07959     500.6142     354.7198   1414.07959     500.6142     354.7198
   1414.06433     497.6670     353.8350   1414.06433     497.6670     353.8350
   1414.04907     495.3199     352.7259   1414.04907     495.3199     352.7259
   1414.03381     493.2163     351.5202   1414.03381     493.2163     351.5202
   1414.01855     491.5136     350.3435   1414.01855     491.5136     350.3435
   1414.00330     514.7267     357.2299   1414.00330     514.7267     357.2299
   1413.98804     487.5986     348.0542   1413.98804     487.5986     348.0542
   1413.97278     483.4368     346.8763   1413.97278     483.4368     346.8763
   1413.95752     480.1174     345.3457   1413.95752     480.1174     345.3457
   1413.94226     477.2391     344.0682   1413.94226     477.2391     344.0682
   1413.92700     474.8377     342.5246   1413.92700     474.8377     342.5246
   1413.91174     472.5972     341.9761   1413.91174     472.5972     341.9761
   1413.89648     470.0950     340.5351   1413.89648     470.0950     340.5351
   1413.88123     467.3140     339.4772   1413.88123     467.3140     339.4772
   1413.86597     464.2412     338.2435   1413.86597     464.2412     338.2435
   1413.85071     462.4601     336.7008   1413.85071     462.4601     336.7008
   1413.83545     460.0677     335.3193   1413.83545     460.0677     335.3193
   1413.82019     456.6398     334.3430   1413.82019     456.6398     334.3430
   1413.80493     454.4711     333.2698   1413.80493     454.4711     333.2698
   1413.78967     451.7102     331.6179   1413.78967     451.7102     331.6179
   1413.77441     450.3510     330.3503   1413.77441     450.3510     330.3503
   1413.75916     446.7655     329.2994   1413.75916     446.7655     329.2994
   1413.74390     444.0668     328.1932   1413.74390     444.0668     328.1932
   1413.72864     441.7779     326.2237   1413.72864     441.7779     326.2237
   1413.71338     439.1595     325.5745   1413.71338     439.1595     325.5745
   1413.69812     436.5297     323.9154   1413.69812     436.5297     323.9154
   1413.68286     433.9683     322.5018   1413.68286     433.9683     322.5018
   1413.66760     432.0287     321.1185   1413.66760     432.0287     321.1185
   1413.65234     429.0168     320.2866   1413.65234     429.0168     320.2866
   1413.63708     426.3226     318.2394   1413.63708     426.3226     318.2394
   1413.62183     424.1707     317.6614   1413.62183     424.1707     317.6614
   1413.60657     421.4191     315.8784   1413.60657     421.4191     315.8784
   1413.59131     419.3015     314.8381   1413.59131     419.3015     314.8381
   1413.57605     416.2782     313.1023   1413.57605     416.2782     313.1023
   1413.56079     413.8387     312.0489   1413.56079     413.8387     312.0489
   1413.54553     410.9307     310.2073   1413.54553     410.9307     310.2073
   1413.53027     409.4215     309.0560   1413.53027     409.4215     309.0560
   1413.51501     406.4920     308.3520   1413.51501     406.4920     308.3520
   1413.49976     403.0630     306.8923   1413.49976     403.0630     306.8923
   1413.48450     402.1149     305.2015   1413.48450     402.1149     305.2015
   1413.46924     398.8727     303.9468   1413.46924     398.8727     303.9468
   1413.45398     396.3792     302.3336   1413.45398     396.3792     302.3336
   1413.43872     393.5670     300.7882   1413.43872     393.5670     300.7882
   1413.42346     391.3228     299.5255   1413.42346     391.3228     299.5255
   1413.40820     389.8029     298.2700   1413.40820     389.8029     298.2700
   1413.39294     386.4859     296.8235   1413.39294     386.4859     296.8235
   1413.37769     384.8636     295.5146   1413.37769     384.8636     295.5146
   1413.36243     382.3941     294.9047   1413.36243     382.3941     294.9047
   1413.34717     379.7498     293.3464   1413.34717     379.7498     293.3464
   1413.33191     377.3613     291.8413   1413.33191     377.3613     291.8413
   1413.31665     375.4112     290.5589   1413.31665     375.4112     290.5589
   1413.30139     373.2972     289.4288   1413.30139     373.2972     289.4288
   1413.28613     370.7014     287.7252   1413.28613     370.7014     287.7252
   1413.27087     368.8769     286.7170   1413.27087     368.8769     286.7170
   1413.25562     366.7068     285.2754   1413.25562     366.7068     285.2754
   1413.24036     364.0764     283.9922   1413.24036     364.0764     283.9922
   1413.22510     362.0251     282.7704   1413.22510     362.0251     282.7704
   1413.20984     360.3948     281.5247   1413.20984     360.3948     281.5247
   1413.19458     357.8479     280.1157   1413.19458     357.8479     280.1157
   1413.17932     355.5728     278.5869   1413.17932     355.5728     278.5869
   1413.16406     353.7658     277.3101   1413.16406     353.7658     277.3101
   1413.14880     352.1079     276.2665   1413.14880     352.1079     276.2665
   1413.13354     350.3865     275.2414   1413.13354     350.3865     275.2414
   1413.11829     348.2877     274.4295   1413.11829     348.2877     274.4295
   1413.10303     346.3601     272.7281   1413.10303     346.3601     272.7281
   1413.08777     344.6652     271.5926   1413.08777     344.6652     271.5926
   1413.07251     342.3970     270.2498   1413.07251     342.3970     270.2498
   1413.05725     339.7820     269.1593   1413.05725     339.7820     269.1593
   1413.04199     338.2058     267.9060   1413.04199     338.2058     267.9060
   1413.02673     337.0639     266.6031   1413.02673     337.0639     266.6031
   1413.01147     335.1754     266.0145   1413.01147     335.1754     266.0145
   1412.99622     333.1129     264.6952   1412.99622     333.1129     264.6952
   1412.98096     331.5165     263.9696   1412.98096     331.5165     263.9696
   1412.96570     329.3850     262.2098   1412.96570     329.3850     262.2098
   1412.95044     328.6611     261.6740   1412.95044     328.6611     261.6740
   1412.93518     326.5735     260.5773   1412.93518     326.5735     260.5773
   1412.91992     325.2041     259.4453   1412.91992     325.2041     259.4453
   1412.90466     323.4101     258.6070   1412.90466     323.4101     258.6070
   1412.88940     321.6812     257.9505   1412.88940     321.6812     257.9505
   1412.87415     320.4486     256.8073   1412.87415     320.4486     256.8073
   1412.85889     319.4379     255.9207   1412.85889     319.4379     255.9207
   1412.84363     318.4460     254.4617   1412.84363     318.4460     254.4617
   1412.82837     317.2451     253.8944   1412.82837     317.2451     253.8944
   1412.81311     315.2999     253.0491   1412.81311     315.2999     253.0491
   1412.79785     314.1707     252.2928   1412.79785     314.1707     252.2928
   1412.78259     312.4908     251.7707   1412.78259     312.4908     251.7707
   1412.76733     311.4335     250.3642   1412.76733     311.4335     250.3642
   1412.75208     310.9798     249.8089   1412.75208     310.9798     249.8089
   1412.73682     309.8184     249.0048   1412.73682     309.8184     249.0048
   1412.72156     308.3193     248.1997   1412.72156     308.3193     248.1997
   1412.70630     307.4134     247.4617   1412.70630     307.4134     247.4617
   1412.69104     306.2868     246.5764   1412.69104     306.2868     246.5764
   1412.67578     305.3364     245.9273   1412.67578     305.3364     245.9273
   1412.66052     304.4504     245.6273   1412.66052     304.4504     245.6273
   1412.64526     303.7150     245.0438   1412.64526     303.7150     245.0438
   1412.63000     303.1007     244.2931   1412.63000     303.1007     244.2931
   1412.61475     302.3690     243.4939   1412.61475     302.3690     243.4939
   1412.59949     300.9977     243.4429   1412.59949     300.9977     243.4429
   1412.58423     300.4947     242.7592   1412.58423     300.4947     242.7592
   1412.56897     300.4299     242.6062   1412.56897     300.4299     242.6062
   1412.55371     299.4314     241.8899   1412.55371     299.4314     241.8899
   1412.53845     298.9925     241.1730   1412.53845     298.9925     241.1730
   1412.52319     298.6353     240.7857   1412.52319     298.6353     240.7857
   1412.50793     298.1032     240.8538   1412.50793     298.1032     240.8538
   1412.49268     297.6406     240.7967   1412.49268     297.6406     240.7967
   1412.47742     297.4224     239.9063   1412.47742     297.4224     239.9063
   1412.46216     297.4876     239.9552   1412.46216     297.4876     239.9552
   1412.44690     296.9189     239.4829   1412.44690     296.9189     239.4829
   1412.43164     296.4186     239.2645   1412.43164     296.4186     239.2645
   1412.41638     296.3749     239.5471   1412.41638     296.3749     239.5471
   1412.40112     295.8163     239.1222   1412.40112     295.8163     239.1222
   1412.38586     296.0631     238.8406   1412.38586     296.0631     238.8406
   1412.37061     295.8088     238.5054   1412.37061     295.8088     238.5054
   1412.35535     296.2386     239.0256   1412.35535     296.2386     239.0256
   1412.34009     296.1862     238.5361   1412.34009     296.1862     238.5361
   1412.32483     295.9653     238.6351   1412.32483     295.9653     238.6351
   1412.30957     296.1879     239.0508   1412.30957     296.1879     239.0508
   1412.29431     296.6575     238.6990   1412.29431     296.6575     238.6990
   1412.27905     296.8716     238.9281   1412.27905     296.8716     238.9281
   1412.26379     297.2066     239.4894   1412.26379     297.2066     239.4894
   1412.24854     296.9625     239.2254   1412.24854     296.9625     239.2254
   1412.23328     297.7183     239.5549   1412.23328     297.7183     239.5549
   1412.21802     297.6810     239.9071   1412.21802     297.6810     239.9071
   1412.20276     298.6307     239.7836   1412.20276     298.6307     239.7836