#     FILENAME=!Skynet_57528_lach-hhg-158_20518_20982.cyb.fits
#     BASENAME=Skynet_57528_lach-hhg-158_20518_20982
#     SRC_NAME=lach-hhg-158
#     OBSERVER=hhgmadison16_9500
#     DATE_OBS=2016-05-20T17:53:52.750
#        OBSID=20518
#      SCANNUM=20982
#          MJD=57528.7468
#          UTC=64521
#     SCANTYPE=track
#     DATAMODE=HIRES
#     TUNEFREQ=1420.0000
# Actual_FREQ1=1420.0000
# Actual_FREQ2=1420.0000
#    LO1Tuning=6870.000
#     RFFILTER=1355_1435
#        OBSBW=-15.6250
#        NCHAN=1024 
#        FOCUS=37.1148
#           RA=04:39:21.70
#          DEC=46:45:18.21
#      RA(hrs)=4.656000
#     DEC(deg)=46.755100
#    AZIM(deg)=12.051
#    ELEV(deg)=81.358
#     IFattens=10.00, 9.00
#      WARNING=None
#    TCAL_XL1=7.9635
#    TCAL_YR1=9.1340
#    TCAL_XL2=7.9635
#    TCAL_YR2=9.1340
#     TRX_XL1=11.7060
#     TRX_YR1=11.7060
#     TRX_XL2=11.7060
#     TRX_YR2=11.7060
#        TAVE=1.0000
#Freq1(MHz)          XL1          YR1  Freq2(MHz)          XL2          YR2 

   1427.81250     375.9367     340.0314   1427.81250     375.9367     340.0314
   1427.79724     377.1356     341.7962   1427.79724     377.1356     341.7962
   1427.78198     377.6524     342.5747   1427.78198     377.6524     342.5747
   1427.76672     378.5228     345.2564   1427.76672     378.5228     345.2564
   1427.75146     379.4365     347.3060   1427.75146     379.4365     347.3060
   1427.73621     380.0136     348.7371   1427.73621     380.0136     348.7371
   1427.72095     381.2996     350.5106   1427.72095     381.2996     350.5106
   1427.70569     382.1460     352.2159   1427.70569     382.1460     352.2159
   1427.69043     382.4363     354.0849   1427.69043     382.4363     354.0849
   1427.67517     384.5167     356.8510   1427.67517     384.5167     356.8510
   1427.65991     385.7632     358.2120   1427.65991     385.7632     358.2120
   1427.64465     385.7127     360.0660   1427.64465     385.7127     360.0660
   1427.62939     387.8439     361.8984   1427.62939     387.8439     361.8984
   1427.61414     389.1520     364.6369   1427.61414     389.1520     364.6369
   1427.59888     390.2141     366.8787   1427.59888     390.2141     366.8787
   1427.58362     392.4595     369.0453   1427.58362     392.4595     369.0453
   1427.56836     393.5478     370.4547   1427.56836     393.5478     370.4547
   1427.55310     394.3434     373.1815   1427.55310     394.3434     373.1815
   1427.53784     395.4875     375.7556   1427.53784     395.4875     375.7556
   1427.52258     397.0078     377.7822   1427.52258     397.0078     377.7822
   1427.50732     398.2741     379.5866   1427.50732     398.2741     379.5866
   1427.49207     400.8723     382.3532   1427.49207     400.8723     382.3532
   1427.47681     402.1264     385.1499   1427.47681     402.1264     385.1499
   1427.46155     403.9060     388.3633   1427.46155     403.9060     388.3633
   1427.44629     405.6927     390.2141   1427.44629     405.6927     390.2141
   1427.43103     406.8048     392.5792   1427.43103     406.8048     392.5792
   1427.41577     409.9053     394.2388   1427.41577     409.9053     394.2388
   1427.40051     411.5288     398.0706   1427.40051     411.5288     398.0706
   1427.38525     414.0772     400.0464   1427.38525     414.0772     400.0464
   1427.37000     415.4827     403.0889   1427.37000     415.4827     403.0889
   1427.35474     416.9787     405.4994   1427.35474     416.9787     405.4994
   1427.33948     419.2293     408.2396   1427.33948     419.2293     408.2396
   1427.32422     421.3430     410.1010   1427.32422     421.3430     410.1010
   1427.30896     423.2454     413.7331   1427.30896     423.2454     413.7331
   1427.29370     425.6089     415.9659   1427.29370     425.6089     415.9659
   1427.27844     427.9121     418.5367   1427.27844     427.9121     418.5367
   1427.26318     430.2559     421.2488   1427.26318     430.2559     421.2488
   1427.24792     432.7395     424.3561   1427.24792     432.7395     424.3561
   1427.23267     434.7251     427.1678   1427.23267     434.7251     427.1678
   1427.21741     437.2266     429.6876   1427.21741     437.2266     429.6876
   1427.20215     439.6843     432.1292   1427.20215     439.6843     432.1292
   1427.18689     443.0559     435.1448   1427.18689     443.0559     435.1448
   1427.17163     444.5345     437.6534   1427.17163     444.5345     437.6534
   1427.15637     447.8006     440.5984   1427.15637     447.8006     440.5984
   1427.14111     449.7879     443.9629   1427.14111     449.7879     443.9629
   1427.12585     452.3946     446.2758   1427.12585     452.3946     446.2758
   1427.11060     455.2160     448.9027   1427.11060     455.2160     448.9027
   1427.09534     456.9294     452.4425   1427.09534     456.9294     452.4425
   1427.08008     460.5929     455.3565   1427.08008     460.5929     455.3565
   1427.06482     462.7722     457.3034   1427.06482     462.7722     457.3034
   1427.04956     465.6609     460.3925   1427.04956     465.6609     460.3925
   1427.03430     468.3392     463.4383   1427.03430     468.3392     463.4383
   1427.01904     471.0271     465.6847   1427.01904     471.0271     465.6847
   1427.00378     473.9392     467.9166   1427.00378     473.9392     467.9166
   1426.98853     476.1130     470.9884   1426.98853     476.1130     470.9884
   1426.97327     478.8377     474.2769   1426.97327     478.8377     474.2769
   1426.95801     482.2036     476.5423   1426.95801     482.2036     476.5423
   1426.94275     485.1784     479.7401   1426.94275     485.1784     479.7401
   1426.92749     488.0374     482.2402   1426.92749     488.0374     482.2402
   1426.91223     491.3954     484.9700   1426.91223     491.3954     484.9700
   1426.89697     494.3942     488.0230   1426.89697     494.3942     488.0230
   1426.88171     496.7241     490.0921   1426.88171     496.7241     490.0921
   1426.86646     500.1429     492.8044   1426.86646     500.1429     492.8044
   1426.85120     502.8489     495.4647   1426.85120     502.8489     495.4647
   1426.83594     506.2406     498.9862   1426.83594     506.2406     498.9862
   1426.82068     508.7941     500.4828   1426.82068     508.7941     500.4828
   1426.80542     512.6625     503.6907   1426.80542     512.6625     503.6907
   1426.79016     514.9957     505.6306   1426.79016     514.9957     505.6306
   1426.77490     518.0001     509.3489   1426.77490     518.0001     509.3489
   1426.75964     521.3989     510.6026   1426.75964     521.3989     510.6026
   1426.74438     524.4147     514.8160   1426.74438     524.4147     514.8160
   1426.72913     526.3067     515.3881   1426.72913     526.3067     515.3881
   1426.71387     529.5560     518.0189   1426.71387     529.5560     518.0189
   1426.69861     533.0182     521.2192   1426.69861     533.0182     521.2192
   1426.68335     536.0766     523.6552   1426.68335     536.0766     523.6552
   1426.66809     539.6086     525.9371   1426.66809     539.6086     525.9371
   1426.65283     542.5985     528.6329   1426.65283     542.5985     528.6329
   1426.63757     545.3325     530.7921   1426.63757     545.3325     530.7921
   1426.62231     548.0679     534.3204   1426.62231     548.0679     534.3204
   1426.60706     551.0605     534.9929   1426.60706     551.0605     534.9929
   1426.59180     554.3765     537.7800   1426.59180     554.3765     537.7800
   1426.57654     556.9706     540.2613   1426.57654     556.9706     540.2613
   1426.56128     561.4380     542.4618   1426.56128     561.4380     542.4618
   1426.54602     564.4007     544.5569   1426.54602     564.4007     544.5569
   1426.53076     566.8422     546.8951   1426.53076     566.8422     546.8951
   1426.51550     570.1641     549.3304   1426.51550     570.1641     549.3304
   1426.50024     573.3120     551.2820   1426.50024     573.3120     551.2820
   1426.48499     576.4881     553.6262   1426.48499     576.4881     553.6262
   1426.46973     578.3176     555.0738   1426.46973     578.3176     555.0738
   1426.45447     580.9783     557.6021   1426.45447     580.9783     557.6021
   1426.43921     585.6373     559.4194   1426.43921     585.6373     559.4194
   1426.42395     588.0449     560.4990   1426.42395     588.0449     560.4990
   1426.40869     591.3270     563.4640   1426.40869     591.3270     563.4640
   1426.39343     593.9551     564.6328   1426.39343     593.9551     564.6328
   1426.37817     596.2084     567.2310   1426.37817     596.2084     567.2310
   1426.36292     600.0374     568.9927   1426.36292     600.0374     568.9927
   1426.34766     603.7540     570.5047   1426.34766     603.7540     570.5047
   1426.33240     605.5114     571.9219   1426.33240     605.5114     571.9219
   1426.31714     608.8769     574.3423   1426.31714     608.8769     574.3423
   1426.30188     611.9364     576.3978   1426.30188     611.9364     576.3978
   1426.28662     614.2644     578.2985   1426.28662     614.2644     578.2985
   1426.27136     617.3716     578.9625   1426.27136     617.3716     578.9625
   1426.25610     620.3393     581.2310   1426.25610     620.3393     581.2310
   1426.24084     622.9384     583.1603   1426.24084     622.9384     583.1603
   1426.22559     626.3881     584.5148   1426.22559     626.3881     584.5148
   1426.21033     629.2068     586.3527   1426.21033     629.2068     586.3527
   1426.19507     631.3593     587.6528   1426.19507     631.3593     587.6528
   1426.17981     634.5236     589.8795   1426.17981     634.5236     589.8795
   1426.16455     637.0660     591.2583   1426.16455     637.0660     591.2583
   1426.14929     640.2501     591.9689   1426.14929     640.2501     591.9689
   1426.13403     643.3037     592.6790   1426.13403     643.3037     592.6790
   1426.11877     644.8575     594.3392   1426.11877     644.8575     594.3392
   1426.10352     647.4706     596.9066   1426.10352     647.4706     596.9066
   1426.08826     650.8044     598.0715   1426.08826     650.8044     598.0715
   1426.07300     653.1266     599.8471   1426.07300     653.1266     599.8471
   1426.05774     655.4226     600.3052   1426.05774     655.4226     600.3052
   1426.04248     657.4178     601.6451   1426.04248     657.4178     601.6451
   1426.02722     661.0066     602.1353   1426.02722     661.0066     602.1353
   1426.01196     663.1257     605.1404   1426.01196     663.1257     605.1404
   1425.99670     665.9215     605.3874   1425.99670     665.9215     605.3874
   1425.98145     667.6399     606.3320   1425.98145     667.6399     606.3320
   1425.96619     669.8283     606.4324   1425.96619     669.8283     606.4324
   1425.95093     673.4775     608.2789   1425.95093     673.4775     608.2789
   1425.93567     675.4827     610.0615   1425.93567     675.4827     610.0615
   1425.92041     678.2838     610.6365   1425.92041     678.2838     610.6365
   1425.90515     680.9633     611.7040   1425.90515     680.9633     611.7040
   1425.88989     683.2208     612.2260   1425.88989     683.2208     612.2260
   1425.87463     683.9018     613.5423   1425.87463     683.9018     613.5423
   1425.85938     686.6632     614.1293   1425.85938     686.6632     614.1293
   1425.84412     690.1274     615.7455   1425.84412     690.1274     615.7455
   1425.82886     690.9529     616.4166   1425.82886     690.9529     616.4166
   1425.81360     692.7516     618.0040   1425.81360     692.7516     618.0040
   1425.79834     696.2113     618.6501   1425.79834     696.2113     618.6501
   1425.78308     698.1072     619.6114   1425.78308     698.1072     619.6114
   1425.76782     698.0228     619.9626   1425.76782     698.0228     619.9626
   1425.75256     701.5377     620.0801   1425.75256     701.5377     620.0801
   1425.73730     703.8163     620.7833   1425.73730     703.8163     620.7833
   1425.72205     706.5513     622.2061   1425.72205     706.5513     622.2061
   1425.70679     708.9634     622.7403   1425.70679     708.9634     622.7403
   1425.69153     708.8407     622.1063   1425.69153     708.8407     622.1063
   1425.67627     711.2480     624.4917   1425.67627     711.2480     624.4917
   1425.66101     713.6765     625.2313   1425.66101     713.6765     625.2313
   1425.64575     715.0428     625.5353   1425.64575     715.0428     625.5353
   1425.63049     716.7331     626.5247   1425.63049     716.7331     626.5247
   1425.61523     718.6733     626.5648   1425.61523     718.6733     626.5648
   1425.59998     720.6523     628.4686   1425.59998     720.6523     628.4686
   1425.58472     721.6755     628.4601   1425.58472     721.6755     628.4601
   1425.56946     723.8018     628.1557   1425.56946     723.8018     628.1557
   1425.55420     724.7736     629.1726   1425.55420     724.7736     629.1726
   1425.53894     727.2962     629.6129   1425.53894     727.2962     629.6129
   1425.52368     727.3037     629.9163   1425.52368     727.3037     629.9163
   1425.50842     729.2418     629.9745   1425.50842     729.2418     629.9745
   1425.49316     731.6493     629.5778   1425.49316     731.6493     629.5778
   1425.47791     732.4173     630.9036   1425.47791     732.4173     630.9036
   1425.46265     734.3773     630.6415   1425.46265     734.3773     630.6415
   1425.44739     735.5916     632.1475   1425.44739     735.5916     632.1475
   1425.43213     735.8983     631.8001   1425.43213     735.8983     631.8001
   1425.41687     737.3383     633.5194   1425.41687     737.3383     633.5194
   1425.40161     739.1530     633.0936   1425.40161     739.1530     633.0936
   1425.38635     740.5907     632.8215   1425.38635     740.5907     632.8215
   1425.37109     741.4922     632.9682   1425.37109     741.4922     632.9682
   1425.35583     743.4053     633.4863   1425.35583     743.4053     633.4863
   1425.34058     744.9336     633.5595   1425.34058     744.9336     633.5595
   1425.32532     745.1837     633.6459   1425.32532     745.1837     633.6459
   1425.31006     746.5067     634.1705   1425.31006     746.5067     634.1705
   1425.29480     747.7494     634.3432   1425.29480     747.7494     634.3432
   1425.27954     748.4903     635.2045   1425.27954     748.4903     635.2045
   1425.26428     749.4373     634.2199   1425.26428     749.4373     634.2199
   1425.24902     750.1511     634.1990   1425.24902     750.1511     634.1990
   1425.23376     751.4961     633.5047   1425.23376     751.4961     633.5047
   1425.21851     752.3765     634.9290   1425.21851     752.3765     634.9290
   1425.20325     752.3553     634.0999   1425.20325     752.3553     634.0999
   1425.18799     753.0082     634.6815   1425.18799     753.0082     634.6815
   1425.17273     755.6165     634.7553   1425.17273     755.6165     634.7553
   1425.15747     755.5261     634.8360   1425.15747     755.5261     634.8360
   1425.14221     757.1799     634.8524   1425.14221     757.1799     634.8524
   1425.12695     757.6252     634.5691   1425.12695     757.6252     634.5691
   1425.11169     758.8127     634.2311   1425.11169     758.8127     634.2311
   1425.09644     758.7883     633.9499   1425.09644     758.7883     633.9499
   1425.08118     759.7972     633.8625   1425.08118     759.7972     633.8625
   1425.06592     759.1013     635.6770   1425.06592     759.1013     635.6770
   1425.05066     760.2255     634.0334   1425.05066     760.2255     634.0334
   1425.03540     760.6954     633.8607   1425.03540     760.6954     633.8607
   1425.02014     762.8687     634.1898   1425.02014     762.8687     634.1898
   1425.00488     762.0674     634.4534   1425.00488     762.0674     634.4534
   1424.98962     763.2964     634.0054   1424.98962     763.2964     634.0054
   1424.97437     763.4018     634.1183   1424.97437     763.4018     634.1183
   1424.95911     764.2895     633.7765   1424.95911     764.2895     633.7765
   1424.94385     763.8397     634.2159   1424.94385     763.8397     634.2159
   1424.92859     765.7385     633.2278   1424.92859     765.7385     633.2278
   1424.91333     764.8432     633.9870   1424.91333     764.8432     633.9870
   1424.89807     765.2301     632.5933   1424.89807     765.2301     632.5933
   1424.88281     765.8255     633.0344   1424.88281     765.8255     633.0344
   1424.86755     765.3106     632.6024   1424.86755     765.3106     632.6024
   1424.85229     764.9095     632.0667   1424.85229     764.9095     632.0667
   1424.83704     765.9138     631.6369   1424.83704     765.9138     631.6369
   1424.82178     767.3493     631.1123   1424.82178     767.3493     631.1123
   1424.80652     767.2134     631.2197   1424.80652     767.2134     631.2197
   1424.79126     767.1488     630.6749   1424.79126     767.1488     630.6749
   1424.77600     766.3886     631.5980   1424.77600     766.3886     631.5980
   1424.76074     768.9398     631.0701   1424.76074     768.9398     631.0701
   1424.74548     768.1256     631.4371   1424.74548     768.1256     631.4371
   1424.73022     768.4103     630.1529   1424.73022     768.4103     630.1529
   1424.71497     767.2710     630.5745   1424.71497     767.2710     630.5745
   1424.69971     766.9858     629.4759   1424.69971     766.9858     629.4759
   1424.68445     768.0531     628.9900   1424.68445     768.0531     628.9900
   1424.66919     769.1771     629.1487   1424.66919     769.1771     629.1487
   1424.65393     768.4547     628.5035   1424.65393     768.4547     628.5035
   1424.63867     768.6990     627.8516   1424.63867     768.6990     627.8516
   1424.62341     767.6374     627.1099   1424.62341     767.6374     627.1099
   1424.60815     767.4909     627.5417   1424.60815     767.4909     627.5417
   1424.59290     768.4080     626.9870   1424.59290     768.4080     626.9870
   1424.57764     767.8960     626.2433   1424.57764     767.8960     626.2433
   1424.56238     767.8594     625.6454   1424.56238     767.8594     625.6454
   1424.54712     768.6374     626.0692   1424.54712     768.6374     626.0692
   1424.53186     768.4822     624.9805   1424.53186     768.4822     624.9805
   1424.51660     768.2562     625.2225   1424.51660     768.2562     625.2225
   1424.50134     768.4174     624.5515   1424.50134     768.4174     624.5515
   1424.48608     767.5609     624.1345   1424.48608     767.5609     624.1345
   1424.47083     765.9112     623.2913   1424.47083     765.9112     623.2913
   1424.45557     766.9149     624.0157   1424.45557     766.9149     624.0157
   1424.44031     766.1236     622.7747   1424.44031     766.1236     622.7747
   1424.42505     765.7609     623.4075   1424.42505     765.7609     623.4075
   1424.40979     766.4241     623.2305   1424.40979     766.4241     623.2305
   1424.39453     766.4186     622.7413   1424.39453     766.4186     622.7413
   1424.37927     765.3594     620.4627   1424.37927     765.3594     620.4627
   1424.36401     765.4600     620.7963   1424.36401     765.4600     620.7963
   1424.34875     764.8038     620.4298   1424.34875     764.8038     620.4298
   1424.33350     764.3004     620.6721   1424.33350     764.3004     620.6721
   1424.31824     765.1577     618.8240   1424.31824     765.1577     618.8240
   1424.30298     765.6823     619.1060   1424.30298     765.6823     619.1060
   1424.28772     763.2728     617.4766   1424.28772     763.2728     617.4766
   1424.27246     763.2893     618.0964   1424.27246     763.2893     618.0964
   1424.25720     764.4874     617.1244   1424.25720     764.4874     617.1244
   1424.24194     764.3429     616.4871   1424.24194     764.3429     616.4871
   1424.22668     763.6118     617.8038   1424.22668     763.6118     617.8038
   1424.21143     761.4926     616.1213   1424.21143     761.4926     616.1213
   1424.19617     762.8972     616.7595   1424.19617     762.8972     616.7595
   1424.18091     761.5884     614.9150   1424.18091     761.5884     614.9150
   1424.16565     763.1001     614.1295   1424.16565     763.1001     614.1295
   1424.15039     760.7200     613.3220   1424.15039     760.7200     613.3220
   1424.13513     760.6398     613.7366   1424.13513     760.6398     613.7366
   1424.11987     760.6091     614.3612   1424.11987     760.6091     614.3612
   1424.10461     760.4482     612.7772   1424.10461     760.4482     612.7772
   1424.08936     758.8118     611.2561   1424.08936     758.8118     611.2561
   1424.07410     760.3450     611.1677   1424.07410     760.3450     611.1677
   1424.05884     758.4784     610.1083   1424.05884     758.4784     610.1083
   1424.04358     758.0701     610.4304   1424.04358     758.0701     610.4304
   1424.02832     758.7761     610.1094   1424.02832     758.7761     610.1094
   1424.01306     758.1195     609.7531   1424.01306     758.1195     609.7531
   1423.99780     756.8663     608.0589   1423.99780     756.8663     608.0589
   1423.98254     756.8318     608.3792   1423.98254     756.8318     608.3792
   1423.96729     757.0330     607.7777   1423.96729     757.0330     607.7777
   1423.95203     756.3717     606.6590   1423.95203     756.3717     606.6590
   1423.93677     755.8439     607.1960   1423.93677     755.8439     607.1960
   1423.92151     754.9343     606.8390   1423.92151     754.9343     606.8390
   1423.90625     754.4357     605.6423   1423.90625     754.4357     605.6423
   1423.89099     754.6953     604.4576   1423.89099     754.6953     604.4576
   1423.87573     753.9008     604.1122   1423.87573     753.9008     604.1122
   1423.86047     753.8687     603.6016   1423.86047     753.8687     603.6016
   1423.84521     753.3810     603.4966   1423.84521     753.3810     603.4966
   1423.82996     752.3586     601.2900   1423.82996     752.3586     601.2900
   1423.81470     752.1818     601.9527   1423.81470     752.1818     601.9527
   1423.79944     751.6080     601.3622   1423.79944     751.6080     601.3622
   1423.78418     750.3252     600.4926   1423.78418     750.3252     600.4926
   1423.76892     751.4052     600.3812   1423.76892     751.4052     600.3812
   1423.75366     750.0826     599.5087   1423.75366     750.0826     599.5087
   1423.73840     749.2290     600.1987   1423.73840     749.2290     600.1987
   1423.72314     749.3672     598.4810   1423.72314     749.3672     598.4810
   1423.70789     749.5828     597.4618   1423.70789     749.5828     597.4618
   1423.69263     748.3862     596.6801   1423.69263     748.3862     596.6801
   1423.67737     748.2038     596.9089   1423.67737     748.2038     596.9089
   1423.66211     747.8300     595.5569   1423.66211     747.8300     595.5569
   1423.64685     747.7033     595.0173   1423.64685     747.7033     595.0173
   1423.63159     747.0686     594.5095   1423.63159     747.0686     594.5095
   1423.61633     744.2146     593.7196   1423.61633     744.2146     593.7196
   1423.60107     745.5123     593.4371   1423.60107     745.5123     593.4371
   1423.58582     745.9995     593.7037   1423.58582     745.9995     593.7037
   1423.57056     744.3884     593.1630   1423.57056     744.3884     593.1630
   1423.55530     744.7740     591.8991   1423.55530     744.7740     591.8991
   1423.54004     743.1889     590.2509   1423.54004     743.1889     590.2509
   1423.52478     742.6284     590.8380   1423.52478     742.6284     590.8380
   1423.50952     742.2899     589.7913   1423.50952     742.2899     589.7913
   1423.49426     742.6139     590.2195   1423.49426     742.6139     590.2195
   1423.47900     742.0583     588.2869   1423.47900     742.0583     588.2869
   1423.46375     741.7244     587.2043   1423.46375     741.7244     587.2043
   1423.44849     740.7534     588.0940   1423.44849     740.7534     588.0940
   1423.43323     739.4610     587.2458   1423.43323     739.4610     587.2458
   1423.41797     741.1758     585.1804   1423.41797     741.1758     585.1804
   1423.40271     740.4780     585.0259   1423.40271     740.4780     585.0259
   1423.38745     739.7138     584.8680   1423.38745     739.7138     584.8680
   1423.37219     739.9626     584.0346   1423.37219     739.9626     584.0346
   1423.35693     739.0401     583.2009   1423.35693     739.0401     583.2009
   1423.34167     738.8677     583.0256   1423.34167     738.8677     583.0256
   1423.32642     737.6448     581.4990   1423.32642     737.6448     581.4990
   1423.31116     737.6212     581.7775   1423.31116     737.6212     581.7775
   1423.29590     737.2424     580.2803   1423.29590     737.2424     580.2803
   1423.28064     737.7747     580.3560   1423.28064     737.7747     580.3560
   1423.26538     736.3966     578.6925   1423.26538     736.3966     578.6925
   1423.25012     736.5665     578.9290   1423.25012     736.5665     578.9290
   1423.23486     734.8443     577.9669   1423.23486     734.8443     577.9669
   1423.21960     734.9723     577.8879   1423.21960     734.9723     577.8879
   1423.20435     735.2578     576.0228   1423.20435     735.2578     576.0228
   1423.18909     734.2835     575.4847   1423.18909     734.2835     575.4847
   1423.17383     735.6589     574.9633   1423.17383     735.6589     574.9633
   1423.15857     733.7693     575.1036   1423.15857     733.7693     575.1036
   1423.14331     733.3242     573.8790   1423.14331     733.3242     573.8790
   1423.12805     732.8851     572.8251   1423.12805     732.8851     572.8251
   1423.11279     732.6777     572.3190   1423.11279     732.6777     572.3190
   1423.09753     732.9426     570.6237   1423.09753     732.9426     570.6237
   1423.08228     731.1797     570.3954   1423.08228     731.1797     570.3954
   1423.06702     732.2177     569.6345   1423.06702     732.2177     569.6345
   1423.05176     730.8760     569.5458   1423.05176     730.8760     569.5458
   1423.03650     731.1111     567.9735   1423.03650     731.1111     567.9735
   1423.02124     731.9579     566.8975   1423.02124     731.9579     566.8975
   1423.00598     730.5522     566.6526   1423.00598     730.5522     566.6526
   1422.99072     730.1455     566.1365   1422.99072     730.1455     566.1365
   1422.97546     730.4083     565.3306   1422.97546     730.4083     565.3306
   1422.96021     729.8051     564.6180   1422.96021     729.8051     564.6180
   1422.94495     730.0317     563.3932   1422.94495     730.0317     563.3932
   1422.92969     729.6194     562.9167   1422.92969     729.6194     562.9167
   1422.91443     729.0839     562.3171   1422.91443     729.0839     562.3171
   1422.89917     729.4163     561.8383   1422.89917     729.4163     561.8383
   1422.88391     727.9808     561.6646   1422.88391     727.9808     561.6646
   1422.86865     727.3563     559.6990   1422.86865     727.3563     559.6990
   1422.85339     727.7795     558.9569   1422.85339     727.7795     558.9569
   1422.83813     728.2169     558.5317   1422.83813     728.2169     558.5317
   1422.82288     728.2303     557.9661   1422.82288     728.2303     557.9661
   1422.80762     726.0706     556.2441   1422.80762     726.0706     556.2441
   1422.79236     726.9700     556.4729   1422.79236     726.9700     556.4729
   1422.77710     727.2493     555.1317   1422.77710     727.2493     555.1317
   1422.76184     726.8443     554.2397   1422.76184     726.8443     554.2397
   1422.74658     726.2281     553.5045   1422.74658     726.2281     553.5045
   1422.73132     725.9332     552.8491   1422.73132     725.9332     552.8491
   1422.71606     726.9094     552.6774   1422.71606     726.9094     552.6774
   1422.70081     724.8660     551.2001   1422.70081     724.8660     551.2001
   1422.68555     725.9322     550.6038   1422.68555     725.9322     550.6038
   1422.67029     724.9876     549.9777   1422.67029     724.9876     549.9777
   1422.65503     724.2074     549.4208   1422.65503     724.2074     549.4208
   1422.63977     723.9044     548.2419   1422.63977     723.9044     548.2419
   1422.62451     724.2880     547.8914   1422.62451     724.2880     547.8914
   1422.60925     723.5246     546.2184   1422.60925     723.5246     546.2184
   1422.59399     724.8173     546.0429   1422.59399     724.8173     546.0429
   1422.57874     724.3038     545.1626   1422.57874     724.3038     545.1626
   1422.56348     723.2675     543.3970   1422.56348     723.2675     543.3970
   1422.54822     723.7390     543.3655   1422.54822     723.7390     543.3655
   1422.53296     723.0141     542.4417   1422.53296     723.0141     542.4417
   1422.51770     723.9910     541.6781   1422.51770     723.9910     541.6781
   1422.50244     723.2656     541.4814   1422.50244     723.2656     541.4814
   1422.48718     722.9476     540.2213   1422.48718     722.9476     540.2213
   1422.47192     722.1787     540.2349   1422.47192     722.1787     540.2349
   1422.45667     721.6044     539.0643   1422.45667     721.6044     539.0643
   1422.44141     722.2921     538.0214   1422.44141     722.2921     538.0214
   1422.42615     723.0709     537.0902   1422.42615     723.0709     537.0902
   1422.41089     722.4331     535.9555   1422.41089     722.4331     535.9555
   1422.39563     721.7090     535.6226   1422.39563     721.7090     535.6226
   1422.38037     721.9547     534.8661   1422.38037     721.9547     534.8661
   1422.36511     721.6180     533.6347   1422.36511     721.6180     533.6347
   1422.34985     721.7281     533.0211   1422.34985     721.7281     533.0211
   1422.33459     721.9299     531.9861   1422.33459     721.9299     531.9861
   1422.31934     722.7300     531.4355   1422.31934     722.7300     531.4355
   1422.30408     721.3592     530.8479   1422.30408     721.3592     530.8479
   1422.28882     721.2642     529.7513   1422.28882     721.2642     529.7513
   1422.27356     721.7269     529.2194   1422.27356     721.7269     529.2194
   1422.25830     721.4026     527.6995   1422.25830     721.4026     527.6995
   1422.24304     721.0140     527.3809   1422.24304     721.0140     527.3809
   1422.22778     720.3519     526.6223   1422.22778     720.3519     526.6223
   1422.21252     721.1821     525.5384   1422.21252     721.1821     525.5384
   1422.19727     721.2722     524.4573   1422.19727     721.2722     524.4573
   1422.18201     720.9323     522.9168   1422.18201     720.9323     522.9168
   1422.16675     721.1805     523.0794   1422.16675     721.1805     523.0794
   1422.15149     721.0771     522.0756   1422.15149     721.0771     522.0756
   1422.13623     721.0752     520.7435   1422.13623     721.0752     520.7435
   1422.12097     719.9716     520.2768   1422.12097     719.9716     520.2768
   1422.10571     720.8616     520.0505   1422.10571     720.8616     520.0505
   1422.09045     720.0607     519.3495   1422.09045     720.0607     519.3495
   1422.07520     719.3770     517.5615   1422.07520     719.3770     517.5615
   1422.05994     720.4215     517.2092   1422.05994     720.4215     517.2092
   1422.04468     719.0041     516.3652   1422.04468     719.0041     516.3652
   1422.02942     718.6755     515.3555   1422.02942     718.6755     515.3555
   1422.01416     719.5389     514.4714   1422.01416     719.5389     514.4714
   1421.99890     718.7947     512.8694   1421.99890     718.7947     512.8694
   1421.98364     720.3598     513.1290   1421.98364     720.3598     513.1290
   1421.96838     719.3716     513.0241   1421.96838     719.3716     513.0241
   1421.95312     719.0433     510.6730   1421.95312     719.0433     510.6730
   1421.93787     720.3248     510.8215   1421.93787     720.3248     510.8215
   1421.92261     719.0435     509.5371   1421.92261     719.0435     509.5371
   1421.90735     718.3549     508.0776   1421.90735     718.3549     508.0776
   1421.89209     719.5010     507.1267   1421.89209     719.5010     507.1267
   1421.87683     719.1530     506.4543   1421.87683     719.1530     506.4543
   1421.86157     719.1823     506.0603   1421.86157     719.1823     506.0603
   1421.84631     718.8438     504.4827   1421.84631     718.8438     504.4827
   1421.83105     718.5590     504.0967   1421.83105     718.5590     504.0967
   1421.81580     717.9991     502.3018   1421.81580     717.9991     502.3018
   1421.80054     718.1190     502.1966   1421.80054     718.1190     502.1966
   1421.78528     718.5653     501.3744   1421.78528     718.5653     501.3744
   1421.77002     718.3613     501.0505   1421.77002     718.3613     501.0505
   1421.75476     718.9025     500.1437   1421.75476     718.9025     500.1437
   1421.73950     719.1631     497.8444   1421.73950     719.1631     497.8444
   1421.72424     718.2887     497.8007   1421.72424     718.2887     497.8007
   1421.70898     718.2020     497.1895   1421.70898     718.2020     497.1895
   1421.69373     718.0900     495.6346   1421.69373     718.0900     495.6346
   1421.67847     717.4390     495.1856   1421.67847     717.4390     495.1856
   1421.66321     716.5234     493.6499   1421.66321     716.5234     493.6499
   1421.64795     717.6880     492.9178   1421.64795     717.6880     492.9178
   1421.63269     717.0837     492.4717   1421.63269     717.0837     492.4717
   1421.61743     716.8804     491.9335   1421.61743     716.8804     491.9335
   1421.60217     717.2935     491.1534   1421.60217     717.2935     491.1534
   1421.58691     716.9571     489.2229   1421.58691     716.9571     489.2229
   1421.57166     717.0120     489.5338   1421.57166     717.0120     489.5338
   1421.55640     716.9763     487.8971   1421.55640     716.9763     487.8971
   1421.54114     717.6921     487.0207   1421.54114     717.6921     487.0207
   1421.52588     716.5687     486.5986   1421.52588     716.5687     486.5986
   1421.51062     716.3055     485.5339   1421.51062     716.3055     485.5339
   1421.49536     716.8567     484.4659   1421.49536     716.8567     484.4659
   1421.48010     715.9684     483.8164   1421.48010     715.9684     483.8164
   1421.46484     715.5578     482.4354   1421.46484     715.5578     482.4354
   1421.44958     716.5318     482.7797   1421.44958     716.5318     482.7797
   1421.43433     716.8457     480.9603   1421.43433     716.8457     480.9603
   1421.41907     716.5511     480.7908   1421.41907     716.5511     480.7908
   1421.40381     716.0046     479.0921   1421.40381     716.0046     479.0921
   1421.38855     716.2642     478.9922   1421.38855     716.2642     478.9922
   1421.37329     715.4837     477.3353   1421.37329     715.4837     477.3353
   1421.35803     716.2827     475.9288   1421.35803     716.2827     475.9288
   1421.34277     715.6647     475.1715   1421.34277     715.6647     475.1715
   1421.32751     714.7648     475.3965   1421.32751     714.7648     475.3965
   1421.31226     714.2877     473.7052   1421.31226     714.2877     473.7052
   1421.29700     714.9227     473.9733   1421.29700     714.9227     473.9733
   1421.28174     714.9166     471.9033   1421.28174     714.9166     471.9033
   1421.26648     714.7916     471.5712   1421.26648     714.7916     471.5712
   1421.25122     714.1829     469.7170   1421.25122     714.1829     469.7170
   1421.23596     714.7314     469.2457   1421.23596     714.7314     469.2457
   1421.22070     714.0197     469.0490   1421.22070     714.0197     469.0490
   1421.20544     714.4555     467.4090   1421.20544     714.4555     467.4090
   1421.19019     713.8199     466.4166   1421.19019     713.8199     466.4166
   1421.17493     714.1530     465.8165   1421.17493     714.1530     465.8165
   1421.15967     714.3957     465.2097   1421.15967     714.3957     465.2097
   1421.14441     713.5860     464.2664   1421.14441     713.5860     464.2664
   1421.12915     713.7836     463.5499   1421.12915     713.7836     463.5499
   1421.11389     713.5738     462.6473   1421.11389     713.5738     462.6473
   1421.09863     712.2305     461.6885   1421.09863     712.2305     461.6885
   1421.08337     713.6017     460.4927   1421.08337     713.6017     460.4927
   1421.06812     712.9216     460.3628   1421.06812     712.9216     460.3628
   1421.05286     713.0668     458.7836   1421.05286     713.0668     458.7836
   1421.03760     712.8100     459.2548   1421.03760     712.8100     459.2548
   1421.02234     713.4555     457.4708   1421.02234     713.4555     457.4708
   1421.00708     713.1108     456.9468   1421.00708     713.1108     456.9468
   1420.99182     714.0299     455.9512   1420.99182     714.0299     455.9512
   1420.97656     714.8590     456.4179   1420.97656     714.8590     456.4179
   1420.96130     715.4054     455.5152   1420.96130     715.4054     455.5152
   1420.94604     716.0329     456.1069   1420.94604     716.0329     456.1069
   1420.93079     717.3028     455.6755   1420.93079     717.3028     455.6755
   1420.91553     718.5995     455.6786   1420.91553     718.5995     455.6786
   1420.90027     719.3516     455.9183   1420.90027     719.3516     455.9183
   1420.88501     721.8213     455.3660   1420.88501     721.8213     455.3660
   1420.86975     720.7880     454.6935   1420.86975     720.7880     454.6935
   1420.85449     721.9221     454.0605   1420.85449     721.9221     454.0605
   1420.83923     722.2015     453.3922   1420.83923     722.2015     453.3922
   1420.82397     725.2194     454.2006   1420.82397     725.2194     454.2006
   1420.80872     724.9286     454.0707   1420.80872     724.9286     454.0707
   1420.79346     727.4919     454.1143   1420.79346     727.4919     454.1143
   1420.77820     727.0989     453.2254   1420.77820     727.0989     453.2254
   1420.76294     731.1409     454.7661   1420.76294     731.1409     454.7661
   1420.74768     733.7504     456.0925   1420.74768     733.7504     456.0925
   1420.73242     739.5328     458.0348   1420.73242     739.5328     458.0348
   1420.71716     746.9502     462.8899   1420.71716     746.9502     462.8899
   1420.70190     760.7141     469.1864   1420.70190     760.7141     469.1864
   1420.68665     760.9240     469.7756   1420.68665     760.9240     469.7756
   1420.67139     771.4836     475.9391   1420.67139     771.4836     475.9391
   1420.65613     791.4548     484.7013   1420.65613     791.4548     484.7013
   1420.64087     802.7474     492.3950   1420.64087     802.7474     492.3950
   1420.62561     827.4870     505.8143   1420.62561     827.4870     505.8143
   1420.61035     886.8987     538.3958   1420.61035     886.8987     538.3958
   1420.59509    1027.7418     621.2100   1420.59509    1027.7418     621.2100
   1420.57983    1406.5383     841.5681   1420.57983    1406.5383     841.5681
   1420.56458    1709.7451    1017.9619   1420.56458    1709.7451    1017.9619
   1420.54932    1585.0625     943.1461   1420.54932    1585.0625     943.1461
   1420.53406    1649.0131     979.3102   1420.53406    1649.0131     979.3102
   1420.51880    1943.6476    1151.9695   1420.51880    1943.6476    1151.9695
   1420.50354    2266.1631    1331.7966   1420.50354    2266.1631    1331.7966
   1420.48828    2243.1506    1318.5334   1420.48828    2243.1506    1318.5334
   1420.47302    2066.3621    1214.0870   1420.47302    2066.3621    1214.0870
   1420.45776    1938.3986    1138.5394   1420.45776    1938.3986    1138.5394
   1420.44250    1956.0653    1144.7643   1420.44250    1956.0653    1144.7643
   1420.42725    1819.7599    1066.7284   1420.42725    1819.7599    1066.7284
   1420.41199    1504.7520     885.5292   1420.41199    1504.7520     885.5292
   1420.39673    1466.8075     860.6287   1420.39673    1466.8075     860.6287
   1420.38147    1704.9716     997.0313   1420.38147    1704.9716     997.0313
   1420.36621    1975.4630    1147.1532   1420.36621    1975.4630    1147.1532
   1420.35095    1847.8396    1073.3746   1420.35095    1847.8396    1073.3746
   1420.33569    1595.5745     927.4256   1420.33569    1595.5745     927.4256
   1420.32043    1241.7396     725.0788   1420.32043    1241.7396     725.0788
   1420.30518     927.0458     544.0064   1420.30518     927.0458     544.0064
   1420.28992     818.1539     482.4810   1420.28992     818.1539     482.4810
   1420.27466     765.4879     452.1261   1420.27466     765.4879     452.1261
   1420.25940     738.9365     436.3027   1420.25940     738.9365     436.3027
   1420.24414     726.2917     428.5939   1420.24414     726.2917     428.5939
   1420.22888     719.0053     423.1100   1420.22888     719.0053     423.1100
   1420.21362     714.0575     419.6614   1420.21362     714.0575     419.6614
   1420.19836     709.6873     417.1999   1420.19836     709.6873     417.1999
   1420.18311     708.3478     415.3058   1420.18311     708.3478     415.3058
   1420.16785     705.7623     413.1585   1420.16785     705.7623     413.1585
   1420.15259     704.8775     412.2290   1420.15259     704.8775     412.2290
   1420.13733     703.2385     411.2484   1420.13733     703.2385     411.2484
   1420.12207     703.2993     409.5850   1420.12207     703.2993     409.5850
   1420.10681     701.1111     408.9131   1420.10681     701.1111     408.9131
   1420.09155     700.0577     407.5739   1420.09155     700.0577     407.5739
   1420.07629     701.2758     406.7855   1420.07629     701.2758     406.7855
   1420.06104     699.1065     405.0318   1420.06104     699.1065     405.0318
   1420.04578     698.5638     405.2198   1420.04578     698.5638     405.2198
   1420.03052     699.1985     404.4719   1420.03052     699.1985     404.4719
   1420.01526     698.9282     404.6855   1420.01526     698.9282     404.6855
   1420.00000     699.9814     404.8059   1420.00000     699.9814     404.8059
   1419.98474     701.0347     404.9264   1419.98474     701.0347     404.9264
   1419.96948     701.5115     403.0582   1419.96948     701.5115     403.0582
   1419.95422     697.0997     400.8228   1419.95422     697.0997     400.8228
   1419.93896     696.8922     400.1676   1419.93896     696.8922     400.1676
   1419.92371     696.4885     399.2311   1419.92371     696.4885     399.2311
   1419.90845     697.3936     399.4263   1419.90845     697.3936     399.4263
   1419.89319     698.4027     398.2705   1419.89319     698.4027     398.2705
   1419.87793     697.6802     398.3553   1419.87793     697.6802     398.3553
   1419.86267     697.6929     397.0012   1419.86267     697.6929     397.0012
   1419.84741     697.2385     396.3911   1419.84741     697.2385     396.3911
   1419.83215     697.7164     396.4418   1419.83215     697.7164     396.4418
   1419.81689     698.6015     395.3699   1419.81689     698.6015     395.3699
   1419.80164     696.9709     394.7521   1419.80164     696.9709     394.7521
   1419.78638     697.4840     394.4538   1419.78638     697.4840     394.4538
   1419.77112     696.9735     394.1425   1419.77112     696.9735     394.1425
   1419.75586     696.8022     393.7836   1419.75586     696.8022     393.7836
   1419.74060     697.7214     392.4999   1419.74060     697.7214     392.4999
   1419.72534     696.5259     392.2473   1419.72534     696.5259     392.2473
   1419.71008     697.1915     392.2223   1419.71008     697.1915     392.2223
   1419.69482     696.9543     391.4791   1419.69482     696.9543     391.4791
   1419.67957     698.3617     391.4274   1419.67957     698.3617     391.4274
   1419.66431     697.4984     391.3398   1419.66431     697.4984     391.3398
   1419.64905     697.7596     390.4250   1419.64905     697.7596     390.4250
   1419.63379     697.5057     389.8874   1419.63379     697.5057     389.8874
   1419.61853     697.8027     388.9411   1419.61853     697.8027     388.9411
   1419.60327     698.4727     389.5375   1419.60327     698.4727     389.5375
   1419.58801     698.5339     388.9749   1419.58801     698.5339     388.9749
   1419.57275     698.2318     388.0102   1419.57275     698.2318     388.0102
   1419.55750     698.6046     388.4688   1419.55750     698.6046     388.4688
   1419.54224     698.9214     387.8105   1419.54224     698.9214     387.8105
   1419.52698     699.1923     387.3486   1419.52698     699.1923     387.3486
   1419.51172     697.5532     387.5279   1419.51172     697.5532     387.5279
   1419.49646     699.3635     386.6369   1419.49646     699.3635     386.6369
   1419.48120     699.0893     386.8216   1419.48120     699.0893     386.8216
   1419.46594     699.4106     386.2817   1419.46594     699.4106     386.2817
   1419.45068     699.3041     385.7026   1419.45068     699.3041     385.7026
   1419.43542     699.4320     385.4766   1419.43542     699.4320     385.4766
   1419.42017     699.8082     385.3392   1419.42017     699.8082     385.3392
   1419.40491     700.4175     384.9923   1419.40491     700.4175     384.9923
   1419.38965     700.5275     384.6942   1419.38965     700.5275     384.6942
   1419.37439     700.6323     384.0854   1419.37439     700.6323     384.0854
   1419.35913     699.6246     384.3623   1419.35913     699.6246     384.3623
   1419.34387     700.6229     384.3746   1419.34387     700.6229     384.3746
   1419.32861     701.0748     384.4276   1419.32861     701.0748     384.4276
   1419.31335     702.5497     383.4387   1419.31335     702.5497     383.4387
   1419.29810     701.6246     383.0995   1419.29810     701.6246     383.0995
   1419.28284     702.7707     383.7288   1419.28284     702.7707     383.7288
   1419.26758     704.1096     383.3647   1419.26758     704.1096     383.3647
   1419.25232     703.0092     383.1078   1419.25232     703.0092     383.1078
   1419.23706     703.3084     383.1085   1419.23706     703.3084     383.1085
   1419.22180     702.6671     383.1473   1419.22180     702.6671     383.1473
   1419.20654     702.6610     383.0864   1419.20654     702.6610     383.0864
   1419.19128     703.3264     382.3742   1419.19128     703.3264     382.3742
   1419.17603     702.9642     382.4752   1419.17603     702.9642     382.4752
   1419.16077     704.9587     382.4163   1419.16077     704.9587     382.4163
   1419.14551     704.1987     382.4664   1419.14551     704.1987     382.4664
   1419.13025     704.3004     383.1786   1419.13025     704.3004     383.1786
   1419.11499     705.8214     382.2609   1419.11499     705.8214     382.2609
   1419.09973     706.4753     382.5014   1419.09973     706.4753     382.5014
   1419.08447     706.6623     382.4538   1419.08447     706.6623     382.4538
   1419.06921     705.9063     382.6536   1419.06921     705.9063     382.6536
   1419.05396     706.0037     382.0884   1419.05396     706.0037     382.0884
   1419.03870     705.8926     382.6836   1419.03870     705.8926     382.6836
   1419.02344     706.4821     382.0746   1419.02344     706.4821     382.0746
   1419.00818     707.7797     381.9651   1419.00818     707.7797     381.9651
   1418.99292     708.8925     382.7983   1418.99292     708.8925     382.7983
   1418.97766     707.9572     382.1472   1418.97766     707.9572     382.1472
   1418.96240     708.2600     382.5996   1418.96240     708.2600     382.5996
   1418.94714     709.0734     382.4868   1418.94714     709.0734     382.4868
   1418.93188     709.5732     382.2304   1418.93188     709.5732     382.2304
   1418.91663     710.6005     382.4696   1418.91663     710.6005     382.4696
   1418.90137     711.2303     383.0834   1418.90137     711.2303     383.0834
   1418.88611     711.2135     383.8357   1418.88611     711.2135     383.8357
   1418.87085     710.9020     383.0036   1418.87085     710.9020     383.0036
   1418.85559     711.8643     383.1587   1418.85559     711.8643     383.1587
   1418.84033     712.4407     383.6359   1418.84033     712.4407     383.6359
   1418.82507     714.4305     383.0817   1418.82507     714.4305     383.0817
   1418.80981     713.1917     383.9874   1418.80981     713.1917     383.9874
   1418.79456     713.9685     384.1451   1418.79456     713.9685     384.1451
   1418.77930     713.7534     383.6821   1418.77930     713.7534     383.6821
   1418.76404     714.5322     384.5466   1418.76404     714.5322     384.5466
   1418.74878     716.5831     384.3333   1418.74878     716.5831     384.3333
   1418.73352     716.1313     384.8831   1418.73352     716.1313     384.8831
   1418.71826     716.8171     384.7657   1418.71826     716.8171     384.7657
   1418.70300     716.5546     385.6052   1418.70300     716.5546     385.6052
   1418.68774     717.9703     386.1080   1418.68774     717.9703     386.1080
   1418.67249     717.8562     385.7256   1418.67249     717.8562     385.7256
   1418.65723     718.6745     385.8336   1418.65723     718.6745     385.8336
   1418.64197     719.3955     386.3610   1418.64197     719.3955     386.3610
   1418.62671     719.2173     387.1651   1418.62671     719.2173     387.1651
   1418.61145     720.1702     386.9316   1418.61145     720.1702     386.9316
   1418.59619     721.1302     386.9794   1418.59619     721.1302     386.9794
   1418.58093     720.9690     388.1237   1418.58093     720.9690     388.1237
   1418.56567     722.1039     388.3260   1418.56567     722.1039     388.3260
   1418.55042     722.0083     388.1141   1418.55042     722.0083     388.1141
   1418.53516     722.5016     388.6129   1418.53516     722.5016     388.6129
   1418.51990     723.1233     388.9684   1418.51990     723.1233     388.9684
   1418.50464     723.7610     389.6641   1418.50464     723.7610     389.6641
   1418.48938     723.9417     389.8062   1418.48938     723.9417     389.8062
   1418.47412     725.2212     390.7286   1418.47412     725.2212     390.7286
   1418.45886     725.3488     390.6494   1418.45886     725.3488     390.6494
   1418.44360     727.3669     391.5872   1418.44360     727.3669     391.5872
   1418.42834     727.4507     391.5586   1418.42834     727.4507     391.5586
   1418.41309     728.2634     392.3238   1418.41309     728.2634     392.3238
   1418.39783     729.2601     392.5702   1418.39783     729.2601     392.5702
   1418.38257     729.7372     392.9597   1418.38257     729.7372     392.9597
   1418.36731     730.8201     393.8750   1418.36731     730.8201     393.8750
   1418.35205     730.6281     394.4200   1418.35205     730.6281     394.4200
   1418.33679     731.3758     394.5999   1418.33679     731.3758     394.5999
   1418.32153     732.0001     394.9809   1418.32153     732.0001     394.9809
   1418.30627     733.0717     395.7643   1418.30627     733.0717     395.7643
   1418.29102     733.5025     396.4244   1418.29102     733.5025     396.4244
   1418.27576     734.6979     397.0531   1418.27576     734.6979     397.0531
   1418.26050     735.0393     397.6449   1418.26050     735.0393     397.6449
   1418.24524     734.8816     398.2264   1418.24524     734.8816     398.2264
   1418.22998     735.9990     399.4967   1418.22998     735.9990     399.4967
   1418.21472     737.4179     399.5306   1418.21472     737.4179     399.5306
   1418.19946     737.1739     399.6335   1418.19946     737.1739     399.6335
   1418.18420     737.2404     400.3506   1418.18420     737.2404     400.3506
   1418.16895     740.2910     401.0422   1418.16895     740.2910     401.0422
   1418.15369     740.1275     401.4804   1418.15369     740.1275     401.4804
   1418.13843     740.8304     402.6719   1418.13843     740.8304     402.6719
   1418.12317     740.9644     403.0831   1418.12317     740.9644     403.0831
   1418.10791     741.8351     403.7191   1418.10791     741.8351     403.7191
   1418.09265     743.0960     404.6585   1418.09265     743.0960     404.6585
   1418.07739     743.3278     405.4384   1418.07739     743.3278     405.4384
   1418.06213     745.7271     406.1391   1418.06213     745.7271     406.1391
   1418.04688     745.8004     407.3447   1418.04688     745.8004     407.3447
   1418.03162     746.4858     407.6922   1418.03162     746.4858     407.6922
   1418.01636     747.6030     407.7138   1418.01636     747.6030     407.7138
   1418.00110     747.6694     408.9347   1418.00110     747.6694     408.9347
   1417.98584     747.4207     409.6937   1417.98584     747.4207     409.6937
   1417.97058     748.4542     410.7263   1417.97058     748.4542     410.7263
   1417.95532     748.4905     411.6105   1417.95532     748.4905     411.6105
   1417.94006     751.0814     412.4188   1417.94006     751.0814     412.4188
   1417.92480     751.4800     413.0240   1417.92480     751.4800     413.0240
   1417.90955     752.8592     413.9283   1417.90955     752.8592     413.9283
   1417.89429     752.7077     414.6278   1417.89429     752.7077     414.6278
   1417.87903     753.7936     415.8811   1417.87903     753.7936     415.8811
   1417.86377     753.7366     415.9832   1417.86377     753.7366     415.9832
   1417.84851     754.7511     417.4244   1417.84851     754.7511     417.4244
   1417.83325     756.4198     417.6792   1417.83325     756.4198     417.6792
   1417.81799     757.0901     418.4990   1417.81799     757.0901     418.4990
   1417.80273     757.7827     419.8044   1417.80273     757.7827     419.8044
   1417.78748     758.3083     420.9799   1417.78748     758.3083     420.9799
   1417.77222     757.9208     421.5266   1417.77222     757.9208     421.5266
   1417.75696     759.8685     422.2006   1417.75696     759.8685     422.2006
   1417.74170     760.4034     423.0346   1417.74170     760.4034     423.0346
   1417.72644     762.2994     423.5685   1417.72644     762.2994     423.5685
   1417.71118     763.2375     424.9421   1417.71118     763.2375     424.9421
   1417.69592     762.3176     426.4897   1417.69592     762.3176     426.4897
   1417.68066     763.9741     426.7680   1417.68066     763.9741     426.7680
   1417.66541     765.1865     427.5592   1417.66541     765.1865     427.5592
   1417.65015     765.8680     428.6440   1417.65015     765.8680     428.6440
   1417.63489     766.7911     430.2039   1417.63489     766.7911     430.2039
   1417.61963     766.4977     430.6195   1417.61963     766.4977     430.6195
   1417.60437     768.9643     430.9343   1417.60437     768.9643     430.9343
   1417.58911     768.4036     432.7611   1417.58911     768.4036     432.7611
   1417.57385     770.3063     433.5396   1417.57385     770.3063     433.5396
   1417.55859     771.1583     434.9868   1417.55859     771.1583     434.9868
   1417.54333     770.7841     435.4104   1417.54333     770.7841     435.4104
   1417.52808     772.0925     437.0568   1417.52808     772.0925     437.0568
   1417.51282     772.5528     437.3799   1417.51282     772.5528     437.3799
   1417.49756     772.4147     438.8605   1417.49756     772.4147     438.8605
   1417.48230     774.0674     439.3558   1417.48230     774.0674     439.3558
   1417.46704     774.9744     441.0304   1417.46704     774.9744     441.0304
   1417.45178     775.7621     441.9795   1417.45178     775.7621     441.9795
   1417.43652     776.3384     443.2279   1417.43652     776.3384     443.2279
   1417.42126     776.8865     444.0359   1417.42126     776.8865     444.0359
   1417.40601     777.6124     445.0919   1417.40601     777.6124     445.0919
   1417.39075     778.8544     447.0084   1417.39075     778.8544     447.0084
   1417.37549     779.7560     446.9831   1417.37549     779.7560     446.9831
   1417.36023     779.4482     448.5547   1417.36023     779.4482     448.5547
   1417.34497     781.0917     449.4206   1417.34497     781.0917     449.4206
   1417.32971     781.9758     450.2776   1417.32971     781.9758     450.2776
   1417.31445     780.4733     450.7264   1417.31445     780.4733     450.7264
   1417.29919     782.5699     452.7095   1417.29919     782.5699     452.7095
   1417.28394     783.6957     453.4185   1417.28394     783.6957     453.4185
   1417.26868     783.6412     454.4544   1417.26868     783.6412     454.4544
   1417.25342     784.3004     455.1487   1417.25342     784.3004     455.1487
   1417.23816     785.3880     456.4629   1417.23816     785.3880     456.4629
   1417.22290     786.4649     457.1363   1417.22290     786.4649     457.1363
   1417.20764     786.3252     457.5044   1417.20764     786.3252     457.5044
   1417.19238     787.2117     459.4413   1417.19238     787.2117     459.4413
   1417.17712     786.9323     461.2275   1417.17712     786.9323     461.2275
   1417.16187     788.5005     461.8096   1417.16187     788.5005     461.8096
   1417.14661     788.5350     462.8312   1417.14661     788.5350     462.8312
   1417.13135     789.7855     464.1795   1417.13135     789.7855     464.1795
   1417.11609     790.2238     465.0303   1417.11609     790.2238     465.0303
   1417.10083     789.7838     465.9461   1417.10083     789.7838     465.9461
   1417.08557     791.7858     467.2178   1417.08557     791.7858     467.2178
   1417.07031     791.5856     468.1308   1417.07031     791.5856     468.1308
   1417.05505     793.0195     468.9787   1417.05505     793.0195     468.9787
   1417.03979     792.0367     470.6979   1417.03979     792.0367     470.6979
   1417.02454     792.1931     471.5121   1417.02454     792.1931     471.5121
   1417.00928     793.3766     472.1947   1417.00928     793.3766     472.1947
   1416.99402     793.8721     472.9600   1416.99402     793.8721     472.9600
   1416.97876     795.2996     474.9616   1416.97876     795.2996     474.9616
   1416.96350     794.3636     476.0906   1416.96350     794.3636     476.0906
   1416.94824     796.7769     476.0492   1416.94824     796.7769     476.0492
   1416.93298     795.2991     477.9990   1416.93298     795.2991     477.9990
   1416.91772     796.2957     478.6216   1416.91772     796.2957     478.6216
   1416.90247     796.1693     479.2445   1416.90247     796.1693     479.2445
   1416.88721     797.4823     479.6417   1416.88721     797.4823     479.6417
   1416.87195     797.6867     481.1909   1416.87195     797.6867     481.1909
   1416.85669     796.7333     482.0908   1416.85669     796.7333     482.0908
   1416.84143     798.9600     483.8846   1416.84143     798.9600     483.8846
   1416.82617     798.1500     484.9996   1416.82617     798.1500     484.9996
   1416.81091     799.2825     485.8961   1416.81091     799.2825     485.8961
   1416.79565     799.8187     486.2663   1416.79565     799.8187     486.2663
   1416.78040     799.8481     487.8264   1416.78040     799.8481     487.8264
   1416.76514     800.5667     487.8065   1416.76514     800.5667     487.8065
   1416.74988     801.2933     488.6397   1416.74988     801.2933     488.6397
   1416.73462     800.1334     489.6025   1416.73462     800.1334     489.6025
   1416.71936     800.5541     491.3946   1416.71936     800.5541     491.3946
   1416.70410     800.3370     491.4205   1416.70410     800.3370     491.4205
   1416.68884     801.6456     492.7074   1416.68884     801.6456     492.7074
   1416.67358     801.2981     493.7360   1416.67358     801.2981     493.7360
   1416.65833     801.8417     494.2321   1416.65833     801.8417     494.2321
   1416.64307     800.9544     495.0573   1416.64307     800.9544     495.0573
   1416.62781     801.5804     495.7331   1416.62781     801.5804     495.7331
   1416.61255     803.2805     497.0432   1416.61255     803.2805     497.0432
   1416.59729     803.1497     498.0543   1416.59729     803.1497     498.0543
   1416.58203     802.0244     497.3632   1416.58203     802.0244     497.3632
   1416.56677     800.7805     498.9895   1416.56677     800.7805     498.9895
   1416.55151     801.5168     499.5133   1416.55151     801.5168     499.5133
   1416.53625     801.6439     499.2488   1416.53625     801.6439     499.2488
   1416.52100     801.8942     501.1677   1416.52100     801.8942     501.1677
   1416.50574     803.1038     501.1978   1416.50574     803.1038     501.1978
   1416.49048     801.6813     502.7302   1416.49048     801.6813     502.7302
   1416.47522     802.1207     502.0688   1416.47522     802.1207     502.0688
   1416.45996     801.6242     502.5312   1416.45996     801.6242     502.5312
   1416.44470     799.9720     503.2610   1416.44470     799.9720     503.2610
   1416.42944     800.9109     504.5045   1416.42944     800.9109     504.5045
   1416.41418     801.8464     505.1878   1416.41418     801.8464     505.1878
   1416.39893     801.5196     505.4426   1416.39893     801.5196     505.4426
   1416.38367     800.5189     506.3215   1416.38367     800.5189     506.3215
   1416.36841     800.4471     506.2713   1416.36841     800.4471     506.2713
   1416.35315     801.2432     506.9878   1416.35315     801.2432     506.9878
   1416.33789     801.6757     507.8913   1416.33789     801.6757     507.8913
   1416.32263     800.9353     508.3409   1416.32263     800.9353     508.3409
   1416.30737     800.8150     508.5807   1416.30737     800.8150     508.5807
   1416.29211     801.0421     509.0381   1416.29211     801.0421     509.0381
   1416.27686     800.2736     509.8014   1416.27686     800.2736     509.8014
   1416.26160     800.4481     510.4704   1416.26160     800.4481     510.4704
   1416.24634     799.8686     510.3682   1416.24634     799.8686     510.3682
   1416.23108     800.0374     511.4059   1416.23108     800.0374     511.4059
   1416.21582     800.6948     511.2169   1416.21582     800.6948     511.2169
   1416.20056     798.4800     511.4241   1416.20056     798.4800     511.4241
   1416.18530     798.2394     511.0842   1416.18530     798.2394     511.0842
   1416.17004     798.1758     512.6135   1416.17004     798.1758     512.6135
   1416.15479     797.3984     512.3836   1416.15479     797.3984     512.3836
   1416.13953     797.6920     513.1860   1416.13953     797.6920     513.1860
   1416.12427     797.6946     512.5381   1416.12427     797.6946     512.5381
   1416.10901     797.5014     512.6210   1416.10901     797.5014     512.6210
   1416.09375     796.7831     513.0131   1416.09375     796.7831     513.0131
   1416.07849     796.2803     513.7682   1416.07849     796.2803     513.7682
   1416.06323     794.4423     513.4178   1416.06323     794.4423     513.4178
   1416.04797     794.1579     513.6633   1416.04797     794.1579     513.6633
   1416.03271     793.7900     514.2842   1416.03271     793.7900     514.2842
   1416.01746     792.8931     513.0549   1416.01746     792.8931     513.0549
   1416.00220     792.9093     514.1609   1416.00220     792.9093     514.1609
   1415.98694     792.1724     514.1850   1415.98694     792.1724     514.1850
   1415.97168     792.2165     513.8254   1415.97168     792.2165     513.8254
   1415.95642     789.9017     513.6082   1415.95642     789.9017     513.6082
   1415.94116     789.7570     513.9590   1415.94116     789.7570     513.9590
   1415.92590     789.5574     514.1826   1415.92590     789.5574     514.1826
   1415.91064     788.1799     513.0382   1415.91064     788.1799     513.0382
   1415.89539     788.9742     514.9460   1415.89539     788.9742     514.9460
   1415.88013     788.7770     514.7628   1415.88013     788.7770     514.7628
   1415.86487     786.1931     515.2018   1415.86487     786.1931     515.2018
   1415.84961     786.4056     514.6369   1415.84961     786.4056     514.6369
   1415.83435     786.3953     514.9440   1415.83435     786.3953     514.9440
   1415.81909     784.7963     514.3012   1415.81909     784.7963     514.3012
   1415.80383     784.1998     514.0418   1415.80383     784.1998     514.0418
   1415.78857     784.0008     514.6768   1415.78857     784.0008     514.6768
   1415.77332     783.9603     513.9225   1415.77332     783.9603     513.9225
   1415.75806     782.1966     514.3239   1415.75806     782.1966     514.3239
   1415.74280     781.5955     513.9733   1415.74280     781.5955     513.9733
   1415.72754     780.5671     513.5457   1415.72754     780.5671     513.5457
   1415.71228     780.1765     513.4671   1415.71228     780.1765     513.4671
   1415.69702     778.7183     513.3929   1415.69702     778.7183     513.3929
   1415.68176     778.9099     513.3155   1415.68176     778.9099     513.3155
   1415.66650     777.9988     513.9160   1415.66650     777.9988     513.9160
   1415.65125     778.6789     513.1378   1415.65125     778.6789     513.1378
   1415.63599     776.1690     513.1393   1415.63599     776.1690     513.1393
   1415.62073     775.4329     512.9413   1415.62073     775.4329     512.9413
   1415.60547     774.4920     513.0122   1415.60547     774.4920     513.0122
   1415.59021     773.5386     512.4902   1415.59021     773.5386     512.4902
   1415.57495     772.2461     512.9570   1415.57495     772.2461     512.9570
   1415.55969     771.2823     512.1934   1415.55969     771.2823     512.1934
   1415.54443     771.7513     511.2212   1415.54443     771.7513     511.2212
   1415.52917     769.7478     511.4507   1415.52917     769.7478     511.4507
   1415.51392     769.1821     511.8829   1415.51392     769.1821     511.8829
   1415.49866     767.4486     511.5267   1415.49866     767.4486     511.5267
   1415.48340     766.0936     510.7480   1415.48340     766.0936     510.7480
   1415.46814     766.5753     511.6855   1415.46814     766.5753     511.6855
   1415.45288     766.5414     510.8353   1415.45288     766.5414     510.8353
   1415.43762     763.9675     510.6852   1415.43762     763.9675     510.6852
   1415.42236     764.2564     509.6266   1415.42236     764.2564     509.6266
   1415.40710     762.4280     509.3453   1415.40710     762.4280     509.3453
   1415.39185     760.9916     508.4195   1415.39185     760.9916     508.4195
   1415.37659     759.9326     509.1914   1415.37659     759.9326     509.1914
   1415.36133     757.9502     508.7197   1415.36133     757.9502     508.7197
   1415.34607     758.5956     509.0900   1415.34607     758.5956     509.0900
   1415.33081     756.7056     508.2727   1415.33081     756.7056     508.2727
   1415.31555     755.1470     507.9043   1415.31555     755.1470     507.9043
   1415.30029     754.9872     508.0134   1415.30029     754.9872     508.0134
   1415.28503     753.8721     507.0198   1415.28503     753.8721     507.0198
   1415.26978     753.1702     507.6331   1415.26978     753.1702     507.6331
   1415.25452     749.9645     506.7485   1415.25452     749.9645     506.7485
   1415.23926     750.3542     506.2488   1415.23926     750.3542     506.2488
   1415.22400     747.8843     505.2738   1415.22400     747.8843     505.2738
   1415.20874     747.3967     505.4749   1415.20874     747.3967     505.4749
   1415.19348     745.9592     504.8125   1415.19348     745.9592     504.8125
   1415.17822     746.4091     504.2664   1415.17822     746.4091     504.2664
   1415.16296     744.6617     504.0112   1415.16296     744.6617     504.0112
   1415.14771     742.8616     502.8763   1415.14771     742.8616     502.8763
   1415.13245     740.7664     502.6802   1415.13245     740.7664     502.6802
   1415.11719     738.4532     502.5466   1415.11719     738.4532     502.5466
   1415.10193     738.1832     501.2132   1415.10193     738.1832     501.2132
   1415.08667     736.6462     501.6849   1415.08667     736.6462     501.6849
   1415.07141     735.0868     500.8886   1415.07141     735.0868     500.8886
   1415.05615     734.6964     499.9411   1415.05615     734.6964     499.9411
   1415.04089     732.4506     499.6516   1415.04089     732.4506     499.6516
   1415.02563     731.3015     498.6987   1415.02563     731.3015     498.6987
   1415.01038     730.1225     499.0371   1415.01038     730.1225     499.0371
   1414.99512     727.9053     497.5497   1414.99512     727.9053     497.5497
   1414.97986     726.6309     497.9904   1414.97986     726.6309     497.9904
   1414.96460     725.8228     497.1552   1414.96460     725.8228     497.1552
   1414.94934     724.2432     495.8738   1414.94934     724.2432     495.8738
   1414.93408     722.5731     496.5024   1414.93408     722.5731     496.5024
   1414.91882     720.8738     494.1280   1414.91882     720.8738     494.1280
   1414.90356     718.3182     494.1191   1414.90356     718.3182     494.1191
   1414.88831     716.3121     493.4922   1414.88831     716.3121     493.4922
   1414.87305     715.2360     492.5678   1414.87305     715.2360     492.5678
   1414.85779     714.1853     491.5064   1414.85779     714.1853     491.5064
   1414.84253     713.2748     491.4497   1414.84253     713.2748     491.4497
   1414.82727     711.1055     490.1735   1414.82727     711.1055     490.1735
   1414.81201     708.3766     489.1607   1414.81201     708.3766     489.1607
   1414.79675     707.4891     488.1000   1414.79675     707.4891     488.1000
   1414.78149     705.4110     488.1652   1414.78149     705.4110     488.1652
   1414.76624     704.7253     487.6509   1414.76624     704.7253     487.6509
   1414.75098     702.5928     486.7974   1414.75098     702.5928     486.7974
   1414.73572     700.2390     485.5625   1414.73572     700.2390     485.5625
   1414.72046     698.3640     485.3895   1414.72046     698.3640     485.3895
   1414.70520     695.9310     483.9210   1414.70520     695.9310     483.9210
   1414.68994     695.0494     482.9329   1414.68994     695.0494     482.9329
   1414.67468     693.6941     481.5715   1414.67468     693.6941     481.5715
   1414.65942     689.9348     481.9993   1414.65942     689.9348     481.9993
   1414.64417     688.4571     480.3089   1414.64417     688.4571     480.3089
   1414.62891     687.3414     479.3708   1414.62891     687.3414     479.3708
   1414.61365     684.9532     477.9298   1414.61365     684.9532     477.9298
   1414.59839     684.5902     476.8220   1414.59839     684.5902     476.8220
   1414.58313     680.6985     476.8951   1414.58313     680.6985     476.8951
   1414.56787     679.7985     475.2485   1414.56787     679.7985     475.2485
   1414.55261     676.2988     474.5377   1414.55261     676.2988     474.5377
   1414.53735     675.5964     472.6931   1414.53735     675.5964     472.6931
   1414.52209     671.9891     472.2961   1414.52209     671.9891     472.2961
   1414.50684     670.3459     471.8680   1414.50684     670.3459     471.8680
   1414.49158     669.3016     469.5918   1414.49158     669.3016     469.5918
   1414.47632     666.4724     468.2142   1414.47632     666.4724     468.2142
   1414.46106     663.9456     467.1854   1414.46106     663.9456     467.1854
   1414.44580     661.6557     466.3069   1414.44580     661.6557     466.3069
   1414.43054     659.4901     465.1960   1414.43054     659.4901     465.1960
   1414.41528     657.4860     464.3539   1414.41528     657.4860     464.3539
   1414.40002     655.4310     463.5512   1414.40002     655.4310     463.5512
   1414.38477     653.2394     461.3958   1414.38477     653.2394     461.3958
   1414.36951     650.7927     460.1275   1414.36951     650.7927     460.1275
   1414.35425     648.6624     459.1393   1414.35425     648.6624     459.1393
   1414.33899     646.4033     457.5380   1414.33899     646.4033     457.5380
   1414.32373     644.5279     456.3790   1414.32373     644.5279     456.3790
   1414.30847     642.1312     454.6863   1414.30847     642.1312     454.6863
   1414.29321     639.1379     454.0125   1414.29321     639.1379     454.0125
   1414.27795     635.7432     452.2616   1414.27795     635.7432     452.2616
   1414.26270     634.4913     451.8199   1414.26270     634.4913     451.8199
   1414.24744     631.3543     450.0613   1414.24744     631.3543     450.0613
   1414.23218     629.9832     449.2932   1414.23218     629.9832     449.2932
   1414.21692     626.3647     448.3641   1414.21692     626.3647     448.3641
   1414.20166     624.5858     446.6688   1414.20166     624.5858     446.6688
   1414.18640     621.3363     444.7876   1414.18640     621.3363     444.7876
   1414.17114     619.7090     443.0857   1414.17114     619.7090     443.0857
   1414.15588     617.8522     442.1053   1414.15588     617.8522     442.1053
   1414.14062     613.9271     441.0635   1414.14062     613.9271     441.0635
   1414.12537     612.2119     439.0083   1414.12537     612.2119     439.0083
   1414.11011     609.3021     437.4847   1414.11011     609.3021     437.4847
   1414.09485     606.7888     435.9899   1414.09485     606.7888     435.9899
   1414.07959     603.9877     434.3538   1414.07959     603.9877     434.3538
   1414.06433     601.4280     432.3056   1414.06433     601.4280     432.3056
   1414.04907     599.0883     431.3310   1414.04907     599.0883     431.3310
   1414.03381     596.1907     430.2673   1414.03381     596.1907     430.2673
   1414.01855     594.2346     428.6833   1414.01855     594.2346     428.6833
   1414.00330     622.3965     435.6029   1414.00330     622.3965     435.6029
   1413.98804     590.5776     426.1926   1413.98804     590.5776     426.1926
   1413.97278     585.8842     423.6471   1413.97278     585.8842     423.6471
   1413.95752     582.5631     423.0360   1413.95752     582.5631     423.0360
   1413.94226     579.6705     420.8076   1413.94226     579.6705     420.8076
   1413.92700     576.4937     419.1259   1413.92700     576.4937     419.1259
   1413.91174     574.8108     416.9268   1413.91174     574.8108     416.9268
   1413.89648     571.9298     415.7440   1413.89648     571.9298     415.7440
   1413.88123     568.0876     414.4143   1413.88123     568.0876     414.4143
   1413.86597     565.6758     413.0703   1413.86597     565.6758     413.0703
   1413.85071     563.4481     411.0039   1413.85071     563.4481     411.0039
   1413.83545     561.0991     408.7377   1413.83545     561.0991     408.7377
   1413.82019     558.0204     408.6249   1413.82019     558.0204     408.6249
   1413.80493     555.1606     405.6577   1413.80493     555.1606     405.6577
   1413.78967     552.1567     404.5535   1413.78967     552.1567     404.5535
   1413.77441     548.7302     402.7978   1413.77441     548.7302     402.7978
   1413.75916     547.4042     400.9054   1413.75916     547.4042     400.9054
   1413.74390     543.8512     399.8667   1413.74390     543.8512     399.8667
   1413.72864     540.9352     397.9113   1413.72864     540.9352     397.9113
   1413.71338     538.3632     396.6290   1413.71338     538.3632     396.6290
   1413.69812     535.5623     394.5682   1413.69812     535.5623     394.5682
   1413.68286     532.5986     393.7411   1413.68286     532.5986     393.7411
   1413.66760     529.3141     391.4362   1413.66760     529.3141     391.4362
   1413.65234     528.0358     389.9673   1413.65234     528.0358     389.9673
   1413.63708     524.1460     387.9277   1413.63708     524.1460     387.9277
   1413.62183     521.3719     386.4490   1413.62183     521.3719     386.4490
   1413.60657     519.2291     384.4782   1413.60657     519.2291     384.4782
   1413.59131     515.9612     382.8177   1413.59131     515.9612     382.8177
   1413.57605     513.4055     381.2560   1413.57605     513.4055     381.2560
   1413.56079     510.5571     379.8507   1413.56079     510.5571     379.8507
   1413.54553     508.3959     378.1492   1413.54553     508.3959     378.1492
   1413.53027     504.5639     376.7584   1413.53027     504.5639     376.7584
   1413.51501     502.3814     375.1570   1413.51501     502.3814     375.1570
   1413.49976     499.1995     373.0934   1413.49976     499.1995     373.0934
   1413.48450     495.5970     371.7500   1413.48450     495.5970     371.7500
   1413.46924     493.5612     369.8267   1413.46924     493.5612     369.8267
   1413.45398     491.8728     368.2194   1413.45398     491.8728     368.2194
   1413.43872     488.4572     366.7695   1413.43872     488.4572     366.7695
   1413.42346     485.5254     364.7565   1413.42346     485.5254     364.7565
   1413.40820     482.9903     363.2684   1413.40820     482.9903     363.2684
   1413.39294     479.4880     362.0066   1413.39294     479.4880     362.0066
   1413.37769     478.2444     360.7148   1413.37769     478.2444     360.7148
   1413.36243     475.2956     358.9382   1413.36243     475.2956     358.9382
   1413.34717     472.3930     357.3336   1413.34717     472.3930     357.3336
   1413.33191     470.1504     356.2817   1413.33191     470.1504     356.2817
   1413.31665     466.6331     354.6771   1413.31665     466.6331     354.6771
   1413.30139     464.5975     353.1768   1413.30139     464.5975     353.1768
   1413.28613     462.2272     351.9486   1413.28613     462.2272     351.9486
   1413.27087     459.9633     350.2779   1413.27087     459.9633     350.2779
   1413.25562     457.0559     348.8789   1413.25562     457.0559     348.8789
   1413.24036     453.9588     347.6161   1413.24036     453.9588     347.6161
   1413.22510     452.1733     346.0032   1413.22510     452.1733     346.0032
   1413.20984     449.3462     344.3577   1413.20984     449.3462     344.3577
   1413.19458     446.6795     342.9014   1413.19458     446.6795     342.9014
   1413.17932     444.9055     341.8832   1413.17932     444.9055     341.8832
   1413.16406     442.8503     340.5545   1413.16406     442.8503     340.5545
   1413.14880     440.4702     340.0269   1413.14880     440.4702     340.0269
   1413.13354     438.4252     338.3447   1413.13354     438.4252     338.3447
   1413.11829     436.1689     337.5668   1413.11829     436.1689     337.5668
   1413.10303     432.6306     336.2453   1413.10303     432.6306     336.2453
   1413.08777     431.2186     334.8076   1413.08777     431.2186     334.8076
   1413.07251     429.1405     333.5496   1413.07251     429.1405     333.5496
   1413.05725     426.4200     332.1504   1413.05725     426.4200     332.1504
   1413.04199     424.4521     331.0735   1413.04199     424.4521     331.0735
   1413.02673     422.3809     330.0242   1413.02673     422.3809     330.0242
   1413.01147     420.6822     329.0009   1413.01147     420.6822     329.0009
   1412.99622     418.0006     328.4786   1412.99622     418.0006     328.4786
   1412.98096     415.9103     327.3611   1412.98096     415.9103     327.3611
   1412.96570     414.5846     326.3365   1412.96570     414.5846     326.3365
   1412.95044     412.1663     325.3931   1412.95044     412.1663     325.3931
   1412.93518     410.3429     324.7934   1412.93518     410.3429     324.7934
   1412.91992     408.7244     323.9552   1412.91992     408.7244     323.9552
   1412.90466     406.9784     322.9453   1412.90466     406.9784     322.9453
   1412.88940     405.5609     322.4167   1412.88940     405.5609     322.4167
   1412.87415     404.3736     322.0986   1412.87415     404.3736     322.0986
   1412.85889     401.5458     321.1583   1412.85889     401.5458     321.1583
   1412.84363     400.1024     320.6054   1412.84363     400.1024     320.6054
   1412.82837     398.0538     320.3189   1412.82837     398.0538     320.3189
   1412.81311     397.1920     319.4832   1412.81311     397.1920     319.4832
   1412.79785     395.8723     318.8683   1412.79785     395.8723     318.8683
   1412.78259     393.7174     318.2358   1412.78259     393.7174     318.2358
   1412.76733     392.1633     317.8499   1412.76733     392.1633     317.8499
   1412.75208     390.7599     317.7895   1412.75208     390.7599     317.7895
   1412.73682     389.9921     317.5109   1412.73682     389.9921     317.5109
   1412.72156     388.8977     317.5610   1412.72156     388.8977     317.5610
   1412.70630     386.8368     316.8483   1412.70630     386.8368     316.8483
   1412.69104     385.8680     317.0298   1412.69104     385.8680     317.0298
   1412.67578     385.1473     316.7012   1412.67578     385.1473     316.7012
   1412.66052     383.5752     316.8928   1412.66052     383.5752     316.8928
   1412.64526     382.5809     316.2677   1412.64526     382.5809     316.2677
   1412.63000     382.3086     316.5325   1412.63000     382.3086     316.5325
   1412.61475     380.7868     317.0808   1412.61475     380.7868     317.0808
   1412.59949     380.4496     316.8611   1412.59949     380.4496     316.8611
   1412.58423     379.4498     316.8593   1412.58423     379.4498     316.8593
   1412.56897     378.2753     317.5135   1412.56897     378.2753     317.5135
   1412.55371     377.6404     317.7734   1412.55371     377.6404     317.7734
   1412.53845     377.2944     317.8838   1412.53845     377.2944     317.8838
   1412.52319     376.9149     317.7745   1412.52319     376.9149     317.7745
   1412.50793     375.7921     319.3587   1412.50793     375.7921     319.3587
   1412.49268     375.0778     319.6081   1412.49268     375.0778     319.6081
   1412.47742     375.0035     319.3270   1412.47742     375.0035     319.3270
   1412.46216     374.3255     320.4469   1412.46216     374.3255     320.4469
   1412.44690     374.0654     320.8051   1412.44690     374.0654     320.8051
   1412.43164     374.2091     321.9640   1412.43164     374.2091     321.9640
   1412.41638     373.9200     322.5380   1412.41638     373.9200     322.5380
   1412.40112     373.5168     322.7693   1412.40112     373.5168     322.7693
   1412.38586     373.0389     323.9737   1412.38586     373.0389     323.9737
   1412.37061     373.8077     324.9994   1412.37061     373.8077     324.9994
   1412.35535     373.4878     326.4773   1412.35535     373.4878     326.4773
   1412.34009     373.2860     326.9859   1412.34009     373.2860     326.9859
   1412.32483     373.2175     328.1175   1412.32483     373.2175     328.1175
   1412.30957     373.7596     329.5541   1412.30957     373.7596     329.5541
   1412.29431     373.3816     330.1814   1412.29431     373.3816     330.1814
   1412.27905     373.4706     331.7879   1412.27905     373.4706     331.7879
   1412.26379     373.8953     333.0018   1412.26379     373.8953     333.0018
   1412.24854     375.1255     334.0555   1412.24854     375.1255     334.0555
   1412.23328     375.1197     335.3046   1412.23328     375.1197     335.3046
   1412.21802     375.2710     337.1056   1412.21802     375.2710     337.1056
   1412.20276     375.5608     338.7137   1412.20276     375.5608     338.7137