#     FILENAME=!Skynet_57528_lach-cc-75_20509_20921.cyb.fits
#     BASENAME=Skynet_57528_lach-cc-75_20509_20921
#     SRC_NAME=lach-cc-75
#     OBSERVER=ccmadison16_9505
#     DATE_OBS=2016-05-20T15:51:41.750
#        OBSID=20509
#      SCANNUM=20921
#          MJD=57528.6619
#          UTC=57190
#     SCANTYPE=track
#     DATAMODE=HIRES
#     TUNEFREQ=1420.0000
# Actual_FREQ1=1420.0000
# Actual_FREQ2=1420.0000
#    LO1Tuning=6870.000
#     RFFILTER=1355_1435
#        OBSBW=-15.6250
#        NCHAN=1024 
#        FOCUS=37.0489
#           RA=20:20:53.70
#          DEC=36:36:21.55
#      RA(hrs)=20.348300
#     DEC(deg)=36.606000
#    AZIM(deg)=300.392
#    ELEV(deg)=20.691
#     IFattens=11.00, 10.00
#      WARNING=None
#    TCAL_XL1=7.9635
#    TCAL_YR1=9.1340
#    TCAL_XL2=7.9635
#    TCAL_YR2=9.1340
#     TRX_XL1=11.7060
#     TRX_YR1=11.7060
#     TRX_XL2=11.7060
#     TRX_YR2=11.7060
#        TAVE=1.0000
#Freq1(MHz)          XL1          YR1  Freq2(MHz)          XL2          YR2 

   1427.81250     335.2259     279.7243   1427.81250     335.2259     279.7243
   1427.79724     335.6388     280.7449   1427.79724     335.6388     280.7449
   1427.78198     336.0201     281.2513   1427.78198     336.0201     281.2513
   1427.76672     336.7365     282.0630   1427.76672     336.7365     282.0630
   1427.75146     337.6083     282.9681   1427.75146     337.6083     282.9681
   1427.73621     338.2267     283.3810   1427.73621     338.2267     283.3810
   1427.72095     339.0353     284.4753   1427.72095     339.0353     284.4753
   1427.70569     339.6697     285.1754   1427.70569     339.6697     285.1754
   1427.69043     340.9966     286.1558   1427.69043     340.9966     286.1558
   1427.67517     341.3243     287.2325   1427.67517     341.3243     287.2325
   1427.65991     342.8812     288.3986   1427.65991     342.8812     288.3986
   1427.64465     343.3159     289.4331   1427.64465     343.3159     289.4331
   1427.62939     344.6824     290.4894   1427.62939     344.6824     290.4894
   1427.61414     345.6289     291.7728   1427.61414     345.6289     291.7728
   1427.59888     347.1475     292.8787   1427.59888     347.1475     292.8787
   1427.58362     348.2422     293.6816   1427.58362     348.2422     293.6816
   1427.56836     349.3595     295.1823   1427.56836     349.3595     295.1823
   1427.55310     350.5492     296.7398   1427.55310     350.5492     296.7398
   1427.53784     352.3381     298.0243   1427.53784     352.3381     298.0243
   1427.52258     353.3655     299.1608   1427.52258     353.3655     299.1608
   1427.50732     355.0242     300.8494   1427.50732     355.0242     300.8494
   1427.49207     356.5431     301.9249   1427.49207     356.5431     301.9249
   1427.47681     357.8291     303.2634   1427.47681     357.8291     303.2634
   1427.46155     359.8146     305.1229   1427.46155     359.8146     305.1229
   1427.44629     361.2251     306.5435   1427.44629     361.2251     306.5435
   1427.43103     363.1007     308.0358   1427.43103     363.1007     308.0358
   1427.41577     364.7244     309.4893   1427.41577     364.7244     309.4893
   1427.40051     366.6211     311.8178   1427.40051     366.6211     311.8178
   1427.38525     368.2025     313.9143   1427.38525     368.2025     313.9143
   1427.37000     369.7370     314.9730   1427.37000     369.7370     314.9730
   1427.35474     371.6003     316.8064   1427.35474     371.6003     316.8064
   1427.33948     373.1337     318.7004   1427.33948     373.1337     318.7004
   1427.32422     375.3225     320.4782   1427.32422     375.3225     320.4782
   1427.30896     377.0327     321.7823   1427.30896     377.0327     321.7823
   1427.29370     379.6208     324.2731   1427.29370     379.6208     324.2731
   1427.27844     381.5492     325.8569   1427.27844     381.5492     325.8569
   1427.26318     383.9697     327.7991   1427.26318     383.9697     327.7991
   1427.24792     385.4397     330.3122   1427.24792     385.4397     330.3122
   1427.23267     387.3001     331.7257   1427.23267     387.3001     331.7257
   1427.21741     390.0147     334.1007   1427.21741     390.0147     334.1007
   1427.20215     392.0013     336.0319   1427.20215     392.0013     336.0319
   1427.18689     394.6561     337.9274   1427.18689     394.6561     337.9274
   1427.17163     396.1763     339.9522   1427.17163     396.1763     339.9522
   1427.15637     399.1496     342.4774   1427.15637     399.1496     342.4774
   1427.14111     400.6854     344.8676   1427.14111     400.6854     344.8676
   1427.12585     403.8274     346.8362   1427.12585     403.8274     346.8362
   1427.11060     405.7096     348.4359   1427.11060     405.7096     348.4359
   1427.09534     408.3895     350.3618   1427.09534     408.3895     350.3618
   1427.08008     410.9344     353.0463   1427.08008     410.9344     353.0463
   1427.06482     412.5671     355.0792   1427.06482     412.5671     355.0792
   1427.04956     415.4006     358.0245   1427.04956     415.4006     358.0245
   1427.03430     418.0477     359.5951   1427.03430     418.0477     359.5951
   1427.01904     420.1493     362.0765   1427.01904     420.1493     362.0765
   1427.00378     423.0867     363.7825   1427.00378     423.0867     363.7825
   1426.98853     425.6069     366.4996   1426.98853     425.6069     366.4996
   1426.97327     428.0166     368.8072   1426.97327     428.0166     368.8072
   1426.95801     430.9247     371.3214   1426.95801     430.9247     371.3214
   1426.94275     433.4880     373.8753   1426.94275     433.4880     373.8753
   1426.92749     435.6470     375.4934   1426.92749     435.6470     375.4934
   1426.91223     438.6711     378.1504   1426.91223     438.6711     378.1504
   1426.89697     440.9608     380.2324   1426.89697     440.9608     380.2324
   1426.88171     443.4040     383.1387   1426.88171     443.4040     383.1387
   1426.86646     445.8683     384.6705   1426.86646     445.8683     384.6705
   1426.85120     448.3069     387.0829   1426.85120     448.3069     387.0829
   1426.83594     451.2431     389.9446   1426.83594     451.2431     389.9446
   1426.82068     454.4998     391.8755   1426.82068     454.4998     391.8755
   1426.80542     456.9059     394.7206   1426.80542     456.9059     394.7206
   1426.79016     459.4043     397.7333   1426.79016     459.4043     397.7333
   1426.77490     462.6990     399.6034   1426.77490     462.6990     399.6034
   1426.75964     465.8332     401.8495   1426.75964     465.8332     401.8495
   1426.74438     467.5945     404.3991   1426.74438     467.5945     404.3991
   1426.72913     471.2009     406.4796   1426.72913     471.2009     406.4796
   1426.71387     472.6636     408.3289   1426.71387     472.6636     408.3289
   1426.69861     476.0755     410.8286   1426.69861     476.0755     410.8286
   1426.68335     479.1577     413.5416   1426.68335     479.1577     413.5416
   1426.66809     481.4812     415.6060   1426.66809     481.4812     415.6060
   1426.65283     483.3472     417.4209   1426.65283     483.3472     417.4209
   1426.63757     488.0101     420.9739   1426.63757     488.0101     420.9739
   1426.62231     492.2313     423.2465   1426.62231     492.2313     423.2465
   1426.60706     493.2972     425.2210   1426.60706     493.2972     425.2210
   1426.59180     496.0249     427.1216   1426.59180     496.0249     427.1216
   1426.57654     497.3938     429.3145   1426.57654     497.3938     429.3145
   1426.56128     500.5295     431.4010   1426.56128     500.5295     431.4010
   1426.54602     503.2552     434.1276   1426.54602     503.2552     434.1276
   1426.53076     506.1261     435.6965   1426.53076     506.1261     435.6965
   1426.51550     508.2282     438.2578   1426.51550     508.2282     438.2578
   1426.50024     511.4391     439.9957   1426.50024     511.4391     439.9957
   1426.48499     513.9750     442.9666   1426.48499     513.9750     442.9666
   1426.46973     516.6153     444.3913   1426.46973     516.6153     444.3913
   1426.45447     519.6165     447.2742   1426.45447     519.6165     447.2742
   1426.43921     521.0380     450.2395   1426.43921     521.0380     450.2395
   1426.42395     524.3127     451.7154   1426.42395     524.3127     451.7154
   1426.40869     527.2885     453.6579   1426.40869     527.2885     453.6579
   1426.39343     530.2886     454.9331   1426.39343     530.2886     454.9331
   1426.37817     532.8027     457.7196   1426.37817     532.8027     457.7196
   1426.36292     534.3680     459.5473   1426.36292     534.3680     459.5473
   1426.34766     537.5224     462.0906   1426.34766     537.5224     462.0906
   1426.33240     539.1414     463.3130   1426.33240     539.1414     463.3130
   1426.31714     543.2527     465.5343   1426.31714     543.2527     465.5343
   1426.30188     545.4076     467.8025   1426.30188     545.4076     467.8025
   1426.28662     548.0082     469.7681   1426.28662     548.0082     469.7681
   1426.27136     550.4327     471.0400   1426.27136     550.4327     471.0400
   1426.25610     551.9561     473.4641   1426.25610     551.9561     473.4641
   1426.24084     555.4792     475.7958   1426.24084     555.4792     475.7958
   1426.22559     557.8079     477.4295   1426.22559     557.8079     477.4295
   1426.21033     560.1585     478.8080   1426.21033     560.1585     478.8080
   1426.19507     561.9172     480.9194   1426.19507     561.9172     480.9194
   1426.17981     565.4709     482.5393   1426.17981     565.4709     482.5393
   1426.16455     568.3751     484.1552   1426.16455     568.3751     484.1552
   1426.14929     569.7314     486.1586   1426.14929     569.7314     486.1586
   1426.13403     571.6002     488.4361   1426.13403     571.6002     488.4361
   1426.11877     573.4048     489.7744   1426.11877     573.4048     489.7744
   1426.10352     575.8750     491.6724   1426.10352     575.8750     491.6724
   1426.08826     579.1808     493.1731   1426.08826     579.1808     493.1731
   1426.07300     581.1213     494.8755   1426.07300     581.1213     494.8755
   1426.05774     582.6837     496.6598   1426.05774     582.6837     496.6598
   1426.04248     586.0863     498.2863   1426.04248     586.0863     498.2863
   1426.02722     586.8880     500.3599   1426.02722     586.8880     500.3599
   1426.01196     588.8387     501.6555   1426.01196     588.8387     501.6555
   1425.99670     591.5493     502.2357   1425.99670     591.5493     502.2357
   1425.98145     593.8936     505.0838   1425.98145     593.8936     505.0838
   1425.96619     595.7872     506.0971   1425.96619     595.7872     506.0971
   1425.95093     596.9689     508.0259   1425.95093     596.9689     508.0259
   1425.93567     600.2104     508.8016   1425.93567     600.2104     508.8016
   1425.92041     601.6562     510.5555   1425.92041     601.6562     510.5555
   1425.90515     603.4052     511.4388   1425.90515     603.4052     511.4388
   1425.88989     604.5995     513.1585   1425.88989     604.5995     513.1585
   1425.87463     607.4189     514.3894   1425.87463     607.4189     514.3894
   1425.85938     609.3177     516.2294   1425.85938     609.3177     516.2294
   1425.84412     611.9646     517.6221   1425.84412     611.9646     517.6221
   1425.82886     612.7988     518.0439   1425.82886     612.7988     518.0439
   1425.81360     615.1334     520.2783   1425.81360     615.1334     520.2783
   1425.79834     616.6021     520.8296   1425.79834     616.6021     520.8296
   1425.78308     618.2949     523.2307   1425.78308     618.2949     523.2307
   1425.76782     619.8957     524.2014   1425.76782     619.8957     524.2014
   1425.75256     622.0599     524.7515   1425.75256     622.0599     524.7515
   1425.73730     624.2335     526.5803   1425.73730     624.2335     526.5803
   1425.72205     624.6433     528.3312   1425.72205     624.6433     528.3312
   1425.70679     625.8802     528.6835   1425.70679     625.8802     528.6835
   1425.69153     628.3056     530.1393   1425.69153     628.3056     530.1393
   1425.67627     630.1420     530.7965   1425.67627     630.1420     530.7965
   1425.66101     630.8662     531.7953   1425.66101     630.8662     531.7953
   1425.64575     632.5927     532.9183   1425.64575     632.5927     532.9183
   1425.63049     633.6116     534.0232   1425.63049     633.6116     534.0232
   1425.61523     635.4637     535.9980   1425.61523     635.4637     535.9980
   1425.59998     635.8561     536.9660   1425.59998     635.8561     536.9660
   1425.58472     638.2611     537.2087   1425.58472     638.2611     537.2087
   1425.56946     638.9143     539.0560   1425.56946     638.9143     539.0560
   1425.55420     639.6051     540.1459   1425.55420     639.6051     540.1459
   1425.53894     641.9027     540.8554   1425.53894     641.9027     540.8554
   1425.52368     643.6192     542.2015   1425.52368     643.6192     542.2015
   1425.50842     645.1920     542.7195   1425.50842     645.1920     542.7195
   1425.49316     644.9543     543.8275   1425.49316     644.9543     543.8275
   1425.47791     647.4283     544.5137   1425.47791     647.4283     544.5137
   1425.46265     647.1692     545.7917   1425.46265     647.1692     545.7917
   1425.44739     649.2863     546.8632   1425.44739     649.2863     546.8632
   1425.43213     649.1709     548.4884   1425.43213     649.1709     548.4884
   1425.41687     652.3340     549.5067   1425.41687     652.3340     549.5067
   1425.40161     652.6231     550.1647   1425.40161     652.6231     550.1647
   1425.38635     652.8997     550.3474   1425.38635     652.8997     550.3474
   1425.37109     653.8285     551.0857   1425.37109     653.8285     551.0857
   1425.35583     654.9636     552.5995   1425.35583     654.9636     552.5995
   1425.34058     655.8066     552.4958   1425.34058     655.8066     552.4958
   1425.32532     657.3065     554.5363   1425.32532     657.3065     554.5363
   1425.31006     658.4787     554.6761   1425.31006     658.4787     554.6761
   1425.29480     659.2059     556.5867   1425.29480     659.2059     556.5867
   1425.27954     660.4401     557.0929   1425.27954     660.4401     557.0929
   1425.26428     660.4691     557.6074   1425.26428     660.4691     557.6074
   1425.24902     661.2143     557.6624   1425.24902     661.2143     557.6624
   1425.23376     662.4600     558.8820   1425.23376     662.4600     558.8820
   1425.21851     662.9646     559.2262   1425.21851     662.9646     559.2262
   1425.20325     663.7991     560.5868   1425.20325     663.7991     560.5868
   1425.18799     663.4235     561.0950   1425.18799     663.4235     561.0950
   1425.17273     665.3001     561.4583   1425.17273     665.3001     561.4583
   1425.15747     666.0707     563.5054   1425.15747     666.0707     563.5054
   1425.14221     667.6605     564.0673   1425.14221     667.6605     564.0673
   1425.12695     666.6769     564.5555   1425.12695     666.6769     564.5555
   1425.11169     667.7366     565.1411   1425.11169     667.7366     565.1411
   1425.09644     668.6103     566.2210   1425.09644     668.6103     566.2210
   1425.08118     668.4672     566.0902   1425.08118     668.4672     566.0902
   1425.06592     669.3838     566.5156   1425.06592     669.3838     566.5156
   1425.05066     669.0890     568.7122   1425.05066     669.0890     568.7122
   1425.03540     671.0557     568.8903   1425.03540     671.0557     568.8903
   1425.02014     671.2788     569.0742   1425.02014     671.2788     569.0742
   1425.00488     670.1495     570.2997   1425.00488     670.1495     570.2997
   1424.98962     671.3100     571.2807   1424.98962     671.3100     571.2807
   1424.97437     671.7153     572.0644   1424.97437     671.7153     572.0644
   1424.95911     672.2096     573.1498   1424.95911     672.2096     573.1498
   1424.94385     672.2097     571.6190   1424.94385     672.2097     571.6190
   1424.92859     672.9391     574.7051   1424.92859     672.9391     574.7051
   1424.91333     674.9720     574.1709   1424.91333     674.9720     574.1709
   1424.89807     673.5430     574.9771   1424.89807     673.5430     574.9771
   1424.88281     675.4470     575.4736   1424.88281     675.4470     575.4736
   1424.86755     674.9012     576.1396   1424.86755     674.9012     576.1396
   1424.85229     675.7506     576.7377   1424.85229     675.7506     576.7377
   1424.83704     675.3489     577.8613   1424.83704     675.3489     577.8613
   1424.82178     674.8895     578.8867   1424.82178     674.8895     578.8867
   1424.80652     675.7983     579.4714   1424.80652     675.7983     579.4714
   1424.79126     675.4155     580.4160   1424.79126     675.4155     580.4160
   1424.77600     675.5085     579.3315   1424.77600     675.5085     579.3315
   1424.76074     676.2342     581.1362   1424.76074     676.2342     581.1362
   1424.74548     676.8834     580.6614   1424.74548     676.8834     580.6614
   1424.73022     676.4137     583.3737   1424.73022     676.4137     583.3737
   1424.71497     676.7981     582.0781   1424.71497     676.7981     582.0781
   1424.69971     676.6140     583.2235   1424.69971     676.6140     583.2235
   1424.68445     676.4395     583.9960   1424.68445     676.4395     583.9960
   1424.66919     676.3063     584.7119   1424.66919     676.3063     584.7119
   1424.65393     676.0236     585.1108   1424.65393     676.0236     585.1108
   1424.63867     677.1748     585.7183   1424.63867     677.1748     585.7183
   1424.62341     678.1992     587.2789   1424.62341     678.1992     587.2789
   1424.60815     676.7622     587.5977   1424.60815     676.7622     587.5977
   1424.59290     677.6652     588.0649   1424.59290     677.6652     588.0649
   1424.57764     677.0513     588.9844   1424.57764     677.0513     588.9844
   1424.56238     676.6990     589.6400   1424.56238     676.6990     589.6400
   1424.54712     677.7972     590.1840   1424.54712     677.7972     590.1840
   1424.53186     677.3855     591.4543   1424.53186     677.3855     591.4543
   1424.51660     677.6467     591.0342   1424.51660     677.6467     591.0342
   1424.50134     677.4460     591.8639   1424.50134     677.4460     591.8639
   1424.48608     677.4855     592.4297   1424.48608     677.4855     592.4297
   1424.47083     677.4302     592.5432   1424.47083     677.4302     592.5432
   1424.45557     679.4448     594.0588   1424.45557     679.4448     594.0588
   1424.44031     677.4705     594.3167   1424.44031     677.4705     594.3167
   1424.42505     677.4008     594.5991   1424.42505     677.4008     594.5991
   1424.40979     677.9667     596.2316   1424.40979     677.9667     596.2316
   1424.39453     678.0530     596.4983   1424.39453     678.0530     596.4983
   1424.37927     678.3129     596.9691   1424.37927     678.3129     596.9691
   1424.36401     677.0240     597.1060   1424.36401     677.0240     597.1060
   1424.34875     678.0651     597.5797   1424.34875     678.0651     597.5797
   1424.33350     677.5553     599.2779   1424.33350     677.5553     599.2779
   1424.31824     676.3574     598.8486   1424.31824     676.3574     598.8486
   1424.30298     677.2689     600.2262   1424.30298     677.2689     600.2262
   1424.28772     676.4598     600.9185   1424.28772     676.4598     600.9185
   1424.27246     678.0196     601.9925   1424.27246     678.0196     601.9925
   1424.25720     678.1553     603.0016   1424.25720     678.1553     603.0016
   1424.24194     677.5870     603.3666   1424.24194     677.5870     603.3666
   1424.22668     677.5873     604.5225   1424.22668     677.5873     604.5225
   1424.21143     677.1510     604.9813   1424.21143     677.1510     604.9813
   1424.19617     677.3519     604.8740   1424.19617     677.3519     604.8740
   1424.18091     678.1106     605.1240   1424.18091     678.1106     605.1240
   1424.16565     676.2119     606.5544   1424.16565     676.2119     606.5544
   1424.15039     676.8267     607.3408   1424.15039     676.8267     607.3408
   1424.13513     676.8782     607.5793   1424.13513     676.8782     607.5793
   1424.11987     675.5662     608.2863   1424.11987     675.5662     608.2863
   1424.10461     676.8643     609.0482   1424.10461     676.8643     609.0482
   1424.08936     676.1721     609.0959   1424.08936     676.1721     609.0959
   1424.07410     676.0704     610.2309   1424.07410     676.0704     610.2309
   1424.05884     675.5117     611.5110   1424.05884     675.5117     611.5110
   1424.04358     676.2908     612.1975   1424.04358     676.2908     612.1975
   1424.02832     675.4564     612.1957   1424.02832     675.4564     612.1957
   1424.01306     676.4946     612.1807   1424.01306     676.4946     612.1807
   1423.99780     675.3386     613.8686   1423.99780     675.3386     613.8686
   1423.98254     674.6312     614.8428   1423.98254     674.6312     614.8428
   1423.96729     674.4031     615.2189   1423.96729     674.4031     615.2189
   1423.95203     674.5809     616.1095   1423.95203     674.5809     616.1095
   1423.93677     675.9267     617.2120   1423.93677     675.9267     617.2120
   1423.92151     676.5418     618.3315   1423.92151     676.5418     618.3315
   1423.90625     675.0934     618.2442   1423.90625     675.0934     618.2442
   1423.89099     674.3152     619.0746   1423.89099     674.3152     619.0746
   1423.87573     674.1765     619.9880   1423.87573     674.1765     619.9880
   1423.86047     674.2224     619.9554   1423.86047     674.2224     619.9554
   1423.84521     674.4481     620.7298   1423.84521     674.4481     620.7298
   1423.82996     673.7424     621.2538   1423.82996     673.7424     621.2538
   1423.81470     674.3898     623.0730   1423.81470     674.3898     623.0730
   1423.79944     672.3698     623.0017   1423.79944     672.3698     623.0017
   1423.78418     673.9856     622.9471   1423.78418     673.9856     622.9471
   1423.76892     673.4714     623.5815   1423.76892     673.4714     623.5815
   1423.75366     672.9611     624.7225   1423.75366     672.9611     624.7225
   1423.73840     672.8819     624.8436   1423.73840     672.8819     624.8436
   1423.72314     672.8909     625.3248   1423.72314     672.8909     625.3248
   1423.70789     672.9072     626.1885   1423.70789     672.9072     626.1885
   1423.69263     671.8372     626.4090   1423.69263     671.8372     626.4090
   1423.67737     672.1161     627.3038   1423.67737     672.1161     627.3038
   1423.66211     672.3864     627.9091   1423.66211     672.3864     627.9091
   1423.64685     672.3905     628.5927   1423.64685     672.3905     628.5927
   1423.63159     672.3256     628.9676   1423.63159     672.3256     628.9676
   1423.61633     672.6966     630.1409   1423.61633     672.6966     630.1409
   1423.60107     671.2639     630.4736   1423.60107     671.2639     630.4736
   1423.58582     672.7386     630.7377   1423.58582     672.7386     630.7377
   1423.57056     672.0403     631.8766   1423.57056     672.0403     631.8766
   1423.55530     671.2872     631.5159   1423.55530     671.2872     631.5159
   1423.54004     670.9193     633.1315   1423.54004     670.9193     633.1315
   1423.52478     671.1642     633.3505   1423.52478     671.1642     633.3505
   1423.50952     670.7639     632.7571   1423.50952     670.7639     632.7571
   1423.49426     670.0020     634.0795   1423.49426     670.0020     634.0795
   1423.47900     670.2819     635.4395   1423.47900     670.2819     635.4395
   1423.46375     669.2181     635.3293   1423.46375     669.2181     635.3293
   1423.44849     670.5301     635.8000   1423.44849     670.5301     635.8000
   1423.43323     668.7472     634.8304   1423.43323     668.7472     634.8304
   1423.41797     669.9520     636.8658   1423.41797     669.9520     636.8658
   1423.40271     669.1368     637.2983   1423.40271     669.1368     637.2983
   1423.38745     669.7153     637.6316   1423.38745     669.7153     637.6316
   1423.37219     670.2851     638.3015   1423.37219     670.2851     638.3015
   1423.35693     668.9140     638.5334   1423.35693     668.9140     638.5334
   1423.34167     668.2838     638.2005   1423.34167     668.2838     638.2005
   1423.32642     668.5287     638.8455   1423.32642     668.5287     638.8455
   1423.31116     668.1068     640.0762   1423.31116     668.1068     640.0762
   1423.29590     668.8896     640.4603   1423.29590     668.8896     640.4603
   1423.28064     668.6783     640.2316   1423.28064     668.6783     640.2316
   1423.26538     668.4543     640.1683   1423.26538     668.4543     640.1683
   1423.25012     667.3475     641.2172   1423.25012     667.3475     641.2172
   1423.23486     667.7040     640.2275   1423.23486     667.7040     640.2275
   1423.21960     667.7975     640.8073   1423.21960     667.7975     640.8073
   1423.20435     668.3145     641.1349   1423.20435     668.3145     641.1349
   1423.18909     667.8857     641.4449   1423.18909     667.8857     641.4449
   1423.17383     667.4210     640.7604   1423.17383     667.4210     640.7604
   1423.15857     666.7482     642.2549   1423.15857     666.7482     642.2549
   1423.14331     667.3189     642.7672   1423.14331     667.3189     642.7672
   1423.12805     667.3982     642.0170   1423.12805     667.3982     642.0170
   1423.11279     666.4118     642.7228   1423.11279     666.4118     642.7228
   1423.09753     665.9792     642.2000   1423.09753     665.9792     642.2000
   1423.08228     666.2861     642.4143   1423.08228     666.2861     642.4143
   1423.06702     666.8446     642.0627   1423.06702     666.8446     642.0627
   1423.05176     665.0325     641.3834   1423.05176     665.0325     641.3834
   1423.03650     666.2726     641.0807   1423.03650     666.2726     641.0807
   1423.02124     664.9343     642.6198   1423.02124     664.9343     642.6198
   1423.00598     665.2571     641.9198   1423.00598     665.2571     641.9198
   1422.99072     665.4750     642.0638   1422.99072     665.4750     642.0638
   1422.97546     665.7195     641.4094   1422.97546     665.7195     641.4094
   1422.96021     666.0131     642.2060   1422.96021     666.0131     642.2060
   1422.94495     664.1904     641.8777   1422.94495     664.1904     641.8777
   1422.92969     663.9855     641.3825   1422.92969     663.9855     641.3825
   1422.91443     663.5614     642.0137   1422.91443     663.5614     642.0137
   1422.89917     663.5806     640.6962   1422.89917     663.5806     640.6962
   1422.88391     663.4630     641.1611   1422.88391     663.4630     641.1611
   1422.86865     663.6826     640.6810   1422.86865     663.6826     640.6810
   1422.85339     663.7983     640.7213   1422.85339     663.7983     640.7213
   1422.83813     664.0906     640.3821   1422.83813     664.0906     640.3821
   1422.82288     662.7429     638.8759   1422.82288     662.7429     638.8759
   1422.80762     663.1600     639.9867   1422.80762     663.1600     639.9867
   1422.79236     663.4586     640.4438   1422.79236     663.4586     640.4438
   1422.77710     662.6655     638.9887   1422.77710     662.6655     638.9887
   1422.76184     662.8183     638.5540   1422.76184     662.8183     638.5540
   1422.74658     662.9787     637.7042   1422.74658     662.9787     637.7042
   1422.73132     662.8567     638.4172   1422.73132     662.8567     638.4172
   1422.71606     661.6865     637.1925   1422.71606     661.6865     637.1925
   1422.70081     663.0303     636.2821   1422.70081     663.0303     636.2821
   1422.68555     662.0801     636.1221   1422.68555     662.0801     636.1221
   1422.67029     660.9799     636.5414   1422.67029     660.9799     636.5414
   1422.65503     662.2361     633.8936   1422.65503     662.2361     633.8936
   1422.63977     661.6865     633.8560   1422.63977     661.6865     633.8560
   1422.62451     661.5373     632.9418   1422.62451     661.5373     632.9418
   1422.60925     660.5290     632.0878   1422.60925     660.5290     632.0878
   1422.59399     660.4850     631.2057   1422.59399     660.4850     631.2057
   1422.57874     659.8964     631.3905   1422.57874     659.8964     631.3905
   1422.56348     659.7859     631.1951   1422.56348     659.7859     631.1951
   1422.54822     658.1806     630.3734   1422.54822     658.1806     630.3734
   1422.53296     658.8919     629.5806   1422.53296     658.8919     629.5806
   1422.51770     659.5600     627.4005   1422.51770     659.5600     627.4005
   1422.50244     659.1272     626.9768   1422.50244     659.1272     626.9768
   1422.48718     659.0448     627.0235   1422.48718     659.0448     627.0235
   1422.47192     658.8281     625.3121   1422.47192     658.8281     625.3121
   1422.45667     659.0673     626.1381   1422.45667     659.0673     626.1381
   1422.44141     657.8602     624.9789   1422.44141     657.8602     624.9789
   1422.42615     657.2441     623.5656   1422.42615     657.2441     623.5656
   1422.41089     659.6791     622.3264   1422.41089     659.6791     622.3264
   1422.39563     657.8915     621.8030   1422.39563     657.8915     621.8030
   1422.38037     656.6812     619.6757   1422.38037     656.6812     619.6757
   1422.36511     657.8301     618.7744   1422.36511     657.8301     618.7744
   1422.34985     657.8082     618.6578   1422.34985     657.8082     618.6578
   1422.33459     657.1861     617.9570   1422.33459     657.1861     617.9570
   1422.31934     656.2870     615.9583   1422.31934     656.2870     615.9583
   1422.30408     656.1517     616.1373   1422.30408     656.1517     616.1373
   1422.28882     656.2372     614.5544   1422.28882     656.2372     614.5544
   1422.27356     655.5687     613.2131   1422.27356     655.5687     613.2131
   1422.25830     655.4827     610.6748   1422.25830     655.4827     610.6748
   1422.24304     655.9435     610.3061   1422.24304     655.9435     610.3061
   1422.22778     654.3929     610.7499   1422.22778     654.3929     610.7499
   1422.21252     655.2374     608.8345   1422.21252     655.2374     608.8345
   1422.19727     654.6015     607.9581   1422.19727     654.6015     607.9581
   1422.18201     653.5922     607.2068   1422.18201     653.5922     607.2068
   1422.16675     654.5986     606.2991   1422.16675     654.5986     606.2991
   1422.15149     654.7739     604.2911   1422.15149     654.7739     604.2911
   1422.13623     654.3314     602.4124   1422.13623     654.3314     602.4124
   1422.12097     652.9980     601.2653   1422.12097     652.9980     601.2653
   1422.10571     653.2379     600.5036   1422.10571     653.2379     600.5036
   1422.09045     653.3381     599.3292   1422.09045     653.3381     599.3292
   1422.07520     652.5211     598.1978   1422.07520     652.5211     598.1978
   1422.05994     652.2448     596.1922   1422.05994     652.2448     596.1922
   1422.04468     652.2320     596.0807   1422.04468     652.2320     596.0807
   1422.02942     652.5350     593.6450   1422.02942     652.5350     593.6450
   1422.01416     651.8099     591.7671   1422.01416     651.8099     591.7671
   1421.99890     651.0564     591.0776   1421.99890     651.0564     591.0776
   1421.98364     651.5474     589.6188   1421.98364     651.5474     589.6188
   1421.96838     651.1838     587.8726   1421.96838     651.1838     587.8726
   1421.95312     652.0486     586.1815   1421.95312     652.0486     586.1815
   1421.93787     650.5586     585.2178   1421.93787     650.5586     585.2178
   1421.92261     651.1039     585.0508   1421.92261     651.1039     585.0508
   1421.90735     650.7918     581.8226   1421.90735     650.7918     581.8226
   1421.89209     650.5627     581.7086   1421.89209     650.5627     581.7086
   1421.87683     651.5616     580.5195   1421.87683     651.5616     580.5195
   1421.86157     650.7081     578.0983   1421.86157     650.7081     578.0983
   1421.84631     649.0691     576.9951   1421.84631     649.0691     576.9951
   1421.83105     649.9646     575.4084   1421.83105     649.9646     575.4084
   1421.81580     648.7821     573.2778   1421.81580     648.7821     573.2778
   1421.80054     648.4729     573.0558   1421.80054     648.4729     573.0558
   1421.78528     648.8090     570.8571   1421.78528     648.8090     570.8571
   1421.77002     648.6063     569.9528   1421.77002     648.6063     569.9528
   1421.75476     648.0078     568.1478   1421.75476     648.0078     568.1478
   1421.73950     648.0316     565.7119   1421.73950     648.0316     565.7119
   1421.72424     647.3806     564.9470   1421.72424     647.3806     564.9470
   1421.70898     647.7520     562.9244   1421.70898     647.7520     562.9244
   1421.69373     647.4117     562.0771   1421.69373     647.4117     562.0771
   1421.67847     646.8802     560.1822   1421.67847     646.8802     560.1822
   1421.66321     646.4702     558.0078   1421.66321     646.4702     558.0078
   1421.64795     646.5718     557.1954   1421.64795     646.5718     557.1954
   1421.63269     646.8679     555.4789   1421.63269     646.8679     555.4789
   1421.61743     646.3555     554.3538   1421.61743     646.3555     554.3538
   1421.60217     646.1248     552.4890   1421.60217     646.1248     552.4890
   1421.58691     646.4441     551.0180   1421.58691     646.4441     551.0180
   1421.57166     645.7373     549.4221   1421.57166     645.7373     549.4221
   1421.55640     645.5745     547.9916   1421.55640     645.5745     547.9916
   1421.54114     644.9802     546.0348   1421.54114     644.9802     546.0348
   1421.52588     644.7787     545.5312   1421.52588     644.7787     545.5312
   1421.51062     645.0022     543.7260   1421.51062     645.0022     543.7260
   1421.49536     644.4395     541.8536   1421.49536     644.4395     541.8536
   1421.48010     645.2984     539.9647   1421.48010     645.2984     539.9647
   1421.46484     644.1334     538.3553   1421.46484     644.1334     538.3553
   1421.44958     643.3610     537.7731   1421.44958     643.3610     537.7731
   1421.43433     643.4816     535.7422   1421.43433     643.4816     535.7422
   1421.41907     643.9033     533.8353   1421.41907     643.9033     533.8353
   1421.40381     643.3997     532.8082   1421.40381     643.3997     532.8082
   1421.38855     642.9508     531.3972   1421.38855     642.9508     531.3972
   1421.37329     642.9966     531.1329   1421.37329     642.9966     531.1329
   1421.35803     642.8150     527.9805   1421.35803     642.8150     527.9805
   1421.34277     642.6324     527.4072   1421.34277     642.6324     527.4072
   1421.32751     642.5807     525.3025   1421.32751     642.5807     525.3025
   1421.31226     643.0036     524.0781   1421.31226     643.0036     524.0781
   1421.29700     643.2490     522.6378   1421.29700     643.2490     522.6378
   1421.28174     642.9566     521.1508   1421.28174     642.9566     521.1508
   1421.26648     643.5459     520.2258   1421.26648     643.5459     520.2258
   1421.25122     645.0941     519.2765   1421.25122     645.0941     519.2765
   1421.23596     646.9257     520.5781   1421.23596     646.9257     520.5781
   1421.22070     650.6475     522.0687   1421.22070     650.6475     522.0687
   1421.20544     658.3317     525.8077   1421.20544     658.3317     525.8077
   1421.19019     665.3366     529.9629   1421.19019     665.3366     529.9629
   1421.17493     664.5767     528.4886   1421.17493     664.5767     528.4886
   1421.15967     660.0062     522.1075   1421.15967     660.0062     522.1075
   1421.14441     654.2370     517.6260   1421.14441     654.2370     517.6260
   1421.12915     653.2673     515.1345   1421.12915     653.2673     515.1345
   1421.11389     652.7723     514.3094   1421.11389     652.7723     514.3094
   1421.09863     653.5923     512.8121   1421.09863     653.5923     512.8121
   1421.08337     655.3388     512.0545   1421.08337     655.3388     512.0545
   1421.06812     659.3985     513.5619   1421.06812     659.3985     513.5619
   1421.05286     665.6077     517.3779   1421.05286     665.6077     517.3779
   1421.03760     677.9227     524.3998   1421.03760     677.9227     524.3998
   1421.02234     698.1200     537.7280   1421.02234     698.1200     537.7280
   1421.00708     730.5125     561.1647   1421.00708     730.5125     561.1647
   1420.99182     781.5311     596.3133   1420.99182     781.5311     596.3133
   1420.97656     849.4909     642.6996   1420.97656     849.4909     642.6996
   1420.96130     933.6301     703.5695   1420.96130     933.6301     703.5695
   1420.94604    1041.3248     781.6666   1420.94604    1041.3248     781.6666
   1420.93079    1137.5521     850.7253   1420.93079    1137.5521     850.7253
   1420.91553    1154.1411     858.3824   1420.91553    1154.1411     858.3824
   1420.90027    1116.9052     829.2846   1420.90027    1116.9052     829.2846
   1420.88501    1080.3944     800.8374   1420.88501    1080.3944     800.8374
   1420.86975    1077.1312     795.2122   1420.86975    1077.1312     795.2122
   1420.85449    1098.5713     808.0024   1420.85449    1098.5713     808.0024
   1420.83923    1070.3699     786.8773   1420.83923    1070.3699     786.8773
   1420.82397     990.0042     729.6927   1420.82397     990.0042     729.6927
   1420.80872     903.7181     665.4102   1420.80872     903.7181     665.4102
   1420.79346     894.5590     655.9377   1420.79346     894.5590     655.9377
   1420.77820     947.8311     691.1369   1420.77820     947.8311     691.1369
   1420.76294     971.1078     705.1638   1420.76294     971.1078     705.1638
   1420.74768     935.7668     678.6459   1420.74768     935.7668     678.6459
   1420.73242     947.5068     685.4501   1420.73242     947.5068     685.4501
   1420.71716    1104.0889     791.5506   1420.71716    1104.0889     791.5506
   1420.70190    1290.1127     918.5811   1420.70190    1290.1127     918.5811
   1420.68665    1345.2166     956.0695   1420.68665    1345.2166     956.0695
   1420.67139    1364.4562     965.2161   1420.67139    1364.4562     965.2161
   1420.65613    1403.7096     993.3561   1420.65613    1403.7096     993.3561
   1420.64087    1355.3412     954.0335   1420.64087    1355.3412     954.0335
   1420.62561    1429.9360    1004.5025   1420.62561    1429.9360    1004.5025
   1420.61035    1650.4908    1150.7225   1420.61035    1650.4908    1150.7225
   1420.59509    1935.0149    1342.1831   1420.59509    1935.0149    1342.1831
   1420.57983    2204.0659    1520.8607   1420.57983    2204.0659    1520.8607
   1420.56458    2320.4900    1597.9860   1420.56458    2320.4900    1597.9860
   1420.54932    2285.1018    1568.1990   1420.54932    2285.1018    1568.1990
   1420.53406    2165.0415    1486.1835   1420.53406    2165.0415    1486.1835
   1420.51880    1777.9321    1223.9648   1420.51880    1777.9321    1223.9648
   1420.50354    1341.4283     927.6885   1420.50354    1341.4283     927.6885
   1420.48828    1017.3633     707.9291   1420.48828    1017.3633     707.9291
   1420.47302     840.3678     587.2314   1420.47302     840.3678     587.2314
   1420.45776     753.0164     527.9584   1420.45776     753.0164     527.9584
   1420.44250     705.7933     496.1669   1420.44250     705.7933     496.1669
   1420.42725     680.2390     476.2941   1420.42725     680.2390     476.2941
   1420.41199     666.0377     465.3122   1420.41199     666.0377     465.3122
   1420.39673     658.8246     458.8818   1420.39673     658.8246     458.8818
   1420.38147     654.1895     456.4004   1420.38147     654.1895     456.4004
   1420.36621     650.6422     451.8962   1420.36621     650.6422     451.8962
   1420.35095     646.4792     448.4985   1420.35095     646.4792     448.4985
   1420.33569     646.4515     446.9999   1420.33569     646.4515     446.9999
   1420.32043     645.3080     445.0356   1420.32043     645.3080     445.0356
   1420.30518     645.2701     444.4998   1420.30518     645.2701     444.4998
   1420.28992     645.1595     443.2863   1420.28992     645.1595     443.2863
   1420.27466     643.9915     442.3039   1420.27466     643.9915     442.3039
   1420.25940     643.5097     441.6869   1420.25940     643.5097     441.6869
   1420.24414     642.8090     439.8376   1420.24414     642.8090     439.8376
   1420.22888     641.9395     438.2184   1420.22888     641.9395     438.2184
   1420.21362     639.9709     436.6867   1420.21362     639.9709     436.6867
   1420.19836     638.4265     434.4241   1420.19836     638.4265     434.4241
   1420.18311     637.7148     433.3979   1420.18311     637.7148     433.3979
   1420.16785     637.4517     431.8942   1420.16785     637.4517     431.8942
   1420.15259     637.0593     430.7521   1420.15259     637.0593     430.7521
   1420.13733     637.2881     429.6557   1420.13733     637.2881     429.6557
   1420.12207     634.4253     428.2625   1420.12207     634.4253     428.2625
   1420.10681     634.9768     428.1048   1420.10681     634.9768     428.1048
   1420.09155     635.7696     426.6646   1420.09155     635.7696     426.6646
   1420.07629     634.8843     425.4031   1420.07629     634.8843     425.4031
   1420.06104     634.4045     424.7545   1420.06104     634.4045     424.7545
   1420.04578     635.3021     424.1146   1420.04578     635.3021     424.1146
   1420.03052     636.1602     423.0935   1420.03052     636.1602     423.0935
   1420.01526     635.5632     423.2913   1420.01526     635.5632     423.2913
   1420.00000     635.9568     423.3285   1420.00000     635.9568     423.3285
   1419.98474     636.3502     423.3656   1419.98474     636.3502     423.3656
   1419.96948     638.9307     421.4528   1419.96948     638.9307     421.4528
   1419.95422     635.5617     419.0550   1419.95422     635.5617     419.0550
   1419.93896     635.6367     418.3835   1419.93896     635.6367     418.3835
   1419.92371     635.6592     418.1942   1419.92371     635.6592     418.1942
   1419.90845     635.0378     417.6395   1419.90845     635.0378     417.6395
   1419.89319     636.4374     416.8087   1419.89319     636.4374     416.8087
   1419.87793     636.9327     417.0612   1419.87793     636.9327     417.0612
   1419.86267     637.2672     416.4401   1419.86267     637.2672     416.4401
   1419.84741     637.7364     415.9477   1419.84741     637.7364     415.9477
   1419.83215     637.9648     414.9055   1419.83215     637.9648     414.9055
   1419.81689     638.0487     414.1024   1419.81689     638.0487     414.1024
   1419.80164     638.1448     414.0323   1419.80164     638.1448     414.0323
   1419.78638     638.0289     413.9724   1419.78638     638.0289     413.9724
   1419.77112     638.4099     412.3559   1419.77112     638.4099     412.3559
   1419.75586     639.9566     412.2114   1419.75586     639.9566     412.2114
   1419.74060     639.7954     412.1190   1419.74060     639.7954     412.1190
   1419.72534     639.7682     411.8287   1419.72534     639.7682     411.8287
   1419.71008     638.9592     411.7271   1419.71008     638.9592     411.7271
   1419.69482     639.9429     411.0669   1419.69482     639.9429     411.0669
   1419.67957     640.2629     410.6792   1419.67957     640.2629     410.6792
   1419.66431     641.3124     410.3697   1419.66431     641.3124     410.3697
   1419.64905     641.4761     409.7622   1419.64905     641.4761     409.7622
   1419.63379     641.6200     408.9995   1419.63379     641.6200     408.9995
   1419.61853     641.7094     408.6725   1419.61853     641.7094     408.6725
   1419.60327     641.5563     408.3053   1419.60327     641.5563     408.3053
   1419.58801     642.7137     408.4075   1419.58801     642.7137     408.4075
   1419.57275     642.6202     407.7356   1419.57275     642.6202     407.7356
   1419.55750     643.3793     407.0598   1419.55750     643.3793     407.0598
   1419.54224     644.3091     407.1800   1419.54224     644.3091     407.1800
   1419.52698     644.0602     406.8918   1419.52698     644.0602     406.8918
   1419.51172     643.3749     406.5031   1419.51172     643.3749     406.5031
   1419.49646     644.4238     406.6805   1419.49646     644.4238     406.6805
   1419.48120     644.6763     406.1840   1419.48120     644.6763     406.1840
   1419.46594     645.8307     405.5932   1419.46594     645.8307     405.5932
   1419.45068     645.8326     405.7188   1419.45068     645.8326     405.7188
   1419.43542     645.9981     405.3104   1419.43542     645.9981     405.3104
   1419.42017     645.5829     405.1235   1419.42017     645.5829     405.1235
   1419.40491     647.8820     405.2506   1419.40491     647.8820     405.2506
   1419.38965     647.9686     404.7727   1419.38965     647.9686     404.7727
   1419.37439     648.5488     404.4404   1419.37439     648.5488     404.4404
   1419.35913     647.0319     404.3288   1419.35913     647.0319     404.3288
   1419.34387     649.2144     403.7916   1419.34387     649.2144     403.7916
   1419.32861     648.4208     403.9670   1419.32861     648.4208     403.9670
   1419.31335     647.6581     403.8312   1419.31335     647.6581     403.8312
   1419.29810     649.6320     404.5634   1419.29810     649.6320     404.5634
   1419.28284     650.5646     404.0648   1419.28284     650.5646     404.0648
   1419.26758     651.0489     404.3107   1419.26758     651.0489     404.3107
   1419.25232     650.6670     403.2226   1419.25232     650.6670     403.2226
   1419.23706     651.9404     403.8181   1419.23706     651.9404     403.8181
   1419.22180     652.6910     403.6845   1419.22180     652.6910     403.6845
   1419.20654     652.3975     403.0461   1419.20654     652.3975     403.0461
   1419.19128     653.6285     402.9862   1419.19128     653.6285     402.9862
   1419.17603     653.8352     403.2173   1419.17603     653.8352     403.2173
   1419.16077     654.4439     403.1206   1419.16077     654.4439     403.1206
   1419.14551     654.7325     403.5299   1419.14551     654.7325     403.5299
   1419.13025     655.9693     402.7454   1419.13025     655.9693     402.7454
   1419.11499     655.1638     403.8793   1419.11499     655.1638     403.8793
   1419.09973     656.0532     403.3525   1419.09973     656.0532     403.3525
   1419.08447     656.4548     404.0739   1419.08447     656.4548     404.0739
   1419.06921     656.9193     403.1837   1419.06921     656.9193     403.1837
   1419.05396     656.7242     403.6554   1419.05396     656.7242     403.6554
   1419.03870     658.7839     403.5902   1419.03870     658.7839     403.5902
   1419.02344     657.4034     403.5765   1419.02344     657.4034     403.5765
   1419.00818     659.5341     403.5934   1419.00818     659.5341     403.5934
   1418.99292     658.6165     403.1645   1418.99292     658.6165     403.1645
   1418.97766     659.7750     403.8020   1418.97766     659.7750     403.8020
   1418.96240     660.8138     404.8129   1418.96240     660.8138     404.8129
   1418.94714     661.0222     404.1342   1418.94714     661.0222     404.1342
   1418.93188     661.5685     404.0667   1418.93188     661.5685     404.0667
   1418.91663     661.9981     404.5037   1418.91663     661.9981     404.5037
   1418.90137     662.4866     404.7576   1418.90137     662.4866     404.7576
   1418.88611     664.0229     405.0154   1418.88611     664.0229     405.0154
   1418.87085     665.0212     405.3586   1418.87085     665.0212     405.3586
   1418.85559     664.3195     405.0936   1418.85559     664.3195     405.0936
   1418.84033     664.8362     405.4432   1418.84033     664.8362     405.4432
   1418.82507     665.6805     405.8285   1418.82507     665.6805     405.8285
   1418.80981     667.8087     405.5106   1418.80981     667.8087     405.5106
   1418.79456     667.9506     405.7910   1418.79456     667.9506     405.7910
   1418.77930     668.2319     406.4561   1418.77930     668.2319     406.4561
   1418.76404     667.6210     406.0641   1418.76404     667.6210     406.0641
   1418.74878     669.1234     406.9377   1418.74878     669.1234     406.9377
   1418.73352     669.8781     406.3059   1418.73352     669.8781     406.3059
   1418.71826     671.3937     406.9220   1418.71826     671.3937     406.9220
   1418.70300     671.3749     406.5340   1418.70300     671.3749     406.5340
   1418.68774     671.9100     407.8336   1418.68774     671.9100     407.8336
   1418.67249     672.6657     407.3661   1418.67249     672.6657     407.3661
   1418.65723     673.7792     407.9870   1418.65723     673.7792     407.9870
   1418.64197     673.8649     408.5686   1418.64197     673.8649     408.5686
   1418.62671     673.8223     408.6526   1418.62671     673.8223     408.6526
   1418.61145     674.4557     410.0726   1418.61145     674.4557     410.0726
   1418.59619     676.8691     410.0003   1418.59619     676.8691     410.0003
   1418.58093     677.0902     409.5135   1418.58093     677.0902     409.5135
   1418.56567     677.3251     410.5160   1418.56567     677.3251     410.5160
   1418.55042     678.0699     410.9707   1418.55042     678.0699     410.9707
   1418.53516     680.4980     410.7664   1418.53516     680.4980     410.7664
   1418.51990     679.4466     411.4814   1418.51990     679.4466     411.4814
   1418.50464     680.8516     411.5718   1418.50464     680.8516     411.5718
   1418.48938     681.2229     412.2209   1418.48938     681.2229     412.2209
   1418.47412     681.8317     412.3809   1418.47412     681.8317     412.3809
   1418.45886     684.3979     413.3759   1418.45886     684.3979     413.3759
   1418.44360     684.1171     413.1911   1418.44360     684.1171     413.1911
   1418.42834     685.4131     413.2893   1418.42834     685.4131     413.2893
   1418.41309     684.4343     414.9089   1418.41309     684.4343     414.9089
   1418.39783     686.1739     414.3633   1418.39783     686.1739     414.3633
   1418.38257     687.9550     414.6327   1418.38257     687.9550     414.6327
   1418.36731     686.9001     415.3497   1418.36731     686.9001     415.3497
   1418.35205     689.2706     415.4599   1418.35205     689.2706     415.4599
   1418.33679     687.8138     417.2661   1418.33679     687.8138     417.2661
   1418.32153     690.5866     417.0826   1418.32153     690.5866     417.0826
   1418.30627     690.9602     417.8160   1418.30627     690.9602     417.8160
   1418.29102     691.3104     417.6592   1418.29102     691.3104     417.6592
   1418.27576     692.8348     418.1943   1418.27576     692.8348     418.1943
   1418.26050     693.0276     419.3834   1418.26050     693.0276     419.3834
   1418.24524     693.8707     418.9430   1418.24524     693.8707     418.9430
   1418.22998     695.9954     419.7871   1418.22998     695.9954     419.7871
   1418.21472     695.9908     420.4138   1418.21472     695.9908     420.4138
   1418.19946     696.6228     421.0455   1418.19946     696.6228     421.0455
   1418.18420     696.8821     421.4797   1418.18420     696.8821     421.4797
   1418.16895     699.3083     422.1051   1418.16895     699.3083     422.1051
   1418.15369     698.8958     422.4746   1418.15369     698.8958     422.4746
   1418.13843     701.7493     423.4622   1418.13843     701.7493     423.4622
   1418.12317     701.3367     423.1096   1418.12317     701.3367     423.1096
   1418.10791     701.3448     424.1580   1418.10791     701.3448     424.1580
   1418.09265     703.7020     424.8871   1418.09265     703.7020     424.8871
   1418.07739     703.4680     425.6795   1418.07739     703.4680     425.6795
   1418.06213     705.4917     425.8825   1418.06213     705.4917     425.8825
   1418.04688     705.2528     427.1317   1418.04688     705.2528     427.1317
   1418.03162     704.7886     427.4559   1418.03162     704.7886     427.4559
   1418.01636     707.2014     428.0335   1418.01636     707.2014     428.0335
   1418.00110     708.0665     428.0655   1418.00110     708.0665     428.0655
   1417.98584     709.2218     428.6702   1417.98584     709.2218     428.6702
   1417.97058     710.7795     429.3843   1417.97058     710.7795     429.3843
   1417.95532     711.2455     429.8689   1417.95532     711.2455     429.8689
   1417.94006     712.5669     431.2529   1417.94006     712.5669     431.2529
   1417.92480     714.0180     431.4562   1417.92480     714.0180     431.4562
   1417.90955     713.7781     432.2463   1417.90955     713.7781     432.2463
   1417.89429     714.8642     433.0121   1417.89429     714.8642     433.0121
   1417.87903     716.6087     433.2690   1417.87903     716.6087     433.2690
   1417.86377     715.7522     433.7380   1417.86377     715.7522     433.7380
   1417.84851     718.5001     434.8446   1417.84851     718.5001     434.8446
   1417.83325     719.0114     435.8071   1417.83325     719.0114     435.8071
   1417.81799     719.4201     436.3474   1417.81799     719.4201     436.3474
   1417.80273     720.2681     436.1806   1417.80273     720.2681     436.1806
   1417.78748     721.5020     436.9192   1417.78748     721.5020     436.9192
   1417.77222     722.1874     437.5103   1417.77222     722.1874     437.5103
   1417.75696     723.8395     438.4446   1417.75696     723.8395     438.4446
   1417.74170     724.4885     439.3642   1417.74170     724.4885     439.3642
   1417.72644     725.3031     439.3654   1417.72644     725.3031     439.3654
   1417.71118     726.3153     440.0720   1417.71118     726.3153     440.0720
   1417.69592     727.7468     440.5507   1417.69592     727.7468     440.5507
   1417.68066     728.0430     441.5636   1417.68066     728.0430     441.5636
   1417.66541     729.5359     442.3788   1417.66541     729.5359     442.3788
   1417.65015     729.6281     443.2581   1417.65015     729.6281     443.2581
   1417.63489     731.3823     444.3401   1417.63489     731.3823     444.3401
   1417.61963     732.8538     443.9488   1417.61963     732.8538     443.9488
   1417.60437     732.5000     444.6447   1417.60437     732.5000     444.6447
   1417.58911     734.3090     445.9765   1417.58911     734.3090     445.9765
   1417.57385     734.6682     446.7160   1417.57385     734.6682     446.7160
   1417.55859     735.0156     446.6502   1417.55859     735.0156     446.6502
   1417.54333     736.3528     447.6810   1417.54333     736.3528     447.6810
   1417.52808     737.4714     448.4861   1417.52808     737.4714     448.4861
   1417.51282     738.3927     448.9248   1417.51282     738.3927     448.9248
   1417.49756     739.9755     449.9817   1417.49756     739.9755     449.9817
   1417.48230     741.0773     450.7997   1417.48230     741.0773     450.7997
   1417.46704     741.4371     451.4413   1417.46704     741.4371     451.4413
   1417.45178     742.2479     452.6824   1417.45178     742.2479     452.6824
   1417.43652     742.8682     452.4426   1417.43652     742.8682     452.4426
   1417.42126     744.4359     453.2075   1417.42126     744.4359     453.2075
   1417.40601     744.5952     453.9058   1417.40601     744.5952     453.9058
   1417.39075     746.4180     455.0273   1417.39075     746.4180     455.0273
   1417.37549     746.0504     455.7268   1417.37549     746.0504     455.7268
   1417.36023     748.3221     456.2007   1417.36023     748.3221     456.2007
   1417.34497     748.7132     456.6981   1417.34497     748.7132     456.6981
   1417.32971     749.9525     457.6576   1417.32971     749.9525     457.6576
   1417.31445     750.0856     458.4949   1417.31445     750.0856     458.4949
   1417.29919     751.2911     458.8472   1417.29919     751.2911     458.8472
   1417.28394     751.8184     460.0420   1417.28394     751.8184     460.0420
   1417.26868     752.3725     459.8261   1417.26868     752.3725     459.8261
   1417.25342     753.6614     461.0400   1417.25342     753.6614     461.0400
   1417.23816     755.4651     462.6035   1417.23816     755.4651     462.6035
   1417.22290     756.7003     462.9500   1417.22290     756.7003     462.9500
   1417.20764     755.6765     463.1606   1417.20764     755.6765     463.1606
   1417.19238     756.6039     463.3198   1417.19238     756.6039     463.3198
   1417.17712     757.0815     464.2162   1417.17712     757.0815     464.2162
   1417.16187     758.1274     465.4602   1417.16187     758.1274     465.4602
   1417.14661     759.9152     465.1662   1417.14661     759.9152     465.1662
   1417.13135     759.6857     466.1918   1417.13135     759.6857     466.1918
   1417.11609     761.1180     467.9093   1417.11609     761.1180     467.9093
   1417.10083     761.4116     467.7472   1417.10083     761.4116     467.7472
   1417.08557     763.3446     467.5367   1417.08557     763.3446     467.5367
   1417.07031     762.8054     469.3883   1417.07031     762.8054     469.3883
   1417.05505     764.1802     469.6631   1417.05505     764.1802     469.6631
   1417.03979     764.1034     470.0962   1417.03979     764.1034     470.0962
   1417.02454     764.6293     469.8321   1417.02454     764.6293     469.8321
   1417.00928     766.5735     471.2684   1417.00928     766.5735     471.2684
   1416.99402     766.9564     471.8704   1416.99402     766.9564     471.8704
   1416.97876     768.3538     472.6145   1416.97876     768.3538     472.6145
   1416.96350     766.9852     472.6927   1416.96350     766.9852     472.6927
   1416.94824     768.4248     473.9703   1416.94824     768.4248     473.9703
   1416.93298     769.0035     474.0546   1416.93298     769.0035     474.0546
   1416.91772     769.2333     474.3433   1416.91772     769.2333     474.3433
   1416.90247     769.9423     475.4804   1416.90247     769.9423     475.4804
   1416.88721     771.0587     475.8924   1416.88721     771.0587     475.8924
   1416.87195     770.8784     476.2299   1416.87195     770.8784     476.2299
   1416.85669     771.8072     476.7104   1416.85669     771.8072     476.7104
   1416.84143     771.2670     477.4719   1416.84143     771.2670     477.4719
   1416.82617     773.5498     477.5894   1416.82617     773.5498     477.5894
   1416.81091     772.6670     477.9757   1416.81091     772.6670     477.9757
   1416.79565     774.0310     478.8213   1416.79565     774.0310     478.8213
   1416.78040     774.5850     478.8763   1416.78040     774.5850     478.8763
   1416.76514     773.2603     479.2967   1416.76514     773.2603     479.2967
   1416.74988     774.3816     479.8100   1416.74988     774.3816     479.8100
   1416.73462     776.4799     481.1323   1416.73462     776.4799     481.1323
   1416.71936     775.5891     481.0956   1416.71936     775.5891     481.0956
   1416.70410     776.0492     480.7322   1416.70410     776.0492     480.7322
   1416.68884     776.4190     482.2868   1416.68884     776.4190     482.2868
   1416.67358     776.3993     481.6833   1416.67358     776.3993     481.6833
   1416.65833     777.1212     482.5569   1416.65833     777.1212     482.5569
   1416.64307     778.1505     482.9851   1416.64307     778.1505     482.9851
   1416.62781     777.0764     482.7977   1416.62781     777.0764     482.7977
   1416.61255     777.5837     483.2787   1416.61255     777.5837     483.2787
   1416.59729     778.4142     483.3221   1416.59729     778.4142     483.3221
   1416.58203     777.0707     484.4128   1416.58203     777.0707     484.4128
   1416.56677     778.9356     484.7959   1416.56677     778.9356     484.7959
   1416.55151     777.8033     484.1229   1416.55151     777.8033     484.1229
   1416.53625     778.4837     484.5744   1416.53625     778.4837     484.5744
   1416.52100     778.7313     485.4514   1416.52100     778.7313     485.4514
   1416.50574     779.1440     485.4678   1416.50574     779.1440     485.4678
   1416.49048     777.5614     485.9052   1416.49048     777.5614     485.9052
   1416.47522     777.8964     484.8345   1416.47522     777.8964     484.8345
   1416.45996     778.3051     485.1040   1416.45996     778.3051     485.1040
   1416.44470     777.8968     485.5039   1416.44470     777.8968     485.5039
   1416.42944     777.8250     486.8612   1416.42944     777.8250     486.8612
   1416.41418     778.1661     486.2000   1416.41418     778.1661     486.2000
   1416.39893     778.5253     486.7191   1416.39893     778.5253     486.7191
   1416.38367     777.9518     486.1786   1416.38367     777.9518     486.1786
   1416.36841     776.6936     486.3930   1416.36841     776.6936     486.3930
   1416.35315     778.4927     486.7829   1416.35315     778.4927     486.7829
   1416.33789     777.3997     485.9351   1416.33789     777.3997     485.9351
   1416.32263     778.2677     487.0357   1416.32263     778.2677     487.0357
   1416.30737     777.7183     487.1985   1416.30737     777.7183     487.1985
   1416.29211     775.3773     486.8944   1416.29211     775.3773     486.8944
   1416.27686     776.8661     486.7625   1416.27686     776.8661     486.7625
   1416.26160     777.5892     486.9175   1416.26160     777.5892     486.9175
   1416.24634     776.2449     486.7838   1416.24634     776.2449     486.7838
   1416.23108     774.8365     487.4886   1416.23108     774.8365     487.4886
   1416.21582     776.0251     486.3792   1416.21582     776.0251     486.3792
   1416.20056     774.9554     487.2744   1416.20056     774.9554     487.2744
   1416.18530     774.5005     486.9641   1416.18530     774.5005     486.9641
   1416.17004     775.0851     485.9886   1416.17004     775.0851     485.9886
   1416.15479     773.8326     486.6984   1416.15479     773.8326     486.6984
   1416.13953     773.3250     486.0720   1416.13953     773.3250     486.0720
   1416.12427     773.2029     485.9622   1416.12427     773.2029     485.9622
   1416.10901     772.9583     486.7809   1416.10901     772.9583     486.7809
   1416.09375     772.3678     485.9993   1416.09375     772.3678     485.9993
   1416.07849     771.8777     485.9357   1416.07849     771.8777     485.9357
   1416.06323     771.3353     485.1764   1416.06323     771.3353     485.1764
   1416.04797     770.3328     485.8947   1416.04797     770.3328     485.8947
   1416.03271     770.8423     486.0302   1416.03271     770.8423     486.0302
   1416.01746     769.9739     485.1899   1416.01746     769.9739     485.1899
   1416.00220     770.1143     484.7890   1416.00220     770.1143     484.7890
   1415.98694     769.1443     485.0167   1415.98694     769.1443     485.0167
   1415.97168     768.4102     484.6761   1415.97168     768.4102     484.6761
   1415.95642     767.4774     485.1595   1415.95642     767.4774     485.1595
   1415.94116     768.2200     483.9590   1415.94116     768.2200     483.9590
   1415.92590     767.5538     483.3066   1415.92590     767.5538     483.3066
   1415.91064     766.0319     484.5677   1415.91064     766.0319     484.5677
   1415.89539     765.9616     483.6992   1415.89539     765.9616     483.6992
   1415.88013     765.0857     484.0115   1415.88013     765.0857     484.0115
   1415.86487     764.6625     483.3164   1415.86487     764.6625     483.3164
   1415.84961     762.4942     483.0665   1415.84961     762.4942     483.0665
   1415.83435     762.3760     482.8422   1415.83435     762.3760     482.8422
   1415.81909     762.3002     482.2280   1415.81909     762.3002     482.2280
   1415.80383     762.2711     482.4689   1415.80383     762.2711     482.4689
   1415.78857     761.8644     482.3237   1415.78857     761.8644     482.3237
   1415.77332     759.7237     482.0429   1415.77332     759.7237     482.0429
   1415.75806     759.6473     481.7474   1415.75806     759.6473     481.7474
   1415.74280     756.9799     481.8157   1415.74280     756.9799     481.8157
   1415.72754     757.5481     481.9576   1415.72754     757.5481     481.9576
   1415.71228     757.2897     481.3914   1415.71228     757.2897     481.3914
   1415.69702     754.6357     480.3975   1415.69702     754.6357     480.3975
   1415.68176     756.1562     480.3670   1415.68176     756.1562     480.3670
   1415.66650     754.6398     479.3451   1415.66650     754.6398     479.3451
   1415.65125     753.9158     479.7482   1415.65125     753.9158     479.7482
   1415.63599     753.0502     479.5702   1415.63599     753.0502     479.5702
   1415.62073     751.3153     477.8277   1415.62073     751.3153     477.8277
   1415.60547     750.1398     478.1976   1415.60547     750.1398     478.1976
   1415.59021     750.7792     478.2697   1415.59021     750.7792     478.2697
   1415.57495     749.2552     477.5685   1415.57495     749.2552     477.5685
   1415.55969     748.5370     477.8851   1415.55969     748.5370     477.8851
   1415.54443     746.5591     477.4573   1415.54443     746.5591     477.4573
   1415.52917     747.2471     476.5930   1415.52917     747.2471     476.5930
   1415.51392     745.5040     475.9740   1415.51392     745.5040     475.9740
   1415.49866     743.3135     476.2519   1415.49866     743.3135     476.2519
   1415.48340     743.9873     475.1046   1415.48340     743.9873     475.1046
   1415.46814     742.0614     475.1675   1415.46814     742.0614     475.1675
   1415.45288     742.0995     474.3432   1415.45288     742.0995     474.3432
   1415.43762     741.0522     474.4659   1415.43762     741.0522     474.4659
   1415.42236     739.1102     474.0500   1415.42236     739.1102     474.0500
   1415.40710     737.9141     472.9779   1415.40710     737.9141     472.9779
   1415.39185     736.1488     473.7933   1415.39185     736.1488     473.7933
   1415.37659     735.5341     472.6206   1415.37659     735.5341     472.6206
   1415.36133     734.5274     471.7219   1415.36133     734.5274     471.7219
   1415.34607     733.8736     471.4259   1415.34607     733.8736     471.4259
   1415.33081     732.6359     470.6127   1415.33081     732.6359     470.6127
   1415.31555     731.1150     470.3458   1415.31555     731.1150     470.3458
   1415.30029     730.8854     470.1129   1415.30029     730.8854     470.1129
   1415.28503     729.1225     470.2252   1415.28503     729.1225     470.2252
   1415.26978     726.3121     469.1907   1415.26978     726.3121     469.1907
   1415.25452     725.8914     469.3202   1415.25452     725.8914     469.3202
   1415.23926     725.8303     467.9887   1415.23926     725.8303     467.9887
   1415.22400     723.9015     467.5538   1415.22400     723.9015     467.5538
   1415.20874     722.7814     467.6788   1415.20874     722.7814     467.6788
   1415.19348     721.2900     466.8085   1415.19348     721.2900     466.8085
   1415.17822     720.7751     467.0797   1415.17822     720.7751     467.0797
   1415.16296     719.2742     466.4455   1415.16296     719.2742     466.4455
   1415.14771     717.7220     465.3471   1415.14771     717.7220     465.3471
   1415.13245     715.4795     464.7666   1415.13245     715.4795     464.7666
   1415.11719     714.5168     464.1136   1415.11719     714.5168     464.1136
   1415.10193     712.4356     463.7332   1415.10193     712.4356     463.7332
   1415.08667     711.7811     463.6401   1415.08667     711.7811     463.6401
   1415.07141     709.4034     462.0307   1415.07141     709.4034     462.0307
   1415.05615     708.1334     461.3274   1415.05615     708.1334     461.3274
   1415.04089     706.9461     460.7626   1415.04089     706.9461     460.7626
   1415.02563     705.7778     460.6805   1415.02563     705.7778     460.6805
   1415.01038     704.0616     459.3416   1415.01038     704.0616     459.3416
   1414.99512     701.5081     459.0074   1414.99512     701.5081     459.0074
   1414.97986     700.6892     458.5049   1414.97986     700.6892     458.5049
   1414.96460     699.1847     457.9545   1414.96460     699.1847     457.9545
   1414.94934     697.8931     457.8544   1414.94934     697.8931     457.8544
   1414.93408     695.4216     456.5319   1414.93408     695.4216     456.5319
   1414.91882     693.0755     455.2131   1414.91882     693.0755     455.2131
   1414.90356     693.0044     455.8378   1414.90356     693.0044     455.8378
   1414.88831     690.3829     454.0339   1414.88831     690.3829     454.0339
   1414.87305     688.5527     453.5436   1414.87305     688.5527     453.5436
   1414.85779     686.0684     452.9537   1414.85779     686.0684     452.9537
   1414.84253     685.4375     452.0923   1414.84253     685.4375     452.0923
   1414.82727     683.5821     451.3665   1414.82727     683.5821     451.3665
   1414.81201     681.1667     451.1264   1414.81201     681.1667     451.1264
   1414.79675     679.7155     450.1925   1414.79675     679.7155     450.1925
   1414.78149     679.0820     449.7108   1414.78149     679.0820     449.7108
   1414.76624     676.5102     448.6434   1414.76624     676.5102     448.6434
   1414.75098     673.5197     448.0773   1414.75098     673.5197     448.0773
   1414.73572     672.2524     447.4427   1414.73572     672.2524     447.4427
   1414.72046     669.9302     445.9234   1414.72046     669.9302     445.9234
   1414.70520     667.1843     445.0549   1414.70520     667.1843     445.0549
   1414.68994     665.6865     444.1738   1414.68994     665.6865     444.1738
   1414.67468     663.6544     444.1380   1414.67468     663.6544     444.1380
   1414.65942     662.3110     442.5836   1414.65942     662.3110     442.5836
   1414.64417     658.9373     441.8202   1414.64417     658.9373     441.8202
   1414.62891     657.2866     441.0934   1414.62891     657.2866     441.0934
   1414.61365     655.9373     439.6053   1414.61365     655.9373     439.6053
   1414.59839     653.3533     439.0015   1414.59839     653.3533     439.0015
   1414.58313     651.6566     438.7551   1414.58313     651.6566     438.7551
   1414.56787     649.3972     437.1084   1414.56787     649.3972     437.1084
   1414.55261     646.8450     436.2188   1414.55261     646.8450     436.2188
   1414.53735     645.9003     435.0409   1414.53735     645.9003     435.0409
   1414.52209     642.2801     433.9790   1414.52209     642.2801     433.9790
   1414.50684     640.8616     433.1369   1414.50684     640.8616     433.1369
   1414.49158     637.0934     432.4695   1414.49158     637.0934     432.4695
   1414.47632     636.5540     430.9190   1414.47632     636.5540     430.9190
   1414.46106     633.6835     429.8947   1414.46106     633.6835     429.8947
   1414.44580     631.2960     429.9045   1414.44580     631.2960     429.9045
   1414.43054     627.3327     427.7007   1414.43054     627.3327     427.7007
   1414.41528     625.7589     427.4175   1414.41528     625.7589     427.4175
   1414.40002     624.4830     425.9601   1414.40002     624.4830     425.9601
   1414.38477     621.1170     424.9523   1414.38477     621.1170     424.9523
   1414.36951     618.2139     423.4487   1414.36951     618.2139     423.4487
   1414.35425     616.3213     422.9982   1414.35425     616.3213     422.9982
   1414.33899     614.3516     421.4097   1414.33899     614.3516     421.4097
   1414.32373     611.6705     420.4928   1414.32373     611.6705     420.4928
   1414.30847     608.5550     419.4476   1414.30847     608.5550     419.4476
   1414.29321     605.7714     418.2174   1414.29321     605.7714     418.2174
   1414.27795     604.1544     417.6407   1414.27795     604.1544     417.6407
   1414.26270     599.7844     415.4406   1414.26270     599.7844     415.4406
   1414.24744     598.5767     414.3044   1414.24744     598.5767     414.3044
   1414.23218     595.0585     413.9670   1414.23218     595.0585     413.9670
   1414.21692     593.5406     412.1555   1414.21692     593.5406     412.1555
   1414.20166     590.2355     411.5510   1414.20166     590.2355     411.5510
   1414.18640     588.8107     409.6209   1414.18640     588.8107     409.6209
   1414.17114     584.8538     408.4083   1414.17114     584.8538     408.4083
   1414.15588     582.8595     407.6646   1414.15588     582.8595     407.6646
   1414.14062     580.1906     405.7511   1414.14062     580.1906     405.7511
   1414.12537     576.2789     403.7552   1414.12537     576.2789     403.7552
   1414.11011     574.1974     403.5993   1414.11011     574.1974     403.5993
   1414.09485     571.1959     401.7928   1414.09485     571.1959     401.7928
   1414.07959     568.5469     401.3293   1414.07959     568.5469     401.3293
   1414.06433     566.4062     399.6983   1414.06433     566.4062     399.6983
   1414.04907     563.9643     398.1469   1414.04907     563.9643     398.1469
   1414.03381     561.3687     396.8828   1414.03381     561.3687     396.8828
   1414.01855     558.7897     396.3539   1414.01855     558.7897     396.3539
   1414.00330     577.7394     402.6930   1414.00330     577.7394     402.6930
   1413.98804     553.9585     393.8376   1413.98804     553.9585     393.8376
   1413.97278     549.8249     392.0505   1413.97278     549.8249     392.0505
   1413.95752     546.4978     389.6891   1413.95752     546.4978     389.6891
   1413.94226     543.4705     388.9146   1413.94226     543.4705     388.9146
   1413.92700     540.3084     387.3605   1413.92700     540.3084     387.3605
   1413.91174     537.8232     385.8494   1413.91174     537.8232     385.8494
   1413.89648     535.1635     384.9973   1413.89648     535.1635     384.9973
   1413.88123     532.1894     383.3800   1413.88123     532.1894     383.3800
   1413.86597     530.0337     381.5626   1413.86597     530.0337     381.5626
   1413.85071     526.8204     380.3973   1413.85071     526.8204     380.3973
   1413.83545     522.9991     378.1714   1413.83545     522.9991     378.1714
   1413.82019     520.5391     377.2993   1413.82019     520.5391     377.2993
   1413.80493     517.2977     376.5567   1413.80493     517.2977     376.5567
   1413.78967     514.9260     374.8867   1413.78967     514.9260     374.8867
   1413.77441     512.1124     373.0645   1413.77441     512.1124     373.0645
   1413.75916     508.8311     371.7448   1413.75916     508.8311     371.7448
   1413.74390     505.2017     369.6307   1413.74390     505.2017     369.6307
   1413.72864     503.0440     368.3566   1413.72864     503.0440     368.3566
   1413.71338     500.2209     366.8575   1413.71338     500.2209     366.8575
   1413.69812     496.9395     366.1129   1413.69812     496.9395     366.1129
   1413.68286     493.8362     364.3939   1413.68286     493.8362     364.3939
   1413.66760     491.0786     362.8056   1413.66760     491.0786     362.8056
   1413.65234     488.9073     361.3444   1413.65234     488.9073     361.3444
   1413.63708     485.6710     360.1238   1413.63708     485.6710     360.1238
   1413.62183     482.5277     357.9198   1413.62183     482.5277     357.9198
   1413.60657     479.9082     357.0322   1413.60657     479.9082     357.0322
   1413.59131     477.3162     354.9093   1413.59131     477.3162     354.9093
   1413.57605     473.6992     353.8946   1413.57605     473.6992     353.8946
   1413.56079     471.7000     351.8153   1413.56079     471.7000     351.8153
   1413.54553     468.2625     351.0179   1413.54553     468.2625     351.0179
   1413.53027     465.9434     349.1436   1413.53027     465.9434     349.1436
   1413.51501     462.5341     348.3598   1413.51501     462.5341     348.3598
   1413.49976     459.5723     346.0517   1413.49976     459.5723     346.0517
   1413.48450     457.3230     344.8420   1413.48450     457.3230     344.8420
   1413.46924     454.7704     342.9949   1413.46924     454.7704     342.9949
   1413.45398     451.5151     341.9362   1413.45398     451.5151     341.9362
   1413.43872     448.4539     339.7899   1413.43872     448.4539     339.7899
   1413.42346     445.9697     338.6635   1413.42346     445.9697     338.6635
   1413.40820     443.3105     336.9046   1413.40820     443.3105     336.9046
   1413.39294     440.3113     335.4126   1413.39294     440.3113     335.4126
   1413.37769     438.2353     334.4097   1413.37769     438.2353     334.4097
   1413.36243     435.2105     332.5935   1413.36243     435.2105     332.5935
   1413.34717     432.5680     330.8805   1413.34717     432.5680     330.8805
   1413.33191     429.0538     329.8547   1413.33191     429.0538     329.8547
   1413.31665     427.3718     328.5289   1413.31665     427.3718     328.5289
   1413.30139     424.2929     327.1441   1413.30139     424.2929     327.1441
   1413.28613     422.1744     325.4216   1413.28613     422.1744     325.4216
   1413.27087     418.9532     323.8053   1413.27087     418.9532     323.8053
   1413.25562     416.7640     322.6345   1413.25562     416.7640     322.6345
   1413.24036     413.9614     320.8235   1413.24036     413.9614     320.8235
   1413.22510     411.9775     320.0457   1413.22510     411.9775     320.0457
   1413.20984     409.4734     318.7569   1413.20984     409.4734     318.7569
   1413.19458     407.0813     316.6542   1413.19458     407.0813     316.6542
   1413.17932     403.8545     315.7985   1413.17932     403.8545     315.7985
   1413.16406     402.5772     314.5329   1413.16406     402.5772     314.5329
   1413.14880     399.5574     313.1555   1413.14880     399.5574     313.1555
   1413.13354     397.3450     311.6801   1413.13354     397.3450     311.6801
   1413.11829     395.5737     310.1265   1413.11829     395.5737     310.1265
   1413.10303     393.5258     309.2866   1413.10303     393.5258     309.2866
   1413.08777     391.3130     307.7316   1413.08777     391.3130     307.7316
   1413.07251     388.4259     306.3315   1413.07251     388.4259     306.3315
   1413.05725     386.1185     305.3880   1413.05725     386.1185     305.3880
   1413.04199     384.0235     303.5372   1413.04199     384.0235     303.5372
   1413.02673     382.2451     302.4178   1413.02673     382.2451     302.4178
   1413.01147     379.5152     301.5317   1413.01147     379.5152     301.5317
   1412.99622     377.8441     300.1471   1412.99622     377.8441     300.1471
   1412.98096     376.0477     299.1599   1412.98096     376.0477     299.1599
   1412.96570     374.3652     298.2039   1412.96570     374.3652     298.2039
   1412.95044     372.3836     297.2296   1412.95044     372.3836     297.2296
   1412.93518     370.1951     295.3262   1412.93518     370.1951     295.3262
   1412.91992     368.1864     294.5213   1412.91992     368.1864     294.5213
   1412.90466     366.6372     293.6007   1412.90466     366.6372     293.6007
   1412.88940     364.6111     292.4720   1412.88940     364.6111     292.4720
   1412.87415     362.9569     291.3114   1412.87415     362.9569     291.3114
   1412.85889     362.0407     290.5602   1412.85889     362.0407     290.5602
   1412.84363     359.8032     289.3581   1412.84363     359.8032     289.3581
   1412.82837     358.3551     288.8947   1412.82837     358.3551     288.8947
   1412.81311     357.3176     287.8710   1412.81311     357.3176     287.8710
   1412.79785     355.2959     286.3858   1412.79785     355.2959     286.3858
   1412.78259     354.1619     285.9305   1412.78259     354.1619     285.9305
   1412.76733     351.9171     285.1011   1412.76733     351.9171     285.1011
   1412.75208     351.3503     284.5126   1412.75208     351.3503     284.5126
   1412.73682     349.8483     283.7690   1412.73682     349.8483     283.7690
   1412.72156     348.5307     282.9401   1412.72156     348.5307     282.9401
   1412.70630     346.7978     282.1609   1412.70630     346.7978     282.1609
   1412.69104     346.6386     281.3434   1412.69104     346.6386     281.3434
   1412.67578     345.0507     281.0470   1412.67578     345.0507     281.0470
   1412.66052     344.3183     279.7878   1412.66052     344.3183     279.7878
   1412.64526     342.8275     280.1187   1412.64526     342.8275     280.1187
   1412.63000     341.7875     279.1836   1412.63000     341.7875     279.1836
   1412.61475     340.4393     278.7270   1412.61475     340.4393     278.7270
   1412.59949     339.7666     277.9720   1412.59949     339.7666     277.9720
   1412.58423     339.1918     278.2275   1412.58423     339.1918     278.2275
   1412.56897     338.0248     277.6384   1412.56897     338.0248     277.6384
   1412.55371     337.9100     277.2493   1412.55371     337.9100     277.2493
   1412.53845     336.9868     276.4826   1412.53845     336.9868     276.4826
   1412.52319     336.2024     276.1666   1412.52319     336.2024     276.1666
   1412.50793     335.5395     276.3754   1412.50793     335.5395     276.3754
   1412.49268     335.2535     275.6751   1412.49268     335.2535     275.6751
   1412.47742     334.3629     275.9571   1412.47742     334.3629     275.9571
   1412.46216     333.8690     275.7117   1412.46216     333.8690     275.7117
   1412.44690     333.5399     274.9888   1412.44690     333.5399     274.9888
   1412.43164     333.1363     275.2039   1412.43164     333.1363     275.2039
   1412.41638     332.9146     275.4218   1412.41638     332.9146     275.4218
   1412.40112     333.1936     275.1053   1412.40112     333.1936     275.1053
   1412.38586     332.5955     275.4464   1412.38586     332.5955     275.4464
   1412.37061     332.9615     275.5099   1412.37061     332.9615     275.5099
   1412.35535     332.5989     275.2595   1412.35535     332.5989     275.2595
   1412.34009     332.6292     276.0845   1412.34009     332.6292     276.0845
   1412.32483     331.9457     276.5456   1412.32483     331.9457     276.5456
   1412.30957     332.7523     276.6677   1412.30957     332.7523     276.6677
   1412.29431     332.8415     276.8201   1412.29431     332.8415     276.8201
   1412.27905     332.8613     277.1311   1412.27905     332.8613     277.1311
   1412.26379     333.4438     277.3757   1412.26379     333.4438     277.3757
   1412.24854     333.2219     278.3373   1412.24854     333.2219     278.3373
   1412.23328     334.1403     278.5520   1412.23328     334.1403     278.5520
   1412.21802     333.8674     279.0428   1412.21802     333.8674     279.0428
   1412.20276     334.5599     279.1823   1412.20276     334.5599     279.1823