#     FILENAME=!Skynet_57528_lach-hhg-112_20382_20919.cyb.fits
#     BASENAME=Skynet_57528_lach-hhg-112_20382_20919
#     SRC_NAME=lach-hhg-112
#     OBSERVER=hhgmadison16_9500
#     DATE_OBS=2016-05-20T15:47:23.430
#        OBSID=20382
#      SCANNUM=20919
#          MJD=57528.6590
#          UTC=56933
#     SCANTYPE=track
#     DATAMODE=HIRES
#     TUNEFREQ=1420.0000
# Actual_FREQ1=1420.0000
# Actual_FREQ2=1420.0000
#    LO1Tuning=6870.000
#     RFFILTER=1355_1435
#        OBSBW=-15.6250
#        NCHAN=1024 
#        FOCUS=37.0709
#           RA=23:19:39.34
#          DEC=60:54:28.50
#      RA(hrs)=23.327600
#     DEC(deg)=60.907900
#    AZIM(deg)=323.303
#    ELEV(deg)=53.903
#     IFattens=11.00, 10.00
#      WARNING=None
#    TCAL_XL1=7.9635
#    TCAL_YR1=9.1340
#    TCAL_XL2=7.9635
#    TCAL_YR2=9.1340
#     TRX_XL1=11.7060
#     TRX_YR1=11.7060
#     TRX_XL2=11.7060
#     TRX_YR2=11.7060
#        TAVE=1.0000
#Freq1(MHz)          XL1          YR1  Freq2(MHz)          XL2          YR2 

   1427.81250     309.8677     239.8451   1427.81250     309.8677     239.8451
   1427.79724     309.9704     240.2353   1427.79724     309.9704     240.2353
   1427.78198     310.8176     241.2551   1427.78198     310.8176     241.2551
   1427.76672     311.5629     241.9871   1427.76672     311.5629     241.9871
   1427.75146     312.2534     242.8601   1427.75146     312.2534     242.8601
   1427.73621     312.5549     243.2409   1427.73621     312.5549     243.2409
   1427.72095     313.6690     244.2784   1427.72095     313.6690     244.2784
   1427.70569     313.7747     245.1578   1427.70569     313.7747     245.1578
   1427.69043     315.1762     246.2322   1427.69043     315.1762     246.2322
   1427.67517     315.7289     247.1074   1427.67517     315.7289     247.1074
   1427.65991     316.7511     248.2055   1427.65991     316.7511     248.2055
   1427.64465     318.2838     249.4561   1427.64465     318.2838     249.4561
   1427.62939     318.8709     250.2207   1427.62939     318.8709     250.2207
   1427.61414     320.0859     251.1216   1427.61414     320.0859     251.1216
   1427.59888     321.2072     252.1376   1427.59888     321.2072     252.1376
   1427.58362     322.3317     253.2473   1427.58362     322.3317     253.2473
   1427.56836     323.7238     254.5151   1427.56836     323.7238     254.5151
   1427.55310     324.7092     255.4232   1427.55310     324.7092     255.4232
   1427.53784     326.3812     256.8128   1427.53784     326.3812     256.8128
   1427.52258     327.1175     257.9039   1427.52258     327.1175     257.9039
   1427.50732     329.0898     259.3453   1427.50732     329.0898     259.3453
   1427.49207     329.9117     260.9924   1427.49207     329.9117     260.9924
   1427.47681     331.6277     261.9903   1427.47681     331.6277     261.9903
   1427.46155     333.3411     262.9373   1427.46155     333.3411     262.9373
   1427.44629     334.4559     265.1712   1427.44629     334.4559     265.1712
   1427.43103     336.3001     266.2955   1427.43103     336.3001     266.2955
   1427.41577     337.4497     267.4866   1427.41577     337.4497     267.4866
   1427.40051     339.3022     268.5456   1427.40051     339.3022     268.5456
   1427.38525     341.2441     270.1514   1427.38525     341.2441     270.1514
   1427.37000     342.4375     272.0030   1427.37000     342.4375     272.0030
   1427.35474     344.7325     273.3827   1427.35474     344.7325     273.3827
   1427.33948     345.9812     274.9679   1427.33948     345.9812     274.9679
   1427.32422     348.0893     276.7104   1427.32422     348.0893     276.7104
   1427.30896     349.4862     277.7462   1427.30896     349.4862     277.7462
   1427.29370     351.3723     279.4157   1427.29370     351.3723     279.4157
   1427.27844     353.3732     281.1966   1427.27844     353.3732     281.1966
   1427.26318     355.6328     282.4904   1427.26318     355.6328     282.4904
   1427.24792     356.6614     284.5373   1427.24792     356.6614     284.5373
   1427.23267     358.9045     285.6056   1427.23267     358.9045     285.6056
   1427.21741     362.1753     287.5959   1427.21741     362.1753     287.5959
   1427.20215     363.9818     289.2551   1427.20215     363.9818     289.2551
   1427.18689     365.2392     290.8805   1427.18689     365.2392     290.8805
   1427.17163     367.6335     292.6595   1427.17163     367.6335     292.6595
   1427.15637     369.7590     294.3889   1427.15637     369.7590     294.3889
   1427.14111     371.6897     296.4338   1427.14111     371.6897     296.4338
   1427.12585     374.1506     298.0503   1427.12585     374.1506     298.0503
   1427.11060     376.0983     299.6337   1427.11060     376.0983     299.6337
   1427.09534     378.4502     301.4643   1427.09534     378.4502     301.4643
   1427.08008     380.7011     303.4005   1427.08008     380.7011     303.4005
   1427.06482     383.3568     305.3677   1427.06482     383.3568     305.3677
   1427.04956     385.5211     307.2742   1427.04956     385.5211     307.2742
   1427.03430     387.8204     308.4889   1427.03430     387.8204     308.4889
   1427.01904     389.6132     310.6541   1427.01904     389.6132     310.6541
   1427.00378     391.8843     312.8776   1427.00378     391.8843     312.8776
   1426.98853     394.7951     314.2421   1426.98853     394.7951     314.2421
   1426.97327     397.2354     316.2860   1426.97327     397.2354     316.2860
   1426.95801     399.4063     317.6899   1426.95801     399.4063     317.6899
   1426.94275     401.6974     320.0104   1426.94275     401.6974     320.0104
   1426.92749     403.7113     321.5197   1426.92749     403.7113     321.5197
   1426.91223     407.0089     323.3831   1426.91223     407.0089     323.3831
   1426.89697     409.7832     325.7531   1426.89697     409.7832     325.7531
   1426.88171     411.7647     327.5221   1426.88171     411.7647     327.5221
   1426.86646     414.6648     328.9345   1426.86646     414.6648     328.9345
   1426.85120     416.8047     331.0836   1426.85120     416.8047     331.0836
   1426.83594     419.1801     333.4608   1426.83594     419.1801     333.4608
   1426.82068     422.4879     335.1903   1426.82068     422.4879     335.1903
   1426.80542     424.5541     336.6486   1426.80542     424.5541     336.6486
   1426.79016     427.0198     338.6046   1426.79016     427.0198     338.6046
   1426.77490     429.8104     340.4614   1426.77490     429.8104     340.4614
   1426.75964     432.2185     342.5595   1426.75964     432.2185     342.5595
   1426.74438     435.3405     344.1673   1426.74438     435.3405     344.1673
   1426.72913     437.1400     346.1548   1426.72913     437.1400     346.1548
   1426.71387     438.6180     347.9289   1426.71387     438.6180     347.9289
   1426.69861     441.9166     349.6607   1426.69861     441.9166     349.6607
   1426.68335     445.2070     351.4418   1426.68335     445.2070     351.4418
   1426.66809     447.1307     353.2355   1426.66809     447.1307     353.2355
   1426.65283     449.9050     355.4870   1426.65283     449.9050     355.4870
   1426.63757     451.9867     357.3912   1426.63757     451.9867     357.3912
   1426.62231     455.1062     360.1175   1426.62231     455.1062     360.1175
   1426.60706     457.4250     361.1695   1426.60706     457.4250     361.1695
   1426.59180     459.2596     362.6848   1426.59180     459.2596     362.6848
   1426.57654     462.8015     364.8182   1426.57654     462.8015     364.8182
   1426.56128     465.3936     366.1242   1426.56128     465.3936     366.1242
   1426.54602     467.2898     368.3102   1426.54602     467.2898     368.3102
   1426.53076     469.6518     370.2791   1426.53076     469.6518     370.2791
   1426.51550     472.7813     372.0701   1426.51550     472.7813     372.0701
   1426.50024     475.1830     373.3845   1426.50024     475.1830     373.3845
   1426.48499     477.2513     375.2836   1426.48499     477.2513     375.2836
   1426.46973     480.1575     377.2219   1426.46973     480.1575     377.2219
   1426.45447     482.6895     378.8309   1426.45447     482.6895     378.8309
   1426.43921     485.1104     380.4224   1426.43921     485.1104     380.4224
   1426.42395     487.8456     382.7246   1426.42395     487.8456     382.7246
   1426.40869     490.6922     384.5764   1426.40869     490.6922     384.5764
   1426.39343     492.9596     385.5362   1426.39343     492.9596     385.5362
   1426.37817     494.4057     388.3859   1426.37817     494.4057     388.3859
   1426.36292     497.5695     389.3690   1426.36292     497.5695     389.3690
   1426.34766     499.7967     390.7601   1426.34766     499.7967     390.7601
   1426.33240     502.4836     393.0138   1426.33240     502.4836     393.0138
   1426.31714     503.8789     394.4118   1426.31714     503.8789     394.4118
   1426.30188     507.0980     395.8640   1426.30188     507.0980     395.8640
   1426.28662     509.0829     397.2774   1426.28662     509.0829     397.2774
   1426.27136     511.6464     398.7804   1426.27136     511.6464     398.7804
   1426.25610     513.2670     400.9689   1426.25610     513.2670     400.9689
   1426.24084     516.3079     401.9160   1426.24084     516.3079     401.9160
   1426.22559     518.5662     403.5861   1426.22559     518.5662     403.5861
   1426.21033     520.9157     405.1201   1426.21033     520.9157     405.1201
   1426.19507     523.5684     406.0840   1426.19507     523.5684     406.0840
   1426.17981     524.8728     408.7027   1426.17981     524.8728     408.7027
   1426.16455     528.2919     410.1010   1426.16455     528.2919     410.1010
   1426.14929     530.1308     412.0418   1426.14929     530.1308     412.0418
   1426.13403     531.4067     413.2729   1426.13403     531.4067     413.2729
   1426.11877     534.0815     415.2667   1426.11877     534.0815     415.2667
   1426.10352     536.3249     416.2418   1426.10352     536.3249     416.2418
   1426.08826     538.1055     417.7821   1426.08826     538.1055     417.7821
   1426.07300     540.2170     418.1616   1426.07300     540.2170     418.1616
   1426.05774     542.4462     421.0385   1426.05774     542.4462     421.0385
   1426.04248     543.9208     422.2970   1426.04248     543.9208     422.2970
   1426.02722     546.2225     423.4017   1426.02722     546.2225     423.4017
   1426.01196     548.6738     425.3211   1426.01196     548.6738     425.3211
   1425.99670     550.3218     425.9127   1425.99670     550.3218     425.9127
   1425.98145     552.2958     426.9844   1425.98145     552.2958     426.9844
   1425.96619     554.1404     427.7737   1425.96619     554.1404     427.7737
   1425.95093     555.6268     430.7058   1425.95093     555.6268     430.7058
   1425.93567     557.6674     431.8785   1425.93567     557.6674     431.8785
   1425.92041     559.5848     433.0349   1425.92041     559.5848     433.0349
   1425.90515     560.8098     434.0291   1425.90515     560.8098     434.0291
   1425.88989     564.1669     435.4911   1425.88989     564.1669     435.4911
   1425.87463     565.7308     436.7708   1425.87463     565.7308     436.7708
   1425.85938     566.9701     437.8826   1425.85938     566.9701     437.8826
   1425.84412     568.9155     439.1221   1425.84412     568.9155     439.1221
   1425.82886     570.2456     440.3543   1425.82886     570.2456     440.3543
   1425.81360     571.9648     441.8177   1425.81360     571.9648     441.8177
   1425.79834     573.5168     443.5086   1425.79834     573.5168     443.5086
   1425.78308     576.0569     443.8843   1425.78308     576.0569     443.8843
   1425.76782     576.6245     445.2516   1425.76782     576.6245     445.2516
   1425.75256     578.0416     446.4850   1425.75256     578.0416     446.4850
   1425.73730     579.9169     448.0760   1425.73730     579.9169     448.0760
   1425.72205     581.3087     449.2748   1425.72205     581.3087     449.2748
   1425.70679     583.1799     450.0482   1425.70679     583.1799     450.0482
   1425.69153     584.3336     450.7104   1425.69153     584.3336     450.7104
   1425.67627     586.6017     453.0200   1425.67627     586.6017     453.0200
   1425.66101     587.0795     453.7147   1425.66101     587.0795     453.7147
   1425.64575     588.6100     454.3794   1425.64575     588.6100     454.3794
   1425.63049     590.4809     456.4803   1425.63049     590.4809     456.4803
   1425.61523     590.9941     456.8308   1425.61523     590.9941     456.8308
   1425.59998     592.8627     458.0754   1425.59998     592.8627     458.0754
   1425.58472     594.2905     459.5774   1425.58472     594.2905     459.5774
   1425.56946     594.6451     460.8117   1425.56946     594.6451     460.8117
   1425.55420     596.3148     460.9358   1425.55420     596.3148     460.9358
   1425.53894     598.4380     462.5392   1425.53894     598.4380     462.5392
   1425.52368     597.8624     463.1385   1425.52368     597.8624     463.1385
   1425.50842     599.8060     463.2716   1425.50842     599.8060     463.2716
   1425.49316     601.5554     464.6420   1425.49316     601.5554     464.6420
   1425.47791     601.9915     466.6401   1425.47791     601.9915     466.6401
   1425.46265     602.8500     466.6093   1425.46265     602.8500     466.6093
   1425.44739     605.4031     467.4226   1425.44739     605.4031     467.4226
   1425.43213     605.9289     469.1013   1425.43213     605.9289     469.1013
   1425.41687     607.0015     470.4143   1425.41687     607.0015     470.4143
   1425.40161     607.5778     470.4171   1425.40161     607.5778     470.4171
   1425.38635     607.9933     472.2958   1425.38635     607.9933     472.2958
   1425.37109     608.9399     472.4919   1425.37109     608.9399     472.4919
   1425.35583     609.7941     473.5836   1425.35583     609.7941     473.5836
   1425.34058     611.2640     474.6569   1425.34058     611.2640     474.6569
   1425.32532     610.9174     475.2087   1425.32532     610.9174     475.2087
   1425.31006     612.2003     475.7567   1425.31006     612.2003     475.7567
   1425.29480     612.9747     476.8084   1425.29480     612.9747     476.8084
   1425.27954     614.2725     477.8933   1425.27954     614.2725     477.8933
   1425.26428     615.3741     477.9994   1425.26428     615.3741     477.9994
   1425.24902     616.0025     479.8387   1425.24902     616.0025     479.8387
   1425.23376     616.1426     480.3965   1425.23376     616.1426     480.3965
   1425.21851     617.4836     481.6572   1425.21851     617.4836     481.6572
   1425.20325     618.1890     481.5935   1425.20325     618.1890     481.5935
   1425.18799     618.7538     482.3131   1425.18799     618.7538     482.3131
   1425.17273     619.9253     483.3912   1425.17273     619.9253     483.3912
   1425.15747     619.4504     483.7985   1425.15747     619.4504     483.7985
   1425.14221     620.4736     485.4890   1425.14221     620.4736     485.4890
   1425.12695     621.4697     485.4300   1425.12695     621.4697     485.4300
   1425.11169     622.0276     486.2151   1425.11169     622.0276     486.2151
   1425.09644     621.7234     488.0509   1425.09644     621.7234     488.0509
   1425.08118     622.6351     488.1956   1425.08118     622.6351     488.1956
   1425.06592     623.5618     488.6188   1425.06592     623.5618     488.6188
   1425.05066     624.1592     489.7130   1425.05066     624.1592     489.7130
   1425.03540     624.2531     490.1640   1425.03540     624.2531     490.1640
   1425.02014     625.0533     491.0498   1425.02014     625.0533     491.0498
   1425.00488     624.8408     491.7893   1425.00488     624.8408     491.7893
   1424.98962     625.8331     492.6773   1424.98962     625.8331     492.6773
   1424.97437     624.9430     492.2300   1424.97437     624.9430     492.2300
   1424.95911     625.8069     493.4872   1424.95911     625.8069     493.4872
   1424.94385     625.5348     495.0183   1424.94385     625.5348     495.0183
   1424.92859     626.5424     494.2581   1424.92859     626.5424     494.2581
   1424.91333     626.6601     495.3686   1424.91333     626.6601     495.3686
   1424.89807     626.6362     496.1724   1424.89807     626.6362     496.1724
   1424.88281     627.1604     497.1295   1424.88281     627.1604     497.1295
   1424.86755     627.3394     498.4851   1424.86755     627.3394     498.4851
   1424.85229     628.4301     497.4388   1424.85229     628.4301     497.4388
   1424.83704     627.9794     499.0323   1424.83704     627.9794     499.0323
   1424.82178     628.2769     499.0534   1424.82178     628.2769     499.0534
   1424.80652     627.6786     499.3510   1424.80652     627.6786     499.3510
   1424.79126     627.3763     499.5016   1424.79126     627.3763     499.5016
   1424.77600     627.8378     500.5066   1424.77600     627.8378     500.5066
   1424.76074     629.2685     501.1450   1424.76074     629.2685     501.1450
   1424.74548     628.6096     502.1268   1424.74548     628.6096     502.1268
   1424.73022     628.7701     502.3898   1424.73022     628.7701     502.3898
   1424.71497     628.7020     503.0924   1424.71497     628.7020     503.0924
   1424.69971     629.6986     503.5791   1424.69971     629.6986     503.5791
   1424.68445     629.7064     504.2480   1424.68445     629.7064     504.2480
   1424.66919     629.3961     504.3975   1424.66919     629.3961     504.3975
   1424.65393     629.0223     506.0217   1424.65393     629.0223     506.0217
   1424.63867     629.9343     505.7654   1424.63867     629.9343     505.7654
   1424.62341     629.5615     505.5220   1424.62341     629.5615     505.5220
   1424.60815     629.1981     507.0679   1424.60815     629.1981     507.0679
   1424.59290     629.0104     507.2219   1424.59290     629.0104     507.2219
   1424.57764     629.6390     507.7659   1424.57764     629.6390     507.7659
   1424.56238     629.7059     508.5716   1424.56238     629.7059     508.5716
   1424.54712     630.0484     508.9981   1424.54712     630.0484     508.9981
   1424.53186     629.2231     509.0236   1424.53186     629.2231     509.0236
   1424.51660     629.2957     509.5078   1424.51660     629.2957     509.5078
   1424.50134     628.2313     509.1674   1424.50134     628.2313     509.1674
   1424.48608     629.2546     509.8853   1424.48608     629.2546     509.8853
   1424.47083     629.5869     510.7117   1424.47083     629.5869     510.7117
   1424.45557     628.3300     511.4620   1424.45557     628.3300     511.4620
   1424.44031     628.2239     512.3226   1424.44031     628.2239     512.3226
   1424.42505     629.7142     511.5148   1424.42505     629.7142     511.5148
   1424.40979     627.9172     512.2849   1424.40979     627.9172     512.2849
   1424.39453     629.7155     513.3707   1424.39453     629.7155     513.3707
   1424.37927     627.3253     513.7019   1424.37927     627.3253     513.7019
   1424.36401     628.4877     514.3432   1424.36401     628.4877     514.3432
   1424.34875     628.2280     514.2515   1424.34875     628.2280     514.2515
   1424.33350     627.2947     514.7458   1424.33350     627.2947     514.7458
   1424.31824     628.1465     515.0977   1424.31824     628.1465     515.0977
   1424.30298     627.9293     516.1266   1424.30298     627.9293     516.1266
   1424.28772     627.1467     515.1307   1424.28772     627.1467     515.1307
   1424.27246     626.9777     516.3037   1424.27246     626.9777     516.3037
   1424.25720     626.5938     516.6401   1424.25720     626.5938     516.6401
   1424.24194     627.1503     517.1368   1424.24194     627.1503     517.1368
   1424.22668     626.5714     517.4492   1424.22668     626.5714     517.4492
   1424.21143     626.5269     518.3160   1424.21143     626.5269     518.3160
   1424.19617     626.4636     518.1446   1424.19617     626.4636     518.1446
   1424.18091     626.7357     518.6232   1424.18091     626.7357     518.6232
   1424.16565     625.7172     518.5231   1424.16565     625.7172     518.5231
   1424.15039     625.4008     519.0057   1424.15039     625.4008     519.0057
   1424.13513     625.7064     519.9515   1424.13513     625.7064     519.9515
   1424.11987     625.3680     520.1977   1424.11987     625.3680     520.1977
   1424.10461     624.7080     520.4987   1424.10461     624.7080     520.4987
   1424.08936     624.8054     521.0999   1424.08936     624.8054     521.0999
   1424.07410     624.3281     520.6730   1424.07410     624.3281     520.6730
   1424.05884     623.5225     521.5169   1424.05884     623.5225     521.5169
   1424.04358     623.9868     520.6656   1424.04358     623.9868     520.6656
   1424.02832     624.3629     521.4881   1424.02832     624.3629     521.4881
   1424.01306     623.4493     522.2110   1424.01306     623.4493     522.2110
   1423.99780     622.8627     522.5851   1423.99780     622.8627     522.5851
   1423.98254     623.1219     523.0558   1423.98254     623.1219     523.0558
   1423.96729     623.2681     523.1078   1423.96729     623.2681     523.1078
   1423.95203     622.9915     523.4398   1423.95203     622.9915     523.4398
   1423.93677     622.0971     523.3843   1423.93677     622.0971     523.3843
   1423.92151     622.0819     524.0143   1423.92151     622.0819     524.0143
   1423.90625     622.2676     523.4761   1423.90625     622.2676     523.4761
   1423.89099     621.4011     524.3944   1423.89099     621.4011     524.3944
   1423.87573     621.8224     524.2250   1423.87573     621.8224     524.2250
   1423.86047     622.0750     524.6413   1423.86047     622.0750     524.6413
   1423.84521     619.8995     525.0409   1423.84521     619.8995     525.0409
   1423.82996     620.0465     524.9169   1423.82996     620.0465     524.9169
   1423.81470     619.8225     524.8081   1423.81470     619.8225     524.8081
   1423.79944     620.1144     525.1818   1423.79944     620.1144     525.1818
   1423.78418     620.1245     524.8447   1423.78418     620.1245     524.8447
   1423.76892     619.1884     525.2936   1423.76892     619.1884     525.2936
   1423.75366     619.0294     525.9764   1423.75366     619.0294     525.9764
   1423.73840     618.5730     525.3801   1423.73840     618.5730     525.3801
   1423.72314     619.1860     525.6980   1423.72314     619.1860     525.6980
   1423.70789     618.8435     526.3393   1423.70789     618.8435     526.3393
   1423.69263     617.6678     526.4169   1423.69263     617.6678     526.4169
   1423.67737     618.7151     526.2521   1423.67737     618.7151     526.2521
   1423.66211     618.0470     525.6276   1423.66211     618.0470     525.6276
   1423.64685     618.4618     526.3532   1423.64685     618.4618     526.3532
   1423.63159     617.9555     526.1439   1423.63159     617.9555     526.1439
   1423.61633     616.9326     525.9448   1423.61633     616.9326     525.9448
   1423.60107     616.3328     526.2857   1423.60107     616.3328     526.2857
   1423.58582     616.4183     526.3727   1423.58582     616.4183     526.3727
   1423.57056     616.5470     526.0831   1423.57056     616.5470     526.0831
   1423.55530     616.9794     526.5834   1423.55530     616.9794     526.5834
   1423.54004     616.1273     526.9808   1423.54004     616.1273     526.9808
   1423.52478     615.6411     527.4963   1423.52478     615.6411     527.4963
   1423.50952     615.6725     526.1673   1423.50952     615.6725     526.1673
   1423.49426     616.0743     526.5042   1423.49426     616.0743     526.5042
   1423.47900     615.8176     525.9890   1423.47900     615.8176     525.9890
   1423.46375     614.7195     527.0969   1423.46375     614.7195     527.0969
   1423.44849     614.2158     526.8331   1423.44849     614.2158     526.8331
   1423.43323     614.1815     526.7614   1423.43323     614.1815     526.7614
   1423.41797     614.0520     526.7814   1423.41797     614.0520     526.7814
   1423.40271     613.5823     526.7628   1423.40271     613.5823     526.7628
   1423.38745     612.7458     527.1033   1423.38745     612.7458     527.1033
   1423.37219     613.2370     527.2847   1423.37219     613.2370     527.2847
   1423.35693     613.1982     526.5099   1423.35693     613.1982     526.5099
   1423.34167     613.1439     526.1655   1423.34167     613.1439     526.1655
   1423.32642     612.3887     525.9456   1423.32642     612.3887     525.9456
   1423.31116     612.1813     525.0126   1423.31116     612.1813     525.0126
   1423.29590     612.4506     524.9297   1423.29590     612.4506     524.9297
   1423.28064     611.9916     525.2734   1423.28064     611.9916     525.2734
   1423.26538     611.7284     525.5015   1423.26538     611.7284     525.5015
   1423.25012     611.2261     524.3094   1423.25012     611.2261     524.3094
   1423.23486     611.6777     524.6553   1423.23486     611.6777     524.6553
   1423.21960     610.3325     525.1052   1423.21960     610.3325     525.1052
   1423.20435     610.4828     523.6564   1423.20435     610.4828     523.6564
   1423.18909     610.6543     524.7174   1423.18909     610.6543     524.7174
   1423.17383     609.9556     524.1342   1423.17383     609.9556     524.1342
   1423.15857     610.3160     524.1905   1423.15857     610.3160     524.1905
   1423.14331     609.8365     524.0809   1423.14331     609.8365     524.0809
   1423.12805     609.2055     522.8708   1423.12805     609.2055     522.8708
   1423.11279     609.3129     523.5158   1423.11279     609.3129     523.5158
   1423.09753     610.1999     522.2559   1423.09753     610.1999     522.2559
   1423.08228     608.8655     523.8868   1423.08228     608.8655     523.8868
   1423.06702     607.7217     521.8888   1423.06702     607.7217     521.8888
   1423.05176     608.3644     521.9846   1423.05176     608.3644     521.9846
   1423.03650     607.5424     522.9186   1423.03650     607.5424     522.9186
   1423.02124     607.6913     521.0819   1423.02124     607.6913     521.0819
   1423.00598     608.0773     521.1351   1423.00598     608.0773     521.1351
   1422.99072     606.8049     520.5342   1422.99072     606.8049     520.5342
   1422.97546     607.4601     519.5641   1422.97546     607.4601     519.5641
   1422.96021     608.4058     519.7255   1422.96021     608.4058     519.7255
   1422.94495     607.2578     519.5911   1422.94495     607.2578     519.5911
   1422.92969     606.7434     518.7269   1422.92969     606.7434     518.7269
   1422.91443     606.7111     518.6534   1422.91443     606.7111     518.6534
   1422.89917     606.2325     518.1395   1422.89917     606.2325     518.1395
   1422.88391     606.0096     518.3940   1422.88391     606.0096     518.3940
   1422.86865     605.8302     517.5329   1422.86865     605.8302     517.5329
   1422.85339     605.8442     517.0886   1422.85339     605.8442     517.0886
   1422.83813     605.5669     516.7300   1422.83813     605.5669     516.7300
   1422.82288     605.0743     515.9828   1422.82288     605.0743     515.9828
   1422.80762     605.2699     515.8279   1422.80762     605.2699     515.8279
   1422.79236     604.4553     515.3781   1422.79236     604.4553     515.3781
   1422.77710     604.2164     514.3086   1422.77710     604.2164     514.3086
   1422.76184     603.9309     513.7184   1422.76184     603.9309     513.7184
   1422.74658     604.0994     513.2284   1422.74658     604.0994     513.2284
   1422.73132     603.9784     512.6258   1422.73132     603.9784     512.6258
   1422.71606     603.7909     513.0612   1422.71606     603.7909     513.0612
   1422.70081     603.6314     511.5358   1422.70081     603.6314     511.5358
   1422.68555     603.8591     511.9606   1422.68555     603.8591     511.9606
   1422.67029     603.5096     511.0232   1422.67029     603.5096     511.0232
   1422.65503     603.0452     510.5288   1422.65503     603.0452     510.5288
   1422.63977     603.1805     509.9612   1422.63977     603.1805     509.9612
   1422.62451     603.6036     508.6393   1422.62451     603.6036     508.6393
   1422.60925     602.8206     508.1255   1422.60925     602.8206     508.1255
   1422.59399     603.0204     508.2842   1422.59399     603.0204     508.2842
   1422.57874     603.3043     507.8178   1422.57874     603.3043     507.8178
   1422.56348     602.9379     506.2445   1422.56348     602.9379     506.2445
   1422.54822     601.8076     506.3213   1422.54822     601.8076     506.3213
   1422.53296     601.8751     506.0521   1422.53296     601.8751     506.0521
   1422.51770     601.5328     504.2721   1422.51770     601.5328     504.2721
   1422.50244     602.0965     504.3630   1422.50244     602.0965     504.3630
   1422.48718     600.7675     502.9622   1422.48718     600.7675     502.9622
   1422.47192     601.2177     502.5865   1422.47192     601.2177     502.5865
   1422.45667     601.5928     502.1064   1422.45667     601.5928     502.1064
   1422.44141     601.1091     500.4961   1422.44141     601.1091     500.4961
   1422.42615     600.9288     500.2771   1422.42615     600.9288     500.2771
   1422.41089     601.4267     499.6852   1422.41089     601.4267     499.6852
   1422.39563     599.8646     498.3615   1422.39563     599.8646     498.3615
   1422.38037     600.4280     498.6379   1422.38037     600.4280     498.6379
   1422.36511     599.5498     497.6958   1422.36511     599.5498     497.6958
   1422.34985     600.0395     497.4051   1422.34985     600.0395     497.4051
   1422.33459     600.1620     496.6468   1422.33459     600.1620     496.6468
   1422.31934     599.9348     495.0320   1422.31934     599.9348     495.0320
   1422.30408     599.1263     494.6425   1422.30408     599.1263     494.6425
   1422.28882     599.3710     494.1032   1422.28882     599.3710     494.1032
   1422.27356     599.2965     492.7661   1422.27356     599.2965     492.7661
   1422.25830     597.9019     492.9405   1422.25830     597.9019     492.9405
   1422.24304     598.2413     492.1083   1422.24304     598.2413     492.1083
   1422.22778     599.0047     490.7439   1422.22778     599.0047     490.7439
   1422.21252     598.0508     489.3196   1422.21252     598.0508     489.3196
   1422.19727     598.1052     488.1945   1422.19727     598.1052     488.1945
   1422.18201     597.3810     488.1769   1422.18201     597.3810     488.1769
   1422.16675     598.0861     486.6034   1422.16675     598.0861     486.6034
   1422.15149     597.6077     485.7293   1422.15149     597.6077     485.7293
   1422.13623     598.0203     485.9815   1422.13623     598.0203     485.9815
   1422.12097     597.2485     484.7279   1422.12097     597.2485     484.7279
   1422.10571     598.2252     483.9555   1422.10571     598.2252     483.9555
   1422.09045     597.3409     484.0235   1422.09045     597.3409     484.0235
   1422.07520     597.3675     481.5513   1422.07520     597.3675     481.5513
   1422.05994     596.2007     480.9521   1422.05994     596.2007     480.9521
   1422.04468     596.2863     480.1706   1422.04468     596.2863     480.1706
   1422.02942     596.8192     479.3932   1422.02942     596.8192     479.3932
   1422.01416     596.0793     478.2719   1422.01416     596.0793     478.2719
   1421.99890     596.7357     477.4286   1421.99890     596.7357     477.4286
   1421.98364     595.4846     476.2061   1421.98364     595.4846     476.2061
   1421.96838     596.3925     475.7250   1421.96838     596.3925     475.7250
   1421.95312     595.6708     474.2577   1421.95312     595.6708     474.2577
   1421.93787     596.3933     473.1413   1421.93787     596.3933     473.1413
   1421.92261     594.8197     472.6547   1421.92261     594.8197     472.6547
   1421.90735     595.1417     471.5879   1421.90735     595.1417     471.5879
   1421.89209     594.6580     470.9089   1421.89209     594.6580     470.9089
   1421.87683     594.8821     469.7160   1421.87683     594.8821     469.7160
   1421.86157     593.8956     469.0410   1421.86157     593.8956     469.0410
   1421.84631     593.6273     468.3346   1421.84631     593.6273     468.3346
   1421.83105     594.2686     467.3932   1421.83105     594.2686     467.3932
   1421.81580     593.9042     466.2298   1421.81580     593.9042     466.2298
   1421.80054     593.4543     465.2748   1421.80054     593.4543     465.2748
   1421.78528     593.6481     463.6444   1421.78528     593.6481     463.6444
   1421.77002     592.7827     462.6216   1421.77002     592.7827     462.6216
   1421.75476     593.2125     462.2952   1421.75476     593.2125     462.2952
   1421.73950     593.3622     460.8854   1421.73950     593.3622     460.8854
   1421.72424     593.1887     460.9963   1421.72424     593.1887     460.9963
   1421.70898     592.4422     459.1222   1421.70898     592.4422     459.1222
   1421.69373     592.4258     457.9293   1421.69373     592.4258     457.9293
   1421.67847     591.3831     457.1147   1421.67847     591.3831     457.1147
   1421.66321     591.6776     455.5265   1421.66321     591.6776     455.5265
   1421.64795     591.1871     455.2265   1421.64795     591.1871     455.2265
   1421.63269     591.3147     453.9781   1421.63269     591.3147     453.9781
   1421.61743     591.6848     452.3112   1421.61743     591.6848     452.3112
   1421.60217     592.1464     451.7498   1421.60217     592.1464     451.7498
   1421.58691     591.2810     450.7477   1421.58691     591.2810     450.7477
   1421.57166     590.5736     449.7769   1421.57166     590.5736     449.7769
   1421.55640     589.6242     448.3231   1421.55640     589.6242     448.3231
   1421.54114     590.1578     447.6938   1421.54114     590.1578     447.6938
   1421.52588     590.0618     446.2243   1421.52588     590.0618     446.2243
   1421.51062     589.1089     445.7688   1421.51062     589.1089     445.7688
   1421.49536     590.1080     443.8703   1421.49536     590.1080     443.8703
   1421.48010     589.1304     443.6988   1421.48010     589.1304     443.6988
   1421.46484     589.1953     442.8624   1421.46484     589.1953     442.8624
   1421.44958     590.4368     441.8239   1421.44958     590.4368     441.8239
   1421.43433     589.4929     440.0368   1421.43433     589.4929     440.0368
   1421.41907     588.5399     439.4807   1421.41907     588.5399     439.4807
   1421.40381     590.0384     439.1276   1421.40381     590.0384     439.1276
   1421.38855     590.3200     437.4793   1421.38855     590.3200     437.4793
   1421.37329     589.0417     437.0908   1421.37329     589.0417     437.0908
   1421.35803     589.5034     435.8458   1421.35803     589.5034     435.8458
   1421.34277     589.3962     434.8155   1421.34277     589.3962     434.8155
   1421.32751     590.0622     435.3581   1421.32751     590.0622     435.3581
   1421.31226     591.3476     434.2757   1421.31226     591.3476     434.2757
   1421.29700     592.2477     434.3273   1421.29700     592.2477     434.3273
   1421.28174     594.8317     434.8023   1421.28174     594.8317     434.8023
   1421.26648     596.8269     435.7693   1421.26648     596.8269     435.7693
   1421.25122     597.3437     435.9283   1421.25122     597.3437     435.9283
   1421.23596     600.9478     437.6819   1421.23596     600.9478     437.6819
   1421.22070     603.3171     437.9884   1421.22070     603.3171     437.9884
   1421.20544     602.4327     436.5945   1421.20544     602.4327     436.5945
   1421.19019     602.6851     435.0587   1421.19019     602.6851     435.0587
   1421.17493     600.3116     432.4771   1421.17493     600.3116     432.4771
   1421.15967     597.7339     430.6910   1421.15967     597.7339     430.6910
   1421.14441     596.8081     429.4254   1421.14441     596.8081     429.4254
   1421.12915     598.8806     430.1485   1421.12915     598.8806     430.1485
   1421.11389     603.0424     431.3188   1421.11389     603.0424     431.3188
   1421.09863     607.9649     433.6891   1421.09863     607.9649     433.6891
   1421.08337     614.1838     437.2136   1421.08337     614.1838     437.2136
   1421.06812     623.5600     442.0595   1421.06812     623.5600     442.0595
   1421.05286     635.6928     450.3293   1421.05286     635.6928     450.3293
   1421.03760     648.7371     459.0840   1421.03760     648.7371     459.0840
   1421.02234     666.4831     469.7545   1421.02234     666.4831     469.7545
   1421.00708     700.1738     492.3118   1421.00708     700.1738     492.3118
   1420.99182     759.2584     532.2295   1420.99182     759.2584     532.2295
   1420.97656     852.7535     595.6869   1420.97656     852.7535     595.6869
   1420.96130     934.4257     652.1183   1420.96130     934.4257     652.1183
   1420.94604     918.8674     637.4404   1420.94604     918.8674     637.4404
   1420.93079     849.2037     590.7148   1420.93079     849.2037     590.7148
   1420.91553     790.5959     548.9333   1420.91553     790.5959     548.9333
   1420.90027     758.6841     526.1239   1420.90027     758.6841     526.1239
   1420.88501     744.4113     515.3198   1420.88501     744.4113     515.3198
   1420.86975     747.6348     515.7881   1420.86975     747.6348     515.7881
   1420.85449     748.8296     515.1223   1420.85449     748.8296     515.1223
   1420.83923     759.4743     521.0572   1420.83923     759.4743     521.0572
   1420.82397     827.5401     566.8731   1420.82397     827.5401     566.8731
   1420.80872     942.9828     643.1802   1420.80872     942.9828     643.1802
   1420.79346    1058.1918     719.3205   1420.79346    1058.1918     719.3205
   1420.77820    1166.9351     790.8973   1420.77820    1166.9351     790.8973
   1420.76294    1280.2919     864.2226   1420.76294    1280.2919     864.2226
   1420.74768    1462.3812     984.6404   1420.74768    1462.3812     984.6404
   1420.73242    1677.6099    1123.4552   1420.73242    1677.6099    1123.4552
   1420.71716    1791.8398    1199.6914   1420.71716    1791.8398    1199.6914
   1420.70190    1718.6758    1150.1626   1420.70190    1718.6758    1150.1626
   1420.68665    1485.7872     995.2910   1420.68665    1485.7872     995.2910
   1420.67139    1240.7219     829.1784   1420.67139    1240.7219     829.1784
   1420.65613    1109.5242     738.8478   1420.65613    1109.5242     738.8478
   1420.64087     997.0171     664.1638   1420.64087     997.0171     664.1638
   1420.62561     882.2514     586.5500   1420.62561     882.2514     586.5500
   1420.61035     840.2999     557.4946   1420.61035     840.2999     557.4946
   1420.59509     875.5456     579.9597   1420.59509     875.5456     579.9597
   1420.57983     999.2482     660.2839   1420.57983     999.2482     660.2839
   1420.56458    1195.3148     788.3204   1420.56458    1195.3148     788.3204
   1420.54932    1354.3486     889.9288   1420.54932    1354.3486     889.9288
   1420.53406    1457.8011     954.5566   1420.53406    1457.8011     954.5566
   1420.51880    1465.7710     959.1876   1420.51880    1465.7710     959.1876
   1420.50354    1516.4653     988.3302   1420.50354    1516.4653     988.3302
   1420.48828    1450.9070     943.1045   1420.48828    1450.9070     943.1045
   1420.47302    1125.2953     734.4407   1420.47302    1125.2953     734.4407
   1420.45776     905.6230     589.6113   1420.45776     905.6230     589.6113
   1420.44250     744.3836     485.9418   1420.44250     744.3836     485.9418
   1420.42725     658.9453     429.6214   1420.42725     658.9453     429.6214
   1420.41199     621.3458     405.9989   1420.41199     621.3458     405.9989
   1420.39673     604.3818     393.4724   1420.39673     604.3818     393.4724
   1420.38147     595.5375     387.6420   1420.38147     595.5375     387.6420
   1420.36621     590.4167     383.6195   1420.36621     590.4167     383.6195
   1420.35095     587.9948     381.3539   1420.35095     587.9948     381.3539
   1420.33569     584.7638     378.8498   1420.33569     584.7638     378.8498
   1420.32043     583.6967     377.5264   1420.32043     583.6967     377.5264
   1420.30518     582.1449     376.3228   1420.30518     582.1449     376.3228
   1420.28992     583.0887     376.2060   1420.28992     583.0887     376.2060
   1420.27466     582.0864     374.3296   1420.27466     582.0864     374.3296
   1420.25940     581.6039     373.8210   1420.25940     581.6039     373.8210
   1420.24414     580.8136     372.5296   1420.24414     580.8136     372.5296
   1420.22888     581.7333     371.1912   1420.22888     581.7333     371.1912
   1420.21362     579.5341     369.8000   1420.21362     579.5341     369.8000
   1420.19836     578.6575     369.2059   1420.19836     578.6575     369.2059
   1420.18311     579.3088     368.3612   1420.18311     579.3088     368.3612
   1420.16785     578.1691     367.3536   1420.16785     578.1691     367.3536
   1420.15259     577.0906     366.2544   1420.15259     577.0906     366.2544
   1420.13733     576.7358     365.5630   1420.13733     576.7358     365.5630
   1420.12207     575.8910     365.1235   1420.12207     575.8910     365.1235
   1420.10681     576.3395     363.3075   1420.10681     576.3395     363.3075
   1420.09155     575.6227     362.7838   1420.09155     575.6227     362.7838
   1420.07629     574.8219     362.7997   1420.07629     574.8219     362.7997
   1420.06104     575.1135     361.3852   1420.06104     575.1135     361.3852
   1420.04578     575.9586     361.4965   1420.04578     575.9586     361.4965
   1420.03052     575.9672     360.5893   1420.03052     575.9672     360.5893
   1420.01526     575.3009     360.9468   1420.01526     575.3009     360.9468
   1420.00000     577.0385     361.7800   1420.00000     577.0385     361.7800
   1419.98474     578.7760     362.6132   1419.98474     578.7760     362.6132
   1419.96948     577.6459     360.0201   1419.96948     577.6459     360.0201
   1419.95422     575.3119     357.9290   1419.95422     575.3119     357.9290
   1419.93896     574.2443     357.0955   1419.93896     574.2443     357.0955
   1419.92371     574.9995     357.3380   1419.92371     574.9995     357.3380
   1419.90845     574.1981     356.5298   1419.90845     574.1981     356.5298
   1419.89319     574.6613     356.4111   1419.89319     574.6613     356.4111
   1419.87793     575.3527     355.7900   1419.87793     575.3527     355.7900
   1419.86267     575.3255     355.4867   1419.86267     575.3255     355.4867
   1419.84741     574.5703     354.3703   1419.84741     574.5703     354.3703
   1419.83215     574.8745     354.7356   1419.83215     574.8745     354.7356
   1419.81689     575.3334     354.8478   1419.81689     575.3334     354.8478
   1419.80164     575.4958     354.4534   1419.80164     575.4958     354.4534
   1419.78638     575.3307     354.0520   1419.78638     575.3307     354.0520
   1419.77112     576.2120     353.3954   1419.77112     576.2120     353.3954
   1419.75586     576.5423     353.2599   1419.75586     576.5423     353.2599
   1419.74060     575.5633     353.0915   1419.74060     575.5633     353.0915
   1419.72534     576.7277     352.7037   1419.72534     576.7277     352.7037
   1419.71008     577.0930     352.9334   1419.71008     577.0930     352.9334
   1419.69482     577.1066     352.4325   1419.69482     577.1066     352.4325
   1419.67957     576.5618     352.3393   1419.67957     576.5618     352.3393
   1419.66431     577.9416     351.8543   1419.66431     577.9416     351.8543
   1419.64905     577.5323     351.2443   1419.64905     577.5323     351.2443
   1419.63379     577.7456     351.8235   1419.63379     577.7456     351.8235
   1419.61853     577.1725     351.0961   1419.61853     577.1725     351.0961
   1419.60327     578.2477     350.8956   1419.60327     578.2477     350.8956
   1419.58801     578.7230     350.4776   1419.58801     578.7230     350.4776
   1419.57275     578.4822     350.7663   1419.57275     578.4822     350.7663
   1419.55750     578.9169     350.8658   1419.55750     578.9169     350.8658
   1419.54224     578.8467     350.8039   1419.54224     578.8467     350.8039
   1419.52698     580.3732     349.8728   1419.52698     580.3732     349.8728
   1419.51172     579.8301     350.3619   1419.51172     579.8301     350.3619
   1419.49646     579.9865     349.9821   1419.49646     579.9865     349.9821
   1419.48120     579.4670     349.9821   1419.48120     579.4670     349.9821
   1419.46594     581.1083     349.3666   1419.46594     581.1083     349.3666
   1419.45068     580.2770     349.2950   1419.45068     580.2770     349.2950
   1419.43542     581.4460     349.7377   1419.43542     581.4460     349.7377
   1419.42017     581.3951     349.9806   1419.42017     581.3951     349.9806
   1419.40491     581.1526     349.2713   1419.40491     581.1526     349.2713
   1419.38965     581.6933     349.0939   1419.38965     581.6933     349.0939
   1419.37439     582.4690     349.6785   1419.37439     582.4690     349.6785
   1419.35913     583.0621     349.0324   1419.35913     583.0621     349.0324
   1419.34387     583.2820     349.6022   1419.34387     583.2820     349.6022
   1419.32861     584.1957     349.7379   1419.32861     584.1957     349.7379
   1419.31335     583.5703     349.8702   1419.31335     583.5703     349.8702
   1419.29810     584.6919     350.1004   1419.29810     584.6919     350.1004
   1419.28284     583.8452     349.2338   1419.28284     583.8452     349.2338
   1419.26758     584.1406     349.6637   1419.26758     584.1406     349.6637
   1419.25232     586.0848     349.7905   1419.25232     586.0848     349.7905
   1419.23706     584.8963     349.7985   1419.23706     584.8963     349.7985
   1419.22180     586.1747     349.9182   1419.22180     586.1747     349.9182
   1419.20654     586.0841     350.0182   1419.20654     586.0841     350.0182
   1419.19128     586.6186     350.6795   1419.19128     586.6186     350.6795
   1419.17603     586.7574     350.2855   1419.17603     586.7574     350.2855
   1419.16077     586.8849     350.5085   1419.16077     586.8849     350.5085
   1419.14551     588.4530     351.1323   1419.14551     588.4530     351.1323
   1419.13025     588.4250     350.9890   1419.13025     588.4250     350.9890
   1419.11499     588.3615     350.9818   1419.11499     588.3615     350.9818
   1419.09973     588.0715     351.0031   1419.09973     588.0715     351.0031
   1419.08447     588.5797     351.8597   1419.08447     588.5797     351.8597
   1419.06921     589.4866     352.1082   1419.06921     589.4866     352.1082
   1419.05396     589.8555     352.1192   1419.05396     589.8555     352.1192
   1419.03870     590.6090     352.5162   1419.03870     590.6090     352.5162
   1419.02344     591.0911     352.3576   1419.02344     591.0911     352.3576
   1419.00818     590.5012     352.9639   1419.00818     590.5012     352.9639
   1418.99292     591.1909     352.7675   1418.99292     591.1909     352.7675
   1418.97766     591.9819     352.9851   1418.97766     591.9819     352.9851
   1418.96240     591.9012     353.3903   1418.96240     591.9012     353.3903
   1418.94714     593.7032     353.7519   1418.94714     593.7032     353.7519
   1418.93188     592.6260     354.5183   1418.93188     592.6260     354.5183
   1418.91663     594.7954     355.2276   1418.91663     594.7954     355.2276
   1418.90137     595.0508     354.9676   1418.90137     595.0508     354.9676
   1418.88611     595.4355     355.3801   1418.88611     595.4355     355.3801
   1418.87085     595.5165     355.4916   1418.87085     595.5165     355.4916
   1418.85559     595.9274     355.5985   1418.85559     595.9274     355.5985
   1418.84033     596.2008     355.5400   1418.84033     596.2008     355.5400
   1418.82507     597.2198     356.5683   1418.82507     597.2198     356.5683
   1418.80981     597.4687     357.1606   1418.80981     597.4687     357.1606
   1418.79456     598.1550     357.1806   1418.79456     598.1550     357.1806
   1418.77930     598.4344     357.7208   1418.77930     598.4344     357.7208
   1418.76404     598.5800     358.3122   1418.76404     598.5800     358.3122
   1418.74878     599.9066     358.2624   1418.74878     599.9066     358.2624
   1418.73352     599.3583     359.2993   1418.73352     599.3583     359.2993
   1418.71826     600.5094     359.4218   1418.71826     600.5094     359.4218
   1418.70300     600.1918     360.4679   1418.70300     600.1918     360.4679
   1418.68774     600.6449     360.0883   1418.68774     600.6449     360.0883
   1418.67249     602.5529     360.6511   1418.67249     602.5529     360.6511
   1418.65723     602.0401     361.3517   1418.65723     602.0401     361.3517
   1418.64197     603.2621     362.4364   1418.64197     603.2621     362.4364
   1418.62671     603.7501     362.7781   1418.62671     603.7501     362.7781
   1418.61145     603.9155     362.7674   1418.61145     603.9155     362.7674
   1418.59619     605.7428     362.9983   1418.59619     605.7428     362.9983
   1418.58093     606.2393     364.5854   1418.58093     606.2393     364.5854
   1418.56567     606.5349     364.5098   1418.56567     606.5349     364.5098
   1418.55042     606.9247     364.5751   1418.55042     606.9247     364.5751
   1418.53516     606.8299     365.8823   1418.53516     606.8299     365.8823
   1418.51990     607.3044     366.8294   1418.51990     607.3044     366.8294
   1418.50464     608.4767     367.0354   1418.50464     608.4767     367.0354
   1418.48938     609.4344     367.6287   1418.48938     609.4344     367.6287
   1418.47412     609.0811     368.4745   1418.47412     609.0811     368.4745
   1418.45886     609.6374     368.8294   1418.45886     609.6374     368.8294
   1418.44360     611.8793     369.4625   1418.44360     611.8793     369.4625
   1418.42834     611.7324     369.9956   1418.42834     611.7324     369.9956
   1418.41309     612.5375     371.0984   1418.41309     612.5375     371.0984
   1418.39783     613.1579     371.4613   1418.39783     613.1579     371.4613
   1418.38257     614.4177     371.1023   1418.38257     614.4177     371.1023
   1418.36731     614.4982     372.6219   1418.36731     614.4982     372.6219
   1418.35205     614.9051     373.6227   1418.35205     614.9051     373.6227
   1418.33679     615.5735     374.0726   1418.33679     615.5735     374.0726
   1418.32153     616.2683     374.2559   1418.32153     616.2683     374.2559
   1418.30627     616.9151     375.4302   1418.30627     616.9151     375.4302
   1418.29102     617.5214     376.0266   1418.29102     617.5214     376.0266
   1418.27576     618.6426     376.6573   1418.27576     618.6426     376.6573
   1418.26050     619.7007     377.0967   1418.26050     619.7007     377.0967
   1418.24524     619.8894     378.5942   1418.24524     619.8894     378.5942
   1418.22998     620.8649     378.7256   1418.22998     620.8649     378.7256
   1418.21472     620.7640     379.6192   1418.21472     620.7640     379.6192
   1418.19946     621.7630     380.3601   1418.19946     621.7630     380.3601
   1418.18420     623.2119     381.7256   1418.18420     623.2119     381.7256
   1418.16895     623.9146     382.2219   1418.16895     623.9146     382.2219
   1418.15369     624.4009     383.3651   1418.15369     624.4009     383.3651
   1418.13843     624.9807     383.8756   1418.13843     624.9807     383.8756
   1418.12317     624.9999     384.5175   1418.12317     624.9999     384.5175
   1418.10791     626.0884     384.8633   1418.10791     626.0884     384.8633
   1418.09265     628.2742     386.2335   1418.09265     628.2742     386.2335
   1418.07739     627.7477     387.0586   1418.07739     627.7477     387.0586
   1418.06213     628.5512     387.4157   1418.06213     628.5512     387.4157
   1418.04688     629.6464     389.3123   1418.04688     629.6464     389.3123
   1418.03162     630.9296     388.8911   1418.03162     630.9296     388.8911
   1418.01636     630.9114     390.2207   1418.01636     630.9114     390.2207
   1418.00110     630.7330     391.2937   1418.00110     630.7330     391.2937
   1417.98584     630.9982     392.4890   1417.98584     630.9982     392.4890
   1417.97058     633.2233     392.9510   1417.97058     633.2233     392.9510
   1417.95532     634.3313     392.6272   1417.95532     634.3313     392.6272
   1417.94006     634.8994     394.2766   1417.94006     634.8994     394.2766
   1417.92480     634.3000     395.4138   1417.92480     634.3000     395.4138
   1417.90955     635.1274     396.1492   1417.90955     635.1274     396.1492
   1417.89429     636.2852     397.2973   1417.89429     636.2852     397.2973
   1417.87903     638.5345     398.4700   1417.87903     638.5345     398.4700
   1417.86377     638.5923     398.9611   1417.86377     638.5923     398.9611
   1417.84851     639.4011     400.3139   1417.84851     639.4011     400.3139
   1417.83325     639.6899     400.8259   1417.83325     639.6899     400.8259
   1417.81799     640.1370     401.3813   1417.81799     640.1370     401.3813
   1417.80273     641.0869     402.6554   1417.80273     641.0869     402.6554
   1417.78748     642.8201     403.4263   1417.78748     642.8201     403.4263
   1417.77222     642.8450     404.7608   1417.77222     642.8450     404.7608
   1417.75696     643.5431     405.9388   1417.75696     643.5431     405.9388
   1417.74170     644.1298     406.4550   1417.74170     644.1298     406.4550
   1417.72644     646.5173     407.0259   1417.72644     646.5173     407.0259
   1417.71118     645.6558     408.2179   1417.71118     645.6558     408.2179
   1417.69592     646.4933     408.8992   1417.69592     646.4933     408.8992
   1417.68066     647.4408     409.7918   1417.68066     647.4408     409.7918
   1417.66541     648.1407     411.2995   1417.66541     648.1407     411.2995
   1417.65015     649.9817     412.2861   1417.65015     649.9817     412.2861
   1417.63489     650.8032     412.2879   1417.63489     650.8032     412.2879
   1417.61963     650.5433     413.3635   1417.61963     650.5433     413.3635
   1417.60437     650.9882     415.0210   1417.60437     650.9882     415.0210
   1417.58911     652.5513     415.3115   1417.58911     652.5513     415.3115
   1417.57385     651.9575     416.9778   1417.57385     651.9575     416.9778
   1417.55859     654.1227     417.3878   1417.55859     654.1227     417.3878
   1417.54333     654.3652     418.3553   1417.54333     654.3652     418.3553
   1417.52808     655.0384     419.5491   1417.52808     655.0384     419.5491
   1417.51282     656.0853     420.1946   1417.51282     656.0853     420.1946
   1417.49756     656.9263     420.5255   1417.49756     656.9263     420.5255
   1417.48230     657.1319     421.2613   1417.48230     657.1319     421.2613
   1417.46704     658.1514     423.0680   1417.46704     658.1514     423.0680
   1417.45178     658.4208     423.9941   1417.45178     658.4208     423.9941
   1417.43652     658.4772     424.9359   1417.43652     658.4772     424.9359
   1417.42126     660.1536     425.3531   1417.42126     660.1536     425.3531
   1417.40601     660.3735     426.1601   1417.40601     660.3735     426.1601
   1417.39075     662.8727     426.4686   1417.39075     662.8727     426.4686
   1417.37549     662.3997     428.7572   1417.37549     662.3997     428.7572
   1417.36023     663.4061     428.9308   1417.36023     663.4061     428.9308
   1417.34497     664.7422     429.0579   1417.34497     664.7422     429.0579
   1417.32971     664.1636     430.7146   1417.32971     664.1636     430.7146
   1417.31445     664.6971     431.9560   1417.31445     664.6971     431.9560
   1417.29919     665.3388     432.3250   1417.29919     665.3388     432.3250
   1417.28394     666.2050     433.5389   1417.28394     666.2050     433.5389
   1417.26868     666.9111     434.0555   1417.26868     666.9111     434.0555
   1417.25342     667.0760     434.9603   1417.25342     667.0760     434.9603
   1417.23816     668.5516     435.7191   1417.23816     668.5516     435.7191
   1417.22290     670.0425     436.5363   1417.22290     670.0425     436.5363
   1417.20764     669.9229     437.6023   1417.20764     669.9229     437.6023
   1417.19238     669.5812     437.3780   1417.19238     669.5812     437.3780
   1417.17712     671.1536     438.8120   1417.17712     671.1536     438.8120
   1417.16187     671.7177     439.6037   1417.16187     671.7177     439.6037
   1417.14661     670.9100     440.2209   1417.14661     670.9100     440.2209
   1417.13135     672.9921     440.3583   1417.13135     672.9921     440.3583
   1417.11609     674.0655     442.2022   1417.11609     674.0655     442.2022
   1417.10083     673.6335     441.9468   1417.10083     673.6335     441.9468
   1417.08557     673.7148     443.4427   1417.08557     673.7148     443.4427
   1417.07031     675.7076     444.0933   1417.07031     675.7076     444.0933
   1417.05505     675.6479     444.6488   1417.05505     675.6479     444.6488
   1417.03979     676.6103     445.1808   1417.03979     676.6103     445.1808
   1417.02454     676.6869     445.2759   1417.02454     676.6869     445.2759
   1417.00928     677.8337     445.9320   1417.00928     677.8337     445.9320
   1416.99402     677.0717     447.2627   1416.99402     677.0717     447.2627
   1416.97876     677.9807     447.7931   1416.97876     677.9807     447.7931
   1416.96350     678.1181     448.5988   1416.96350     678.1181     448.5988
   1416.94824     678.5734     448.5402   1416.94824     678.5734     448.5402
   1416.93298     679.1735     449.0630   1416.93298     679.1735     449.0630
   1416.91772     679.9945     450.5347   1416.91772     679.9945     450.5347
   1416.90247     679.9448     450.1564   1416.90247     679.9448     450.1564
   1416.88721     680.7869     450.3444   1416.88721     680.7869     450.3444
   1416.87195     680.4940     451.7723   1416.87195     680.4940     451.7723
   1416.85669     680.9789     451.7439   1416.85669     680.9789     451.7439
   1416.84143     681.2634     453.2671   1416.84143     681.2634     453.2671
   1416.82617     681.7340     453.0195   1416.82617     681.7340     453.0195
   1416.81091     681.9033     452.4236   1416.81091     681.9033     452.4236
   1416.79565     683.0443     452.7950   1416.79565     683.0443     452.7950
   1416.78040     683.2357     453.6036   1416.78040     683.2357     453.6036
   1416.76514     683.3154     454.2037   1416.76514     683.3154     454.2037
   1416.74988     683.4841     454.1162   1416.74988     683.4841     454.1162
   1416.73462     683.8177     453.8055   1416.73462     683.8177     453.8055
   1416.71936     684.1304     453.8227   1416.71936     684.1304     453.8227
   1416.70410     683.9034     455.2186   1416.70410     683.9034     455.2186
   1416.68884     684.5514     455.2658   1416.68884     684.5514     455.2658
   1416.67358     684.6167     455.2470   1416.67358     684.6167     455.2470
   1416.65833     684.2815     455.1124   1416.65833     684.2815     455.1124
   1416.64307     685.1993     455.4469   1416.64307     685.1993     455.4469
   1416.62781     685.5129     456.3446   1416.62781     685.5129     456.3446
   1416.61255     684.6725     456.5185   1416.61255     684.6725     456.5185
   1416.59729     684.3181     456.7001   1416.59729     684.3181     456.7001
   1416.58203     685.3599     456.1173   1416.58203     685.3599     456.1173
   1416.56677     685.4745     456.1513   1416.56677     685.4745     456.1513
   1416.55151     685.7416     456.9082   1416.55151     685.7416     456.9082
   1416.53625     685.6872     456.8462   1416.53625     685.6872     456.8462
   1416.52100     684.8282     456.7734   1416.52100     684.8282     456.7734
   1416.50574     685.9500     457.0240   1416.50574     685.9500     457.0240
   1416.49048     686.0098     456.9331   1416.49048     686.0098     456.9331
   1416.47522     684.6854     456.4493   1416.47522     684.6854     456.4493
   1416.45996     685.1624     456.3343   1416.45996     685.1624     456.3343
   1416.44470     685.3273     456.4499   1416.44470     685.3273     456.4499
   1416.42944     685.8746     456.0932   1416.42944     685.8746     456.0932
   1416.41418     686.3682     456.1533   1416.41418     686.3682     456.1533
   1416.39893     685.3171     455.7376   1416.39893     685.3171     455.7376
   1416.38367     685.4833     456.3197   1416.38367     685.4833     456.3197
   1416.36841     685.3970     455.4425   1416.36841     685.3970     455.4425
   1416.35315     685.8421     455.2628   1416.35315     685.8421     455.2628
   1416.33789     684.9264     454.8673   1416.33789     684.9264     454.8673
   1416.32263     684.6172     455.2937   1416.32263     684.6172     455.2937
   1416.30737     685.8041     453.9678   1416.30737     685.8041     453.9678
   1416.29211     685.9775     454.9487   1416.29211     685.9775     454.9487
   1416.27686     684.4604     453.5745   1416.27686     684.4604     453.5745
   1416.26160     682.9791     454.1186   1416.26160     682.9791     454.1186
   1416.24634     684.4075     453.8135   1416.24634     684.4075     453.8135
   1416.23108     682.7755     453.0674   1416.23108     682.7755     453.0674
   1416.21582     683.4564     453.2841   1416.21582     683.4564     453.2841
   1416.20056     682.8851     452.5358   1416.20056     682.8851     452.5358
   1416.18530     681.6829     451.4982   1416.18530     681.6829     451.4982
   1416.17004     681.5302     451.3242   1416.17004     681.5302     451.3242
   1416.15479     682.2056     451.1719   1416.15479     682.2056     451.1719
   1416.13953     682.4150     451.2897   1416.13953     682.4150     451.2897
   1416.12427     682.1253     450.5028   1416.12427     682.1253     450.5028
   1416.10901     680.8775     450.0629   1416.10901     680.8775     450.0629
   1416.09375     679.8833     450.0233   1416.09375     679.8833     450.0233
   1416.07849     680.7217     449.9654   1416.07849     680.7217     449.9654
   1416.06323     679.9864     449.5721   1416.06323     679.9864     449.5721
   1416.04797     679.7017     448.3772   1416.04797     679.7017     448.3772
   1416.03271     679.8561     448.0804   1416.03271     679.8561     448.0804
   1416.01746     679.6673     447.3488   1416.01746     679.6673     447.3488
   1416.00220     678.2573     447.7123   1416.00220     678.2573     447.7123
   1415.98694     677.0090     446.6149   1415.98694     677.0090     446.6149
   1415.97168     676.8233     445.3677   1415.97168     676.8233     445.3677
   1415.95642     676.5093     445.8119   1415.95642     676.5093     445.8119
   1415.94116     676.4407     445.2994   1415.94116     676.4407     445.2994
   1415.92590     677.0731     444.6767   1415.92590     677.0731     444.6767
   1415.91064     675.5202     443.9515   1415.91064     675.5202     443.9515
   1415.89539     674.9933     443.2621   1415.89539     674.9933     443.2621
   1415.88013     674.5882     443.1145   1415.88013     674.5882     443.1145
   1415.86487     674.6783     443.0161   1415.86487     674.6783     443.0161
   1415.84961     674.9400     441.8154   1415.84961     674.9400     441.8154
   1415.83435     673.4434     441.4982   1415.83435     673.4434     441.4982
   1415.81909     672.8305     439.9817   1415.81909     672.8305     439.9817
   1415.80383     672.7098     440.8893   1415.80383     672.7098     440.8893
   1415.78857     671.6299     439.0075   1415.78857     671.6299     439.0075
   1415.77332     671.5213     439.3240   1415.77332     671.5213     439.3240
   1415.75806     670.2184     438.0079   1415.75806     670.2184     438.0079
   1415.74280     669.9940     437.8676   1415.74280     669.9940     437.8676
   1415.72754     669.8444     437.5824   1415.72754     669.8444     437.5824
   1415.71228     668.3864     437.0239   1415.71228     668.3864     437.0239
   1415.69702     668.1746     435.6834   1415.69702     668.1746     435.6834
   1415.68176     666.7278     435.5095   1415.68176     666.7278     435.5095
   1415.66650     666.3737     434.6027   1415.66650     666.3737     434.6027
   1415.65125     666.0650     434.2001   1415.65125     666.0650     434.2001
   1415.63599     664.1513     434.0402   1415.63599     664.1513     434.0402
   1415.62073     664.6172     432.8287   1415.62073     664.6172     432.8287
   1415.60547     663.7233     432.7363   1415.60547     663.7233     432.7363
   1415.59021     663.4382     432.2545   1415.59021     663.4382     432.2545
   1415.57495     662.0637     431.1746   1415.57495     662.0637     431.1746
   1415.55969     661.3176     430.9359   1415.55969     661.3176     430.9359
   1415.54443     661.3791     429.7312   1415.54443     661.3791     429.7312
   1415.52917     659.8201     429.4772   1415.52917     659.8201     429.4772
   1415.51392     659.6157     428.2347   1415.51392     659.6157     428.2347
   1415.49866     658.2228     427.8967   1415.49866     658.2228     427.8967
   1415.48340     656.9767     426.9851   1415.48340     656.9767     426.9851
   1415.46814     656.9462     426.7328   1415.46814     656.9462     426.7328
   1415.45288     656.2625     426.0162   1415.45288     656.2625     426.0162
   1415.43762     654.8616     425.3224   1415.43762     654.8616     425.3224
   1415.42236     652.9111     425.2719   1415.42236     652.9111     425.2719
   1415.40710     652.7559     424.5543   1415.40710     652.7559     424.5543
   1415.39185     652.7640     423.5779   1415.39185     652.7640     423.5779
   1415.37659     651.9540     422.7199   1415.37659     651.9540     422.7199
   1415.36133     650.5862     422.2278   1415.36133     650.5862     422.2278
   1415.34607     650.0193     421.1360   1415.34607     650.0193     421.1360
   1415.33081     648.5704     420.1803   1415.33081     648.5704     420.1803
   1415.31555     648.4341     419.8452   1415.31555     648.4341     419.8452
   1415.30029     646.1006     419.9461   1415.30029     646.1006     419.9461
   1415.28503     645.6824     418.0993   1415.28503     645.6824     418.0993
   1415.26978     643.1996     417.6512   1415.26978     643.1996     417.6512
   1415.25452     643.9796     416.8868   1415.25452     643.9796     416.8868
   1415.23926     642.5203     416.7330   1415.23926     642.5203     416.7330
   1415.22400     641.6894     415.7376   1415.22400     641.6894     415.7376
   1415.20874     640.0947     414.2301   1415.20874     640.0947     414.2301
   1415.19348     638.5278     413.8923   1415.19348     638.5278     413.8923
   1415.17822     638.0902     413.2285   1415.17822     638.0902     413.2285
   1415.16296     636.6904     412.7263   1415.16296     636.6904     412.7263
   1415.14771     636.2817     411.8292   1415.14771     636.2817     411.8292
   1415.13245     635.5950     410.7608   1415.13245     635.5950     410.7608
   1415.11719     633.1602     409.5428   1415.11719     633.1602     409.5428
   1415.10193     632.1873     409.0185   1415.10193     632.1873     409.0185
   1415.08667     631.1474     408.5289   1415.08667     631.1474     408.5289
   1415.07141     630.0192     407.7605   1415.07141     630.0192     407.7605
   1415.05615     627.7599     406.4977   1415.05615     627.7599     406.4977
   1415.04089     627.7437     405.4990   1415.04089     627.7437     405.4990
   1415.02563     626.0687     404.8575   1415.02563     626.0687     404.8575
   1415.01038     623.7532     404.1760   1415.01038     623.7532     404.1760
   1414.99512     623.3590     402.8080   1414.99512     623.3590     402.8080
   1414.97986     621.3745     402.3701   1414.97986     621.3745     402.3701
   1414.96460     620.7972     401.4231   1414.96460     620.7972     401.4231
   1414.94934     619.5881     400.6011   1414.94934     619.5881     400.6011
   1414.93408     618.1209     400.3182   1414.93408     618.1209     400.3182
   1414.91882     615.9116     399.2955   1414.91882     615.9116     399.2955
   1414.90356     614.6207     398.0975   1414.90356     614.6207     398.0975
   1414.88831     613.1144     397.5661   1414.88831     613.1144     397.5661
   1414.87305     612.3749     395.9539   1414.87305     612.3749     395.9539
   1414.85779     610.8909     395.5960   1414.85779     610.8909     395.5960
   1414.84253     609.0871     394.3453   1414.84253     609.0871     394.3453
   1414.82727     607.3729     393.2117   1414.82727     607.3729     393.2117
   1414.81201     606.3087     393.0863   1414.81201     606.3087     393.0863
   1414.79675     604.0613     391.4152   1414.79675     604.0613     391.4152
   1414.78149     604.0115     390.6657   1414.78149     604.0115     390.6657
   1414.76624     601.2592     389.3813   1414.76624     601.2592     389.3813
   1414.75098     600.1496     389.0972   1414.75098     600.1496     389.0972
   1414.73572     597.3644     387.2290   1414.73572     597.3644     387.2290
   1414.72046     597.4086     387.0608   1414.72046     597.4086     387.0608
   1414.70520     594.9454     385.5725   1414.70520     594.9454     385.5725
   1414.68994     592.7590     384.6918   1414.68994     592.7590     384.6918
   1414.67468     591.6006     383.7670   1414.67468     591.6006     383.7670
   1414.65942     589.3323     382.2940   1414.65942     589.3323     382.2940
   1414.64417     589.0089     381.6031   1414.64417     589.0089     381.6031
   1414.62891     585.9984     380.7534   1414.62891     585.9984     380.7534
   1414.61365     584.6204     379.5582   1414.61365     584.6204     379.5582
   1414.59839     581.8858     378.4788   1414.59839     581.8858     378.4788
   1414.58313     580.7941     377.3343   1414.58313     580.7941     377.3343
   1414.56787     578.3975     375.4162   1414.56787     578.3975     375.4162
   1414.55261     577.2102     374.7141   1414.55261     577.2102     374.7141
   1414.53735     574.9766     374.2325   1414.53735     574.9766     374.2325
   1414.52209     573.1162     372.9991   1414.52209     573.1162     372.9991
   1414.50684     571.7801     372.4767   1414.50684     571.7801     372.4767
   1414.49158     568.8226     370.3307   1414.49158     568.8226     370.3307
   1414.47632     566.9675     369.6684   1414.47632     566.9675     369.6684
   1414.46106     565.0684     368.5252   1414.46106     565.0684     368.5252
   1414.44580     563.0767     367.4074   1414.44580     563.0767     367.4074
   1414.43054     561.4155     366.1964   1414.43054     561.4155     366.1964
   1414.41528     559.7628     365.2146   1414.41528     559.7628     365.2146
   1414.40002     557.2534     364.1465   1414.40002     557.2534     364.1465
   1414.38477     555.3269     362.1544   1414.38477     555.3269     362.1544
   1414.36951     552.8956     361.6012   1414.36951     552.8956     361.6012
   1414.35425     551.2305     359.9909   1414.35425     551.2305     359.9909
   1414.33899     548.6619     359.6313   1414.33899     548.6619     359.6313
   1414.32373     545.7026     357.7802   1414.32373     545.7026     357.7802
   1414.30847     544.8498     356.1360   1414.30847     544.8498     356.1360
   1414.29321     542.6241     355.5282   1414.29321     542.6241     355.5282
   1414.27795     540.3362     354.3554   1414.27795     540.3362     354.3554
   1414.26270     537.2637     353.4073   1414.26270     537.2637     353.4073
   1414.24744     535.9130     351.4089   1414.24744     535.9130     351.4089
   1414.23218     533.5966     350.5673   1414.23218     533.5966     350.5673
   1414.21692     531.5933     349.5764   1414.21692     531.5933     349.5764
   1414.20166     529.4972     348.1391   1414.20166     529.4972     348.1391
   1414.18640     528.0989     346.7589   1414.18640     528.0989     346.7589
   1414.17114     524.5915     345.1793   1414.17114     524.5915     345.1793
   1414.15588     521.5899     343.9254   1414.15588     521.5899     343.9254
   1414.14062     518.7885     342.6883   1414.14062     518.7885     342.6883
   1414.12537     517.1907     341.7083   1414.12537     517.1907     341.7083
   1414.11011     515.7822     340.7280   1414.11011     515.7822     340.7280
   1414.09485     513.2540     339.1059   1414.09485     513.2540     339.1059
   1414.07959     510.5384     338.0217   1414.07959     510.5384     338.0217
   1414.06433     508.9975     335.9580   1414.06433     508.9975     335.9580
   1414.04907     506.0233     335.0706   1414.04907     506.0233     335.0706
   1414.03381     504.1225     333.9333   1414.03381     504.1225     333.9333
   1414.01855     502.1631     332.3266   1414.01855     502.1631     332.3266
   1414.00330     521.7289     338.8957   1414.00330     521.7289     338.8957
   1413.98804     497.6758     329.5616   1413.98804     497.6758     329.5616
   1413.97278     494.6375     328.4288   1413.97278     494.6375     328.4288
   1413.95752     491.7397     327.0401   1413.95752     491.7397     327.0401
   1413.94226     489.5208     325.5418   1413.94226     489.5208     325.5418
   1413.92700     486.5185     323.8487   1413.92700     486.5185     323.8487
   1413.91174     484.1139     323.1106   1413.91174     484.1139     323.1106
   1413.89648     482.0572     321.5247   1413.89648     482.0572     321.5247
   1413.88123     479.7889     320.5675   1413.88123     479.7889     320.5675
   1413.86597     476.4302     318.8443   1413.86597     476.4302     318.8443
   1413.85071     474.4688     317.8909   1413.85071     474.4688     317.8909
   1413.83545     471.7011     315.7913   1413.83545     471.7011     315.7913
   1413.82019     469.5682     315.0245   1413.82019     469.5682     315.0245
   1413.80493     467.4817     313.5419   1413.80493     467.4817     313.5419
   1413.78967     464.1906     312.8497   1413.78967     464.1906     312.8497
   1413.77441     461.9065     310.6080   1413.77441     461.9065     310.6080
   1413.75916     459.5327     309.3317   1413.75916     459.5327     309.3317
   1413.74390     457.1524     307.5340   1413.74390     457.1524     307.5340
   1413.72864     454.7617     306.1224   1413.72864     454.7617     306.1224
   1413.71338     451.3869     305.5254   1413.71338     451.3869     305.5254
   1413.69812     449.1425     303.8673   1413.69812     449.1425     303.8673
   1413.68286     446.6848     302.2662   1413.68286     446.6848     302.2662
   1413.66760     444.5926     300.6476   1413.66760     444.5926     300.6476
   1413.65234     442.3775     299.6198   1413.65234     442.3775     299.6198
   1413.63708     440.2343     298.4629   1413.63708     440.2343     298.4629
   1413.62183     437.0123     297.1850   1413.62183     437.0123     297.1850
   1413.60657     435.0946     295.7579   1413.60657     435.0946     295.7579
   1413.59131     432.6234     294.4485   1413.59131     432.6234     294.4485
   1413.57605     428.9698     292.4802   1413.57605     428.9698     292.4802
   1413.56079     427.3680     291.2497   1413.56079     427.3680     291.2497
   1413.54553     424.4848     290.1715   1413.54553     424.4848     290.1715
   1413.53027     422.7727     289.1577   1413.53027     422.7727     289.1577
   1413.51501     420.4773     287.5616   1413.51501     420.4773     287.5616
   1413.49976     417.4792     285.8016   1413.49976     417.4792     285.8016
   1413.48450     414.9785     284.5673   1413.48450     414.9785     284.5673
   1413.46924     412.8137     283.8063   1413.46924     412.8137     283.8063
   1413.45398     410.2657     281.9900   1413.45398     410.2657     281.9900
   1413.43872     408.4478     281.2924   1413.43872     408.4478     281.2924
   1413.42346     405.7090     279.8722   1413.42346     405.7090     279.8722
   1413.40820     403.8768     278.7819   1413.40820     403.8768     278.7819
   1413.39294     400.9757     276.6560   1413.39294     400.9757     276.6560
   1413.37769     398.4673     276.0830   1413.37769     398.4673     276.0830
   1413.36243     396.7216     274.4923   1413.36243     396.7216     274.4923
   1413.34717     394.0257     273.5468   1413.34717     394.0257     273.5468
   1413.33191     392.2264     271.9760   1413.33191     392.2264     271.9760
   1413.31665     389.4175     270.7304   1413.31665     389.4175     270.7304
   1413.30139     387.2122     269.4271   1413.30139     387.2122     269.4271
   1413.28613     384.9399     268.4442   1413.28613     384.9399     268.4442
   1413.27087     382.3257     267.2877   1413.27087     382.3257     267.2877
   1413.25562     381.0985     266.0673   1413.25562     381.0985     266.0673
   1413.24036     378.4871     264.6171   1413.24036     378.4871     264.6171
   1413.22510     376.4659     263.6859   1413.22510     376.4659     263.6859
   1413.20984     374.2003     262.4901   1413.20984     374.2003     262.4901
   1413.19458     372.1385     261.5667   1413.19458     372.1385     261.5667
   1413.17932     369.6306     259.7556   1413.17932     369.6306     259.7556
   1413.16406     367.7860     259.2025   1413.16406     367.7860     259.2025
   1413.14880     365.5079     258.0887   1413.14880     365.5079     258.0887
   1413.13354     364.1555     257.0116   1413.13354     364.1555     257.0116
   1413.11829     361.6700     256.4203   1413.11829     361.6700     256.4203
   1413.10303     360.1498     255.1320   1413.10303     360.1498     255.1320
   1413.08777     358.1160     254.0592   1413.08777     358.1160     254.0592
   1413.07251     356.4167     253.3003   1413.07251     356.4167     253.3003
   1413.05725     353.6842     251.9579   1413.05725     353.6842     251.9579
   1413.04199     352.3055     251.0977   1413.04199     352.3055     251.0977
   1413.02673     350.1570     250.1073   1413.02673     350.1570     250.1073
   1413.01147     348.6072     249.2707   1413.01147     348.6072     249.2707
   1412.99622     346.7309     247.9781   1412.99622     346.7309     247.9781
   1412.98096     344.8502     247.6859   1412.98096     344.8502     247.6859
   1412.96570     343.6061     246.6723   1412.96570     343.6061     246.6723
   1412.95044     341.9517     246.0668   1412.95044     341.9517     246.0668
   1412.93518     339.7572     244.9550   1412.93518     339.7572     244.9550
   1412.91992     338.6490     244.4005   1412.91992     338.6490     244.4005
   1412.90466     336.7589     243.3809   1412.90466     336.7589     243.3809
   1412.88940     335.7909     242.8113   1412.88940     335.7909     242.8113
   1412.87415     333.7557     241.9059   1412.87415     333.7557     241.9059
   1412.85889     332.2504     241.2061   1412.85889     332.2504     241.2061
   1412.84363     330.9062     240.7359   1412.84363     330.9062     240.7359
   1412.82837     329.5800     239.8936   1412.82837     329.5800     239.8936
   1412.81311     327.9176     239.4380   1412.81311     327.9176     239.4380
   1412.79785     326.9855     238.5903   1412.79785     326.9855     238.5903
   1412.78259     325.9264     238.2117   1412.78259     325.9264     238.2117
   1412.76733     323.9170     237.3678   1412.76733     323.9170     237.3678
   1412.75208     322.9087     237.3734   1412.75208     322.9087     237.3734
   1412.73682     322.1231     236.5645   1412.73682     322.1231     236.5645
   1412.72156     321.1894     236.6359   1412.72156     321.1894     236.6359
   1412.70630     320.0557     235.6497   1412.70630     320.0557     235.6497
   1412.69104     319.6595     235.4577   1412.69104     319.6595     235.4577
   1412.67578     317.7048     234.7768   1412.67578     317.7048     234.7768
   1412.66052     317.0930     234.9174   1412.66052     317.0930     234.9174
   1412.64526     315.7431     234.5453   1412.64526     315.7431     234.5453
   1412.63000     315.1542     234.1940   1412.63000     315.1542     234.1940
   1412.61475     314.5312     233.6699   1412.61475     314.5312     233.6699
   1412.59949     313.4321     233.7851   1412.59949     313.4321     233.7851
   1412.58423     312.9771     233.3801   1412.58423     312.9771     233.3801
   1412.56897     312.2782     233.4178   1412.56897     312.2782     233.4178
   1412.55371     310.9387     232.9704   1412.55371     310.9387     232.9704
   1412.53845     310.6136     233.0896   1412.53845     310.6136     233.0896
   1412.52319     310.1907     232.7966   1412.52319     310.1907     232.7966
   1412.50793     309.6282     232.7269   1412.50793     309.6282     232.7269
   1412.49268     309.4584     233.0614   1412.49268     309.4584     233.0614
   1412.47742     308.9514     232.9971   1412.47742     308.9514     232.9971
   1412.46216     308.1446     233.0840   1412.46216     308.1446     233.0840
   1412.44690     307.8608     233.0699   1412.44690     307.8608     233.0699
   1412.43164     307.4859     233.3939   1412.43164     307.4859     233.3939
   1412.41638     307.7840     233.2693   1412.41638     307.7840     233.2693
   1412.40112     307.6933     233.4807   1412.40112     307.6933     233.4807
   1412.38586     307.0761     233.7896   1412.38586     307.0761     233.7896
   1412.37061     306.9044     234.0780   1412.37061     306.9044     234.0780
   1412.35535     306.9299     234.4799   1412.35535     306.9299     234.4799
   1412.34009     307.5011     234.4445   1412.34009     307.5011     234.4445
   1412.32483     306.8237     234.8960   1412.32483     306.8237     234.8960
   1412.30957     307.1378     235.6866   1412.30957     307.1378     235.6866
   1412.29431     307.8620     235.9856   1412.29431     307.8620     235.9856
   1412.27905     307.7804     236.3850   1412.27905     307.7804     236.3850
   1412.26379     307.5486     236.6914   1412.26379     307.5486     236.6914
   1412.24854     308.4427     236.9796   1412.24854     308.4427     236.9796
   1412.23328     308.8242     237.6305   1412.23328     308.8242     237.6305
   1412.21802     308.6633     238.1908   1412.21802     308.6633     238.1908
   1412.20276     309.6561     238.9179   1412.20276     309.6561     238.9179