#     FILENAME=!Skynet_57535_lach-hhg-248-2_20901_21314.cyb.fits
#     BASENAME=Skynet_57535_lach-hhg-248-2_20901_21314
#     SRC_NAME=lach-hhg-248-2
#     OBSERVER=hhgmadison16_9500
#     DATE_OBS=2016-05-27T21:34:03.620
#        OBSID=20901
#      SCANNUM=21314
#          MJD=57535.8997
#          UTC=77733
#     SCANTYPE=track
#     DATAMODE=HIRES
#     TUNEFREQ=1420.0000
# Actual_FREQ1=1420.0000
# Actual_FREQ2=1420.0000
#    LO1Tuning=6870.000
#     RFFILTER=1355_1435
#        OBSBW=-15.6250
#        NCHAN=1024 
#        FOCUS=37.0709
#           RA=08:02:27.81
#          DEC=-30:45:14.53
#      RA(hrs)=8.041100
#     DEC(deg)=-30.754000
#    AZIM(deg)=187.508
#    ELEV(deg)=20.137
#     IFattens=10.00, 9.00
#      WARNING=None
#    TCAL_XL1=7.9635
#    TCAL_YR1=9.1340
#    TCAL_XL2=7.9635
#    TCAL_YR2=9.1340
#     TRX_XL1=11.7060
#     TRX_YR1=11.7060
#     TRX_XL2=11.7060
#     TRX_YR2=11.7060
#        TAVE=1.0000
#Freq1(MHz)          XL1          YR1  Freq2(MHz)          XL2          YR2 

   1427.81250     385.8387     244.4287   1427.81250     385.8387     244.4287
   1427.79724     386.2107     244.4772   1427.79724     386.2107     244.4772
   1427.78198     387.8805     245.1375   1427.78198     387.8805     245.1375
   1427.76672     388.2571     245.0286   1427.76672     388.2571     245.0286
   1427.75146     388.8214     245.8257   1427.75146     388.8214     245.8257
   1427.73621     390.2911     246.2122   1427.73621     390.2911     246.2122
   1427.72095     391.8400     246.5513   1427.72095     391.8400     246.5513
   1427.70569     392.2101     247.1202   1427.70569     392.2101     247.1202
   1427.69043     392.8611     248.1363   1427.69043     392.8611     248.1363
   1427.67517     394.2534     248.4865   1427.67517     394.2534     248.4865
   1427.65991     395.8819     248.8100   1427.65991     395.8819     248.8100
   1427.64465     395.9977     249.4896   1427.64465     395.9977     249.4896
   1427.62939     397.7635     250.1951   1427.62939     397.7635     250.1951
   1427.61414     398.8877     251.0635   1427.61414     398.8877     251.0635
   1427.59888     400.1488     251.6254   1427.59888     400.1488     251.6254
   1427.58362     401.9318     252.3175   1427.58362     401.9318     252.3175
   1427.56836     403.4700     253.3309   1427.56836     403.4700     253.3309
   1427.55310     404.8035     254.4107   1427.55310     404.8035     254.4107
   1427.53784     407.0446     255.1546   1427.53784     407.0446     255.1546
   1427.52258     407.6928     256.0400   1427.52258     407.6928     256.0400
   1427.50732     409.1858     256.8427   1427.50732     409.1858     256.8427
   1427.49207     411.4594     258.0848   1427.49207     411.4594     258.0848
   1427.47681     412.7016     258.9945   1427.47681     412.7016     258.9945
   1427.46155     414.9821     260.3201   1427.46155     414.9821     260.3201
   1427.44629     417.0057     261.1114   1427.44629     417.0057     261.1114
   1427.43103     418.5491     262.5777   1427.43103     418.5491     262.5777
   1427.41577     420.4474     263.3583   1427.41577     420.4474     263.3583
   1427.40051     422.4127     264.7208   1427.40051     422.4127     264.7208
   1427.38525     423.4566     265.7567   1427.38525     423.4566     265.7567
   1427.37000     426.8642     266.7816   1427.37000     426.8642     266.7816
   1427.35474     428.5950     268.4365   1427.35474     428.5950     268.4365
   1427.33948     430.2292     269.3028   1427.33948     430.2292     269.3028
   1427.32422     432.3808     271.2805   1427.32422     432.3808     271.2805
   1427.30896     434.7593     271.9828   1427.30896     434.7593     271.9828
   1427.29370     437.1213     274.0883   1427.29370     437.1213     274.0883
   1427.27844     439.1974     275.2163   1427.27844     439.1974     275.2163
   1427.26318     440.8498     276.5798   1427.26318     440.8498     276.5798
   1427.24792     443.4423     278.4437   1427.24792     443.4423     278.4437
   1427.23267     445.8983     279.5866   1427.23267     445.8983     279.5866
   1427.21741     448.1922     281.4854   1427.21741     448.1922     281.4854
   1427.20215     450.6518     282.5986   1427.20215     450.6518     282.5986
   1427.18689     453.2241     284.3984   1427.18689     453.2241     284.3984
   1427.17163     455.6418     286.2314   1427.17163     455.6418     286.2314
   1427.15637     457.8994     287.4313   1427.15637     457.8994     287.4313
   1427.14111     460.3994     289.3145   1427.14111     460.3994     289.3145
   1427.12585     462.1704     291.2469   1427.12585     462.1704     291.2469
   1427.11060     465.2999     292.7225   1427.11060     465.2999     292.7225
   1427.09534     468.4816     294.6604   1427.09534     468.4816     294.6604
   1427.08008     469.8416     295.9843   1427.08008     469.8416     295.9843
   1427.06482     473.6979     297.8882   1427.06482     473.6979     297.8882
   1427.04956     475.2869     299.9620   1427.04956     475.2869     299.9620
   1427.03430     477.9351     301.7451   1427.03430     477.9351     301.7451
   1427.01904     479.9852     303.1216   1427.01904     479.9852     303.1216
   1427.00378     483.8813     305.4312   1427.00378     483.8813     305.4312
   1426.98853     486.0680     306.8222   1426.98853     486.0680     306.8222
   1426.97327     489.3255     308.6970   1426.97327     489.3255     308.6970
   1426.95801     491.8410     310.4130   1426.95801     491.8410     310.4130
   1426.94275     493.9961     312.6800   1426.94275     493.9961     312.6800
   1426.92749     497.1800     314.5209   1426.92749     497.1800     314.5209
   1426.91223     499.9585     316.6280   1426.91223     499.9585     316.6280
   1426.89697     502.4757     318.4252   1426.89697     502.4757     318.4252
   1426.88171     505.4987     320.3596   1426.88171     505.4987     320.3596
   1426.86646     508.4885     322.1420   1426.86646     508.4885     322.1420
   1426.85120     511.0544     324.4823   1426.85120     511.0544     324.4823
   1426.83594     513.0585     326.9648   1426.83594     513.0585     326.9648
   1426.82068     516.5102     328.6760   1426.82068     516.5102     328.6760
   1426.80542     518.6226     330.4233   1426.80542     518.6226     330.4233
   1426.79016     522.1517     333.3723   1426.79016     522.1517     333.3723
   1426.77490     524.2589     334.5555   1426.77490     524.2589     334.5555
   1426.75964     527.8885     336.6603   1426.75964     527.8885     336.6603
   1426.74438     530.5112     338.3757   1426.74438     530.5112     338.3757
   1426.72913     533.7692     340.9326   1426.72913     533.7692     340.9326
   1426.71387     536.3184     342.9507   1426.71387     536.3184     342.9507
   1426.69861     540.4917     345.2834   1426.69861     540.4917     345.2834
   1426.68335     542.9210     346.4746   1426.68335     542.9210     346.4746
   1426.66809     545.2957     348.9529   1426.66809     545.2957     348.9529
   1426.65283     547.7140     350.7805   1426.65283     547.7140     350.7805
   1426.63757     550.3741     353.1223   1426.63757     550.3741     353.1223
   1426.62231     554.2844     355.5434   1426.62231     554.2844     355.5434
   1426.60706     557.0232     357.7656   1426.60706     557.0232     357.7656
   1426.59180     559.8437     359.6656   1426.59180     559.8437     359.6656
   1426.57654     562.8029     361.6376   1426.57654     562.8029     361.6376
   1426.56128     564.8488     363.9134   1426.56128     564.8488     363.9134
   1426.54602     568.2171     365.6334   1426.54602     568.2171     365.6334
   1426.53076     570.3640     367.9450   1426.53076     570.3640     367.9450
   1426.51550     573.5123     370.2495   1426.51550     573.5123     370.2495
   1426.50024     577.2658     371.9637   1426.50024     577.2658     371.9637
   1426.48499     578.5341     374.8307   1426.48499     578.5341     374.8307
   1426.46973     581.6527     376.7052   1426.46973     581.6527     376.7052
   1426.45447     584.7230     378.9669   1426.45447     584.7230     378.9669
   1426.43921     587.4196     380.5534   1426.43921     587.4196     380.5534
   1426.42395     589.7184     382.6990   1426.42395     589.7184     382.6990
   1426.40869     593.7084     385.0263   1426.40869     593.7084     385.0263
   1426.39343     595.9800     386.5606   1426.39343     595.9800     386.5606
   1426.37817     597.6473     388.6961   1426.37817     597.6473     388.6961
   1426.36292     601.1566     390.6709   1426.36292     601.1566     390.6709
   1426.34766     603.9835     393.3267   1426.34766     603.9835     393.3267
   1426.33240     606.8395     395.0664   1426.33240     606.8395     395.0664
   1426.31714     609.4214     397.1438   1426.31714     609.4214     397.1438
   1426.30188     611.8914     399.6440   1426.30188     611.8914     399.6440
   1426.28662     613.7408     401.0777   1426.28662     613.7408     401.0777
   1426.27136     617.2762     403.2766   1426.27136     617.2762     403.2766
   1426.25610     618.3679     404.7323   1426.25610     618.3679     404.7323
   1426.24084     621.0320     406.7415   1426.24084     621.0320     406.7415
   1426.22559     624.3846     410.1147   1426.22559     624.3846     410.1147
   1426.21033     626.3771     411.0483   1426.21033     626.3771     411.0483
   1426.19507     629.2343     412.9128   1426.19507     629.2343     412.9128
   1426.17981     632.1092     415.4708   1426.17981     632.1092     415.4708
   1426.16455     634.2429     417.4254   1426.16455     634.2429     417.4254
   1426.14929     637.7515     419.2450   1426.14929     637.7515     419.2450
   1426.13403     639.8441     421.2101   1426.13403     639.8441     421.2101
   1426.11877     643.0143     423.0052   1426.11877     643.0143     423.0052
   1426.10352     644.2841     424.4417   1426.10352     644.2841     424.4417
   1426.08826     646.6730     427.3376   1426.08826     646.6730     427.3376
   1426.07300     648.0250     428.7677   1426.07300     648.0250     428.7677
   1426.05774     650.9424     430.0439   1426.05774     650.9424     430.0439
   1426.04248     653.7704     431.9752   1426.04248     653.7704     431.9752
   1426.02722     656.1464     434.7604   1426.02722     656.1464     434.7604
   1426.01196     658.3802     435.8557   1426.01196     658.3802     435.8557
   1425.99670     659.5856     438.3230   1425.99670     659.5856     438.3230
   1425.98145     663.0738     440.1675   1425.98145     663.0738     440.1675
   1425.96619     664.6522     441.5105   1425.96619     664.6522     441.5105
   1425.95093     667.2990     443.1599   1425.95093     667.2990     443.1599
   1425.93567     669.3848     444.3339   1425.93567     669.3848     444.3339
   1425.92041     671.4846     446.2987   1425.92041     671.4846     446.2987
   1425.90515     673.5163     448.0595   1425.90515     673.5163     448.0595
   1425.88989     674.7175     450.4581   1425.88989     674.7175     450.4581
   1425.87463     676.5118     451.4113   1425.87463     676.5118     451.4113
   1425.85938     680.3594     453.2325   1425.85938     680.3594     453.2325
   1425.84412     680.9595     455.0613   1425.84412     680.9595     455.0613
   1425.82886     683.3918     456.6799   1425.82886     683.3918     456.6799
   1425.81360     685.7499     457.7684   1425.81360     685.7499     457.7684
   1425.79834     686.9651     460.1885   1425.79834     686.9651     460.1885
   1425.78308     689.4587     461.2808   1425.78308     689.4587     461.2808
   1425.76782     690.8808     462.3503   1425.76782     690.8808     462.3503
   1425.75256     691.8308     464.0675   1425.75256     691.8308     464.0675
   1425.73730     694.0496     465.4978   1425.73730     694.0496     465.4978
   1425.72205     695.6188     467.5853   1425.72205     695.6188     467.5853
   1425.70679     699.1248     469.1039   1425.70679     699.1248     469.1039
   1425.69153     698.9894     469.9901   1425.69153     698.9894     469.9901
   1425.67627     702.1904     472.2128   1425.67627     702.1904     472.2128
   1425.66101     702.3605     472.6894   1425.66101     702.3605     472.6894
   1425.64575     705.1145     474.8138   1425.64575     705.1145     474.8138
   1425.63049     707.0605     476.2820   1425.63049     707.0605     476.2820
   1425.61523     708.4661     476.5591   1425.61523     708.4661     476.5591
   1425.59998     709.4753     479.1805   1425.59998     709.4753     479.1805
   1425.58472     710.8301     480.3340   1425.58472     710.8301     480.3340
   1425.56946     712.1436     481.8918   1425.56946     712.1436     481.8918
   1425.55420     713.2271     483.4162   1425.55420     713.2271     483.4162
   1425.53894     714.2491     484.5339   1425.53894     714.2491     484.5339
   1425.52368     717.1557     485.3868   1425.52368     717.1557     485.3868
   1425.50842     718.7872     486.1106   1425.50842     718.7872     486.1106
   1425.49316     719.5788     488.0204   1425.49316     719.5788     488.0204
   1425.47791     721.7151     489.8079   1425.47791     721.7151     489.8079
   1425.46265     721.7828     490.5336   1425.46265     721.7828     490.5336
   1425.44739     722.1742     491.9923   1425.44739     722.1742     491.9923
   1425.43213     724.3362     493.6121   1425.43213     724.3362     493.6121
   1425.41687     726.2856     494.1136   1425.41687     726.2856     494.1136
   1425.40161     728.0487     495.5091   1425.40161     728.0487     495.5091
   1425.38635     728.3004     496.5018   1425.38635     728.3004     496.5018
   1425.37109     728.5878     497.8385   1425.37109     728.5878     497.8385
   1425.35583     730.6613     498.7664   1425.35583     730.6613     498.7664
   1425.34058     732.2919     500.1895   1425.34058     732.2919     500.1895
   1425.32532     731.8108     501.2751   1425.32532     731.8108     501.2751
   1425.31006     733.1616     502.3285   1425.31006     733.1616     502.3285
   1425.29480     734.2485     503.5023   1425.29480     734.2485     503.5023
   1425.27954     735.3708     504.8223   1425.27954     735.3708     504.8223
   1425.26428     736.3218     504.8998   1425.26428     736.3218     504.8998
   1425.24902     737.9012     507.1473   1425.24902     737.9012     507.1473
   1425.23376     739.0857     507.9276   1425.23376     739.0857     507.9276
   1425.21851     738.8985     508.9805   1425.21851     738.8985     508.9805
   1425.20325     739.9236     510.2434   1425.20325     739.9236     510.2434
   1425.18799     740.7124     510.9124   1425.18799     740.7124     510.9124
   1425.17273     740.6241     511.3877   1425.17273     740.6241     511.3877
   1425.15747     742.7129     513.6435   1425.15747     742.7129     513.6435
   1425.14221     743.2890     514.1378   1425.14221     743.2890     514.1378
   1425.12695     744.3340     514.1562   1425.12695     744.3340     514.1562
   1425.11169     745.2214     516.4235   1425.11169     745.2214     516.4235
   1425.09644     745.5688     516.8737   1425.09644     745.5688     516.8737
   1425.08118     746.4932     517.4139   1425.08118     746.4932     517.4139
   1425.06592     746.4001     518.8121   1425.06592     746.4001     518.8121
   1425.05066     746.3818     519.3796   1425.05066     746.3818     519.3796
   1425.03540     749.0044     519.9575   1425.03540     749.0044     519.9575
   1425.02014     748.2599     520.9317   1425.02014     748.2599     520.9317
   1425.00488     749.8433     522.8853   1425.00488     749.8433     522.8853
   1424.98962     750.4085     522.4284   1424.98962     750.4085     522.4284
   1424.97437     750.4738     524.2011   1424.97437     750.4738     524.2011
   1424.95911     751.5258     525.2551   1424.95911     751.5258     525.2551
   1424.94385     751.7756     526.7928   1424.94385     751.7756     526.7928
   1424.92859     750.7472     526.2641   1424.92859     750.7472     526.2641
   1424.91333     751.1118     527.0632   1424.91333     751.1118     527.0632
   1424.89807     752.5912     528.0504   1424.89807     752.5912     528.0504
   1424.88281     754.3201     528.1737   1424.88281     754.3201     528.1737
   1424.86755     754.4282     529.9417   1424.86755     754.4282     529.9417
   1424.85229     753.9849     530.3926   1424.85229     753.9849     530.3926
   1424.83704     755.1526     531.4417   1424.83704     755.1526     531.4417
   1424.82178     755.0528     532.2650   1424.82178     755.0528     532.2650
   1424.80652     755.8605     531.8703   1424.80652     755.8605     531.8703
   1424.79126     755.1802     533.2007   1424.79126     755.1802     533.2007
   1424.77600     755.2656     533.7438   1424.77600     755.2656     533.7438
   1424.76074     757.0992     533.6331   1424.76074     757.0992     533.6331
   1424.74548     757.1979     534.6353   1424.74548     757.1979     534.6353
   1424.73022     755.1542     535.5483   1424.73022     755.1542     535.5483
   1424.71497     758.0236     537.2245   1424.71497     758.0236     537.2245
   1424.69971     757.1539     536.4315   1424.69971     757.1539     536.4315
   1424.68445     756.0106     537.8782   1424.68445     756.0106     537.8782
   1424.66919     757.5361     539.5301   1424.66919     757.5361     539.5301
   1424.65393     758.6605     539.8072   1424.65393     758.6605     539.8072
   1424.63867     757.1106     539.2980   1424.63867     757.1106     539.2980
   1424.62341     758.2282     540.9389   1424.62341     758.2282     540.9389
   1424.60815     757.3065     541.0895   1424.60815     757.3065     541.0895
   1424.59290     758.5897     541.2204   1424.59290     758.5897     541.2204
   1424.57764     757.8072     542.0419   1424.57764     757.8072     542.0419
   1424.56238     758.8945     543.2731   1424.56238     758.8945     543.2731
   1424.54712     759.8083     543.3327   1424.54712     759.8083     543.3327
   1424.53186     757.5950     544.2821   1424.53186     757.5950     544.2821
   1424.51660     758.6060     544.7661   1424.51660     758.6060     544.7661
   1424.50134     759.5899     545.0084   1424.50134     759.5899     545.0084
   1424.48608     759.2372     546.8470   1424.48608     759.2372     546.8470
   1424.47083     760.3671     545.7268   1424.47083     760.3671     545.7268
   1424.45557     758.6104     547.5368   1424.45557     758.6104     547.5368
   1424.44031     758.7350     547.9104   1424.44031     758.7350     547.9104
   1424.42505     759.4037     548.0908   1424.42505     759.4037     548.0908
   1424.40979     759.2286     548.3824   1424.40979     759.2286     548.3824
   1424.39453     759.2462     550.2501   1424.39453     759.2462     550.2501
   1424.37927     760.4609     548.5706   1424.37927     760.4609     548.5706
   1424.36401     759.2433     549.8712   1424.36401     759.2433     549.8712
   1424.34875     759.2031     550.5142   1424.34875     759.2031     550.5142
   1424.33350     758.9600     551.3485   1424.33350     758.9600     551.3485
   1424.31824     759.6864     551.8667   1424.31824     759.6864     551.8667
   1424.30298     760.1703     552.7932   1424.30298     760.1703     552.7932
   1424.28772     760.9844     552.3867   1424.28772     760.9844     552.3867
   1424.27246     760.3194     553.4987   1424.27246     760.3194     553.4987
   1424.25720     760.2262     552.7463   1424.25720     760.2262     552.7463
   1424.24194     758.1392     554.2865   1424.24194     758.1392     554.2865
   1424.22668     759.6440     553.8701   1424.22668     759.6440     553.8701
   1424.21143     758.8525     554.3376   1424.21143     758.8525     554.3376
   1424.19617     758.8926     555.5405   1424.19617     758.8926     555.5405
   1424.18091     759.9260     555.8021   1424.18091     759.9260     555.8021
   1424.16565     760.3259     555.2762   1424.16565     760.3259     555.2762
   1424.15039     759.4456     556.5214   1424.15039     759.4456     556.5214
   1424.13513     760.6680     556.9570   1424.13513     760.6680     556.9570
   1424.11987     759.7869     557.1478   1424.11987     759.7869     557.1478
   1424.10461     759.4937     557.3887   1424.10461     759.4937     557.3887
   1424.08936     759.5011     558.6042   1424.08936     759.5011     558.6042
   1424.07410     759.9099     558.8552   1424.07410     759.9099     558.8552
   1424.05884     759.2352     557.8061   1424.05884     759.2352     557.8061
   1424.04358     758.8970     559.2966   1424.04358     758.8970     559.2966
   1424.02832     758.3007     559.2498   1424.02832     758.3007     559.2498
   1424.01306     759.7015     559.8483   1424.01306     759.7015     559.8483
   1423.99780     757.3448     561.1964   1423.99780     757.3448     561.1964
   1423.98254     759.2981     561.1545   1423.98254     759.2981     561.1545
   1423.96729     759.5381     561.1437   1423.96729     759.5381     561.1437
   1423.95203     759.7987     560.8260   1423.95203     759.7987     560.8260
   1423.93677     759.3561     561.7191   1423.93677     759.3561     561.7191
   1423.92151     758.2733     562.5046   1423.92151     758.2733     562.5046
   1423.90625     758.5220     561.8604   1423.90625     758.5220     561.8604
   1423.89099     758.3800     563.6577   1423.89099     758.3800     563.6577
   1423.87573     758.4973     563.5572   1423.87573     758.4973     563.5572
   1423.86047     757.7394     563.3119   1423.86047     757.7394     563.3119
   1423.84521     758.3507     563.3707   1423.84521     758.3507     563.3707
   1423.82996     758.5262     564.9193   1423.82996     758.5262     564.9193
   1423.81470     758.3186     565.2381   1423.81470     758.3186     565.2381
   1423.79944     757.7563     564.2367   1423.79944     757.7563     564.2367
   1423.78418     757.1265     566.3230   1423.78418     757.1265     566.3230
   1423.76892     758.1843     566.0902   1423.76892     758.1843     566.0902
   1423.75366     757.2106     565.6194   1423.75366     757.2106     565.6194
   1423.73840     757.0295     564.9711   1423.73840     757.0295     564.9711
   1423.72314     756.6415     565.2661   1423.72314     756.6415     565.2661
   1423.70789     756.5186     566.0692   1423.70789     756.5186     566.0692
   1423.69263     757.1534     566.5336   1423.69263     757.1534     566.5336
   1423.67737     756.8687     566.2551   1423.67737     756.8687     566.2551
   1423.66211     757.2748     566.8993   1423.66211     757.2748     566.8993
   1423.64685     756.0264     567.7630   1423.64685     756.0264     567.7630
   1423.63159     756.5171     567.2189   1423.63159     756.5171     567.2189
   1423.61633     756.5665     568.0255   1423.61633     756.5665     568.0255
   1423.60107     755.7236     567.5607   1423.60107     755.7236     567.5607
   1423.58582     756.0275     567.6777   1423.58582     756.0275     567.6777
   1423.57056     754.6685     567.8151   1423.57056     754.6685     567.8151
   1423.55530     756.1884     569.0787   1423.55530     756.1884     569.0787
   1423.54004     756.0686     569.0192   1423.54004     756.0686     569.0192
   1423.52478     755.8860     567.8788   1423.52478     755.8860     567.8788
   1423.50952     753.9713     569.1524   1423.50952     753.9713     569.1524
   1423.49426     755.1793     568.5805   1423.49426     755.1793     568.5805
   1423.47900     755.6302     569.3420   1423.47900     755.6302     569.3420
   1423.46375     755.3507     568.4633   1423.46375     755.3507     568.4633
   1423.44849     754.2228     568.6579   1423.44849     754.2228     568.6579
   1423.43323     754.9761     568.3566   1423.43323     754.9761     568.3566
   1423.41797     754.3378     568.8478   1423.41797     754.3378     568.8478
   1423.40271     755.2063     569.1019   1423.40271     755.2063     569.1019
   1423.38745     754.2985     568.3875   1423.38745     754.2985     568.3875
   1423.37219     753.6825     569.8242   1423.37219     753.6825     569.8242
   1423.35693     752.9086     568.9771   1423.35693     752.9086     568.9771
   1423.34167     753.5667     569.3020   1423.34167     753.5667     569.3020
   1423.32642     754.8089     569.2480   1423.32642     754.8089     569.2480
   1423.31116     753.3357     568.8182   1423.31116     753.3357     568.8182
   1423.29590     753.1135     568.8416   1423.29590     753.1135     568.8416
   1423.28064     753.7124     568.9519   1423.28064     753.7124     568.9519
   1423.26538     754.2031     568.7990   1423.26538     754.2031     568.7990
   1423.25012     753.3212     568.8505   1423.25012     753.3212     568.8505
   1423.23486     753.3764     568.0517   1423.23486     753.3764     568.0517
   1423.21960     752.2804     568.9633   1423.21960     752.2804     568.9633
   1423.20435     751.8427     568.7219   1423.20435     751.8427     568.7219
   1423.18909     751.9428     566.9651   1423.18909     751.9428     566.9651
   1423.17383     751.2484     567.8329   1423.17383     751.2484     567.8329
   1423.15857     751.1774     567.9681   1423.15857     751.1774     567.9681
   1423.14331     751.8964     567.9862   1423.14331     751.8964     567.9862
   1423.12805     752.2574     567.8665   1423.12805     752.2574     567.8665
   1423.11279     751.6708     567.8946   1423.11279     751.6708     567.8946
   1423.09753     750.3427     566.6998   1423.09753     750.3427     566.6998
   1423.08228     750.7903     567.5209   1423.08228     750.7903     567.5209
   1423.06702     750.9210     567.1759   1423.06702     750.9210     567.1759
   1423.05176     751.0676     566.1990   1423.05176     751.0676     566.1990
   1423.03650     751.1011     567.1399   1423.03650     751.1011     567.1399
   1423.02124     750.8668     566.7584   1423.02124     750.8668     566.7584
   1423.00598     750.4872     565.7903   1423.00598     750.4872     565.7903
   1422.99072     748.9461     565.1355   1422.99072     748.9461     565.1355
   1422.97546     749.1311     565.5596   1422.97546     749.1311     565.5596
   1422.96021     749.4366     565.2976   1422.96021     749.4366     565.2976
   1422.94495     748.9127     564.2427   1422.94495     748.9127     564.2427
   1422.92969     748.9113     564.9857   1422.92969     748.9113     564.9857
   1422.91443     749.7867     564.0353   1422.91443     749.7867     564.0353
   1422.89917     748.2626     563.3745   1422.89917     748.2626     563.3745
   1422.88391     749.5287     562.3804   1422.88391     749.5287     562.3804
   1422.86865     748.2923     562.9154   1422.86865     748.2923     562.9154
   1422.85339     746.6016     562.4518   1422.85339     746.6016     562.4518
   1422.83813     748.8038     562.6174   1422.83813     748.8038     562.6174
   1422.82288     747.6130     561.8444   1422.82288     747.6130     561.8444
   1422.80762     747.0610     560.7226   1422.80762     747.0610     560.7226
   1422.79236     748.7608     560.7784   1422.79236     748.7608     560.7784
   1422.77710     745.9118     560.3798   1422.77710     745.9118     560.3798
   1422.76184     746.8140     558.9252   1422.76184     746.8140     558.9252
   1422.74658     746.3703     559.4669   1422.74658     746.3703     559.4669
   1422.73132     745.7851     558.1294   1422.73132     745.7851     558.1294
   1422.71606     746.0831     558.0566   1422.71606     746.0831     558.0566
   1422.70081     745.5855     558.1410   1422.70081     745.5855     558.1410
   1422.68555     745.9399     557.5380   1422.68555     745.9399     557.5380
   1422.67029     747.1953     556.5228   1422.67029     747.1953     556.5228
   1422.65503     744.7502     555.4625   1422.65503     744.7502     555.4625
   1422.63977     743.9519     555.4350   1422.63977     743.9519     555.4350
   1422.62451     745.4130     554.3151   1422.62451     745.4130     554.3151
   1422.60925     743.5870     553.8618   1422.60925     743.5870     553.8618
   1422.59399     744.6408     552.3596   1422.59399     744.6408     552.3596
   1422.57874     743.7563     552.2319   1422.57874     743.7563     552.2319
   1422.56348     742.9897     550.9070   1422.56348     742.9897     550.9070
   1422.54822     742.7963     550.4598   1422.54822     742.7963     550.4598
   1422.53296     742.6343     549.8778   1422.53296     742.6343     549.8778
   1422.51770     742.2368     549.5499   1422.51770     742.2368     549.5499
   1422.50244     742.2257     549.0432   1422.50244     742.2257     549.0432
   1422.48718     742.4258     547.4954   1422.48718     742.4258     547.4954
   1422.47192     741.5663     547.7323   1422.47192     741.5663     547.7323
   1422.45667     741.4128     546.3910   1422.45667     741.4128     546.3910
   1422.44141     742.8076     545.5521   1422.44141     742.8076     545.5521
   1422.42615     741.3677     545.2320   1422.42615     741.3677     545.2320
   1422.41089     739.9808     543.8401   1422.41089     739.9808     543.8401
   1422.39563     739.4476     543.1236   1422.39563     739.4476     543.1236
   1422.38037     739.2441     542.3250   1422.38037     739.2441     542.3250
   1422.36511     739.2480     542.2869   1422.36511     739.2480     542.2869
   1422.34985     739.8664     541.1798   1422.34985     739.8664     541.1798
   1422.33459     738.9401     539.7565   1422.33459     738.9401     539.7565
   1422.31934     738.9869     539.4820   1422.31934     738.9869     539.4820
   1422.30408     739.0589     538.3555   1422.30408     739.0589     538.3555
   1422.28882     738.8221     537.6109   1422.28882     738.8221     537.6109
   1422.27356     738.2776     537.1078   1422.27356     738.2776     537.1078
   1422.25830     737.9777     535.7584   1422.25830     737.9777     535.7584
   1422.24304     737.1488     535.3002   1422.24304     737.1488     535.3002
   1422.22778     737.4361     533.4439   1422.22778     737.4361     533.4439
   1422.21252     735.8594     532.2724   1422.21252     735.8594     532.2724
   1422.19727     736.4516     531.9282   1422.19727     736.4516     531.9282
   1422.18201     736.4111     531.2368   1422.18201     736.4111     531.2368
   1422.16675     734.8083     530.2036   1422.16675     734.8083     530.2036
   1422.15149     735.5183     528.8288   1422.15149     735.5183     528.8288
   1422.13623     734.4882     527.5235   1422.13623     734.4882     527.5235
   1422.12097     733.2534     526.9885   1422.12097     733.2534     526.9885
   1422.10571     733.4411     525.2696   1422.10571     733.4411     525.2696
   1422.09045     734.0050     524.9378   1422.09045     734.0050     524.9378
   1422.07520     733.0720     524.0310   1422.07520     733.0720     524.0310
   1422.05994     731.6526     523.3870   1422.05994     731.6526     523.3870
   1422.04468     732.2219     521.5942   1422.04468     732.2219     521.5942
   1422.02942     731.5405     520.7183   1422.02942     731.5405     520.7183
   1422.01416     732.5278     519.5857   1422.01416     732.5278     519.5857
   1421.99890     731.8795     518.5963   1421.99890     731.8795     518.5963
   1421.98364     731.2825     518.2018   1421.98364     731.2825     518.2018
   1421.96838     729.9960     516.5623   1421.96838     729.9960     516.5623
   1421.95312     730.4989     515.2127   1421.95312     730.4989     515.2127
   1421.93787     730.2780     514.9078   1421.93787     730.2780     514.9078
   1421.92261     730.4731     513.2328   1421.92261     730.4731     513.2328
   1421.90735     728.6968     512.1321   1421.90735     728.6968     512.1321
   1421.89209     728.5338     510.8000   1421.89209     728.5338     510.8000
   1421.87683     727.4995     511.2687   1421.87683     727.4995     511.2687
   1421.86157     727.8351     508.8202   1421.86157     727.8351     508.8202
   1421.84631     728.2838     508.1774   1421.84631     728.2838     508.1774
   1421.83105     726.4665     506.4574   1421.83105     726.4665     506.4574
   1421.81580     726.6206     505.6744   1421.81580     726.6206     505.6744
   1421.80054     725.8370     504.9587   1421.80054     725.8370     504.9587
   1421.78528     726.0830     502.5924   1421.78528     726.0830     502.5924
   1421.77002     724.9661     502.1147   1421.77002     724.9661     502.1147
   1421.75476     725.5813     501.4934   1421.75476     725.5813     501.4934
   1421.73950     724.6089     499.8326   1421.73950     724.6089     499.8326
   1421.72424     724.4719     499.4434   1421.72424     724.4719     499.4434
   1421.70898     722.6038     497.2445   1421.70898     722.6038     497.2445
   1421.69373     722.9922     496.6041   1421.69373     722.9922     496.6041
   1421.67847     723.1505     495.7525   1421.67847     723.1505     495.7525
   1421.66321     722.9109     494.3892   1421.66321     722.9109     494.3892
   1421.64795     722.1619     493.1964   1421.64795     722.1619     493.1964
   1421.63269     721.1599     492.0479   1421.63269     721.1599     492.0479
   1421.61743     721.6411     490.4893   1421.61743     721.6411     490.4893
   1421.60217     720.9606     490.0703   1421.60217     720.9606     490.0703
   1421.58691     720.3461     488.7841   1421.58691     720.3461     488.7841
   1421.57166     718.8663     486.9431   1421.57166     718.8663     486.9431
   1421.55640     718.6577     486.8415   1421.55640     718.6577     486.8415
   1421.54114     719.6085     485.0619   1421.54114     719.6085     485.0619
   1421.52588     719.2566     484.1286   1421.52588     719.2566     484.1286
   1421.51062     717.4299     482.6379   1421.51062     717.4299     482.6379
   1421.49536     717.3479     482.1049   1421.49536     717.3479     482.1049
   1421.48010     717.5664     480.5944   1421.48010     717.5664     480.5944
   1421.46484     717.4481     479.5670   1421.46484     717.4481     479.5670
   1421.44958     716.5340     478.6230   1421.44958     716.5340     478.6230
   1421.43433     715.6207     477.3590   1421.43433     715.6207     477.3590
   1421.41907     714.5695     475.7266   1421.41907     714.5695     475.7266
   1421.40381     714.7263     475.0594   1421.40381     714.7263     475.0594
   1421.38855     714.0426     473.2451   1421.38855     714.0426     473.2451
   1421.37329     713.4474     472.7402   1421.37329     713.4474     472.7402
   1421.35803     713.0946     472.3438   1421.35803     713.0946     472.3438
   1421.34277     713.9421     469.5585   1421.34277     713.9421     469.5585
   1421.32751     712.3430     469.2140   1421.32751     712.3430     469.2140
   1421.31226     711.5051     468.1743   1421.31226     711.5051     468.1743
   1421.29700     711.4947     466.5619   1421.29700     711.4947     466.5619
   1421.28174     711.3654     465.0904   1421.28174     711.3654     465.0904
   1421.26648     709.1519     464.5794   1421.26648     709.1519     464.5794
   1421.25122     709.3555     462.8911   1421.25122     709.3555     462.8911
   1421.23596     709.8525     462.2641   1421.23596     709.8525     462.2641
   1421.22070     709.2792     460.5128   1421.22070     709.2792     460.5128
   1421.20544     708.9856     459.2054   1421.20544     708.9856     459.2054
   1421.19019     708.1351     458.8956   1421.19019     708.1351     458.8956
   1421.17493     707.8045     457.3750   1421.17493     707.8045     457.3750
   1421.15967     706.2388     456.2804   1421.15967     706.2388     456.2804
   1421.14441     707.3072     455.3346   1421.14441     707.3072     455.3346
   1421.12915     706.4680     454.4914   1421.12915     706.4680     454.4914
   1421.11389     706.0836     453.2065   1421.11389     706.0836     453.2065
   1421.09863     706.0921     451.5602   1421.09863     706.0921     451.5602
   1421.08337     704.9999     450.4943   1421.08337     704.9999     450.4943
   1421.06812     703.3941     449.4771   1421.06812     703.3941     449.4771
   1421.05286     703.3111     448.7426   1421.05286     703.3111     448.7426
   1421.03760     703.6886     447.1112   1421.03760     703.6886     447.1112
   1421.02234     703.7830     446.1308   1421.02234     703.7830     446.1308
   1421.00708     702.2264     445.5922   1421.00708     702.2264     445.5922
   1420.99182     702.4142     443.8855   1420.99182     702.4142     443.8855
   1420.97656     702.0640     442.7744   1420.97656     702.0640     442.7744
   1420.96130     701.4550     441.1271   1420.96130     701.4550     441.1271
   1420.94604     701.2938     440.3684   1420.94604     701.2938     440.3684
   1420.93079     700.1520     439.7837   1420.93079     700.1520     439.7837
   1420.91553     700.7955     438.2855   1420.91553     700.7955     438.2855
   1420.90027     700.1312     437.5439   1420.90027     700.1312     437.5439
   1420.88501     699.1164     436.2787   1420.88501     699.1164     436.2787
   1420.86975     698.5172     434.7459   1420.86975     698.5172     434.7459
   1420.85449     698.5159     433.7303   1420.85449     698.5159     433.7303
   1420.83923     698.9437     433.5881   1420.83923     698.9437     433.5881
   1420.82397     697.2925     431.7528   1420.82397     697.2925     431.7528
   1420.80872     697.8904     430.8720   1420.80872     697.8904     430.8720
   1420.79346     697.2055     429.9200   1420.79346     697.2055     429.9200
   1420.77820     696.9377     429.7058   1420.77820     696.9377     429.7058
   1420.76294     696.7715     428.2756   1420.76294     696.7715     428.2756
   1420.74768     696.7468     427.2191   1420.74768     696.7468     427.2191
   1420.73242     697.0243     425.9591   1420.73242     697.0243     425.9591
   1420.71716     696.3912     425.0574   1420.71716     696.3912     425.0574
   1420.70190     696.6052     424.4722   1420.70190     696.6052     424.4722
   1420.68665     695.5881     423.3217   1420.68665     695.5881     423.3217
   1420.67139     696.0015     422.1186   1420.67139     696.0015     422.1186
   1420.65613     693.9989     421.0178   1420.65613     693.9989     421.0178
   1420.64087     695.1379     420.4244   1420.64087     695.1379     420.4244
   1420.62561     694.5294     419.1525   1420.62561     694.5294     419.1525
   1420.61035     694.4881     419.2824   1420.61035     694.4881     419.2824
   1420.59509     694.3799     417.1585   1420.59509     694.3799     417.1585
   1420.57983     693.6618     416.4084   1420.57983     693.6618     416.4084
   1420.56458     694.3602     416.4198   1420.56458     694.3602     416.4198
   1420.54932     694.0533     415.4375   1420.54932     694.0533     415.4375
   1420.53406     694.1734     415.2957   1420.53406     694.1734     415.2957
   1420.51880     694.8088     413.9697   1420.51880     694.8088     413.9697
   1420.50354     695.3684     413.1812   1420.50354     695.3684     413.1812
   1420.48828     696.4521     412.6699   1420.48828     696.4521     412.6699
   1420.47302     695.8608     412.0012   1420.47302     695.8608     412.0012
   1420.45776     696.9306     411.5937   1420.45776     696.9306     411.5937
   1420.44250     696.0056     410.9581   1420.44250     696.0056     410.9581
   1420.42725     696.0593     410.0267   1420.42725     696.0593     410.0267
   1420.41199     696.5314     409.0153   1420.41199     696.5314     409.0153
   1420.39673     695.7525     407.1902   1420.39673     695.7525     407.1902
   1420.38147     694.9865     407.2671   1420.38147     694.9865     407.2671
   1420.36621     694.7186     405.8960   1420.36621     694.7186     405.8960
   1420.35095     695.9844     405.3868   1420.35095     695.9844     405.3868
   1420.33569     697.1611     406.2816   1420.33569     697.1611     406.2816
   1420.32043     699.7456     406.9460   1420.32043     699.7456     406.9460
   1420.30518     705.2972     409.4580   1420.30518     705.2972     409.4580
   1420.28992     716.4703     413.8839   1420.28992     716.4703     413.8839
   1420.27466     753.7036     434.0175   1420.27466     753.7036     434.0175
   1420.25940     835.1340     478.6541   1420.25940     835.1340     478.6541
   1420.24414     858.3856     489.3868   1420.24414     858.3856     489.3868
   1420.22888     920.2112     522.9022   1420.22888     920.2112     522.9022
   1420.21362    1084.2675     613.6252   1420.21362    1084.2675     613.6252
   1420.19836    1259.1130     708.2526   1420.19836    1259.1130     708.2526
   1420.18311    1337.7451     749.8430   1420.18311    1337.7451     749.8430
   1420.16785    1457.3214     814.5589   1420.16785    1457.3214     814.5589
   1420.15259    1464.3961     818.2329   1420.15259    1464.3961     818.2329
   1420.13733    1478.2045     823.4605   1420.13733    1478.2045     823.4605
   1420.12207    1534.7526     853.8331   1420.12207    1534.7526     853.8331
   1420.10681    1487.4261     828.3552   1420.10681    1487.4261     828.3552
   1420.09155    1178.1101     655.8336   1420.09155    1178.1101     655.8336
   1420.07629     878.4607     491.4269   1420.07629     878.4607     491.4269
   1420.06104     772.6204     433.2742   1420.06104     772.6204     433.2742
   1420.04578     745.8975     418.6964   1420.04578     745.8975     418.6964
   1420.03052     747.7372     418.1501   1420.03052     747.7372     418.1501
   1420.01526     773.4575     432.6726   1420.01526     773.4575     432.6726
   1420.00000     860.5828     478.5522   1420.00000     860.5828     478.5522
   1419.98474     947.7078     524.4320   1419.98474     947.7078     524.4320
   1419.96948    1067.7644     588.2122   1419.96948    1067.7644     588.2122
   1419.95422    1003.7634     553.3025   1419.95422    1003.7634     553.3025
   1419.93896     964.7506     531.1107   1419.93896     964.7506     531.1107
   1419.92371     984.9867     539.2847   1419.92371     984.9867     539.2847
   1419.90845    1079.7772     588.8985   1419.90845    1079.7772     588.8985
   1419.89319    1163.6063     633.8267   1419.89319    1163.6063     633.8267
   1419.87793    1113.6506     605.9807   1419.87793    1113.6506     605.9807
   1419.86267    1083.7437     589.4634   1419.86267    1083.7437     589.4634
   1419.84741    1056.2394     574.7586   1419.84741    1056.2394     574.7586
   1419.83215    1059.5068     575.3273   1419.83215    1059.5068     575.3273
   1419.81689    1107.6864     600.1413   1419.81689    1107.6864     600.1413
   1419.80164    1118.6569     604.6951   1419.80164    1118.6569     604.6951
   1419.78638    1018.6852     550.7297   1419.78638    1018.6852     550.7297
   1419.77112     935.5432     506.3144   1419.77112     935.5432     506.3144
   1419.75586     911.5021     490.9783   1419.75586     911.5021     490.9783
   1419.74060     844.1685     455.1826   1419.74060     844.1685     455.1826
   1419.72534     806.3514     435.1741   1419.72534     806.3514     435.1741
   1419.71008     777.0032     420.3228   1419.71008     777.0032     420.3228
   1419.69482     758.7943     409.9941   1419.69482     758.7943     409.9941
   1419.67957     751.6600     404.9955   1419.67957     751.6600     404.9955
   1419.66431     748.7562     403.4012   1419.66431     748.7562     403.4012
   1419.64905     747.5491     402.1436   1419.64905     747.5491     402.1436
   1419.63379     748.4924     402.8014   1419.63379     748.4924     402.8014
   1419.61853     753.1803     403.5593   1419.61853     753.1803     403.5593
   1419.60327     745.8547     399.2648   1419.60327     745.8547     399.2648
   1419.58801     722.0693     386.8092   1419.58801     722.0693     386.8092
   1419.57275     707.5869     379.5032   1419.57275     707.5869     379.5032
   1419.55750     700.5030     374.7485   1419.55750     700.5030     374.7485
   1419.54224     697.4203     372.1726   1419.54224     697.4203     372.1726
   1419.52698     693.1532     369.8969   1419.52698     693.1532     369.8969
   1419.51172     690.9423     368.8960   1419.51172     690.9423     368.8960
   1419.49646     691.5247     367.7921   1419.49646     691.5247     367.7921
   1419.48120     690.2578     366.8831   1419.48120     690.2578     366.8831
   1419.46594     690.6575     365.9495   1419.46594     690.6575     365.9495
   1419.45068     691.4606     365.9731   1419.45068     691.4606     365.9731
   1419.43542     689.7404     364.7976   1419.43542     689.7404     364.7976
   1419.42017     688.8823     364.0589   1419.42017     688.8823     364.0589
   1419.40491     690.8267     364.1885   1419.40491     690.8267     364.1885
   1419.38965     690.4653     363.9323   1419.38965     690.4653     363.9323
   1419.37439     690.7953     363.4268   1419.37439     690.7953     363.4268
   1419.35913     690.4376     363.0210   1419.35913     690.4376     363.0210
   1419.34387     690.8860     363.4012   1419.34387     690.8860     363.4012
   1419.32861     691.2939     362.1260   1419.32861     691.2939     362.1260
   1419.31335     691.3246     362.0795   1419.31335     691.3246     362.0795
   1419.29810     692.6920     361.9139   1419.29810     692.6920     361.9139
   1419.28284     692.3834     361.3637   1419.28284     692.3834     361.3637
   1419.26758     693.1213     361.3194   1419.26758     693.1213     361.3194
   1419.25232     693.0256     360.9500   1419.25232     693.0256     360.9500
   1419.23706     693.4254     360.7917   1419.23706     693.4254     360.7917
   1419.22180     693.7560     360.8945   1419.22180     693.7560     360.8945
   1419.20654     694.4027     360.6178   1419.20654     694.4027     360.6178
   1419.19128     694.2903     360.9674   1419.19128     694.2903     360.9674
   1419.17603     695.2380     360.3364   1419.17603     695.2380     360.3364
   1419.16077     696.3934     360.0942   1419.16077     696.3934     360.0942
   1419.14551     695.9179     360.4098   1419.14551     695.9179     360.4098
   1419.13025     696.2068     359.9569   1419.13025     696.2068     359.9569
   1419.11499     696.7129     360.1063   1419.11499     696.7129     360.1063
   1419.09973     697.9152     359.7737   1419.09973     697.9152     359.7737
   1419.08447     698.8107     358.9286   1419.08447     698.8107     358.9286
   1419.06921     698.5585     359.6797   1419.06921     698.5585     359.6797
   1419.05396     699.9762     359.7015   1419.05396     699.9762     359.7015
   1419.03870     700.3572     359.9847   1419.03870     700.3572     359.9847
   1419.02344     700.1528     359.2162   1419.02344     700.1528     359.2162
   1419.00818     700.6638     358.9992   1419.00818     700.6638     358.9992
   1418.99292     701.9550     359.1913   1418.99292     701.9550     359.1913
   1418.97766     702.1847     359.1225   1418.97766     702.1847     359.1225
   1418.96240     702.4874     358.5539   1418.96240     702.4874     358.5539
   1418.94714     702.6749     358.8826   1418.94714     702.6749     358.8826
   1418.93188     704.7958     359.7067   1418.93188     704.7958     359.7067
   1418.91663     704.5342     359.2773   1418.91663     704.5342     359.2773
   1418.90137     703.9140     359.0269   1418.90137     703.9140     359.0269
   1418.88611     706.5994     358.7699   1418.88611     706.5994     358.7699
   1418.87085     706.7824     359.2884   1418.87085     706.7824     359.2884
   1418.85559     706.7261     359.0876   1418.85559     706.7261     359.0876
   1418.84033     709.2794     358.8305   1418.84033     709.2794     358.8305
   1418.82507     709.3688     358.9464   1418.82507     709.3688     358.9464
   1418.80981     708.9738     358.8853   1418.80981     708.9738     358.8853
   1418.79456     710.0938     358.7678   1418.79456     710.0938     358.7678
   1418.77930     711.4601     358.0776   1418.77930     711.4601     358.0776
   1418.76404     711.9082     359.4080   1418.76404     711.9082     359.4080
   1418.74878     712.3398     359.7915   1418.74878     712.3398     359.7915
   1418.73352     713.6862     359.4680   1418.73352     713.6862     359.4680
   1418.71826     714.4228     359.6211   1418.71826     714.4228     359.6211
   1418.70300     713.8652     359.5490   1418.70300     713.8652     359.5490
   1418.68774     714.8201     360.0902   1418.68774     714.8201     360.0902
   1418.67249     716.4266     359.7149   1418.67249     716.4266     359.7149
   1418.65723     716.6778     360.2773   1418.65723     716.6778     360.2773
   1418.64197     718.0753     359.9016   1418.64197     718.0753     359.9016
   1418.62671     718.2047     360.1772   1418.62671     718.2047     360.1772
   1418.61145     719.2360     360.8740   1418.61145     719.2360     360.8740
   1418.59619     719.9702     361.2033   1418.59619     719.9702     361.2033
   1418.58093     721.0505     360.3274   1418.58093     721.0505     360.3274
   1418.56567     721.5173     360.8183   1418.56567     721.5173     360.8183
   1418.55042     722.8981     361.3555   1418.55042     722.8981     361.3555
   1418.53516     722.8130     360.9999   1418.53516     722.8130     360.9999
   1418.51990     724.2654     361.3442   1418.51990     724.2654     361.3442
   1418.50464     724.4149     361.4603   1418.50464     724.4149     361.4603
   1418.48938     724.5750     362.1834   1418.48938     724.5750     362.1834
   1418.47412     726.1816     362.1119   1418.47412     726.1816     362.1119
   1418.45886     727.5208     361.8795   1418.45886     727.5208     361.8795
   1418.44360     728.1121     362.3703   1418.44360     728.1121     362.3703
   1418.42834     728.5226     362.1829   1418.42834     728.5226     362.1829
   1418.41309     730.5854     362.9148   1418.41309     730.5854     362.9148
   1418.39783     730.7647     363.5845   1418.39783     730.7647     363.5845
   1418.38257     731.7144     363.4708   1418.38257     731.7144     363.4708
   1418.36731     733.1208     363.6061   1418.36731     733.1208     363.6061
   1418.35205     734.6714     363.4644   1418.35205     734.6714     363.4644
   1418.33679     736.3654     364.2815   1418.33679     736.3654     364.2815
   1418.32153     736.4438     364.2859   1418.32153     736.4438     364.2859
   1418.30627     736.4390     364.7321   1418.30627     736.4390     364.7321
   1418.29102     737.5150     365.4046   1418.29102     737.5150     365.4046
   1418.27576     738.0302     364.7601   1418.27576     738.0302     364.7601
   1418.26050     739.8445     365.7948   1418.26050     739.8445     365.7948
   1418.24524     740.2967     366.4191   1418.24524     740.2967     366.4191
   1418.22998     741.2432     366.5579   1418.22998     741.2432     366.5579
   1418.21472     742.0060     367.4191   1418.21472     742.0060     367.4191
   1418.19946     742.9535     366.9967   1418.19946     742.9535     366.9967
   1418.18420     742.8828     366.9521   1418.18420     742.8828     366.9521
   1418.16895     746.6078     367.2977   1418.16895     746.6078     367.2977
   1418.15369     746.0836     367.6824   1418.15369     746.0836     367.6824
   1418.13843     747.3467     368.0992   1418.13843     747.3467     368.0992
   1418.12317     748.4781     368.4851   1418.12317     748.4781     368.4851
   1418.10791     749.3178     368.6994   1418.10791     749.3178     368.6994
   1418.09265     750.9327     369.0578   1418.09265     750.9327     369.0578
   1418.07739     751.0481     369.4701   1418.07739     751.0481     369.4701
   1418.06213     751.4671     370.0770   1418.06213     751.4671     370.0770
   1418.04688     752.5446     369.9765   1418.04688     752.5446     369.9765
   1418.03162     753.0141     370.8047   1418.03162     753.0141     370.8047
   1418.01636     755.8294     370.6574   1418.01636     755.8294     370.6574
   1418.00110     756.3901     372.3103   1418.00110     756.3901     372.3103
   1417.98584     757.2844     371.7043   1417.98584     757.2844     371.7043
   1417.97058     758.7411     372.8451   1417.97058     758.7411     372.8451
   1417.95532     758.7956     372.3826   1417.95532     758.7956     372.3826
   1417.94006     760.2802     373.3990   1417.94006     760.2802     373.3990
   1417.92480     762.1307     373.3958   1417.92480     762.1307     373.3958
   1417.90955     762.9233     373.5547   1417.90955     762.9233     373.5547
   1417.89429     763.8336     373.6778   1417.89429     763.8336     373.6778
   1417.87903     764.7983     374.9321   1417.87903     764.7983     374.9321
   1417.86377     765.9462     375.1140   1417.86377     765.9462     375.1140
   1417.84851     767.3146     375.5143   1417.84851     767.3146     375.5143
   1417.83325     768.1353     375.9589   1417.83325     768.1353     375.9589
   1417.81799     768.0154     376.4201   1417.81799     768.0154     376.4201
   1417.80273     769.7019     376.5702   1417.80273     769.7019     376.5702
   1417.78748     771.2895     377.3055   1417.78748     771.2895     377.3055
   1417.77222     772.4552     377.7878   1417.77222     772.4552     377.7878
   1417.75696     773.7038     378.1117   1417.75696     773.7038     378.1117
   1417.74170     773.9126     378.7458   1417.74170     773.9126     378.7458
   1417.72644     776.2158     379.3857   1417.72644     776.2158     379.3857
   1417.71118     776.5164     379.6303   1417.71118     776.5164     379.6303
   1417.69592     778.9084     380.3093   1417.69592     778.9084     380.3093
   1417.68066     779.3057     380.8992   1417.68066     779.3057     380.8992
   1417.66541     780.2048     380.7722   1417.66541     780.2048     380.7722
   1417.65015     780.5883     381.4924   1417.65015     780.5883     381.4924
   1417.63489     782.0175     382.0540   1417.63489     782.0175     382.0540
   1417.61963     782.4198     382.3262   1417.61963     782.4198     382.3262
   1417.60437     785.4420     382.7000   1417.60437     785.4420     382.7000
   1417.58911     785.1526     383.4091   1417.58911     785.1526     383.4091
   1417.57385     786.8684     383.9293   1417.57385     786.8684     383.9293
   1417.55859     787.2502     384.3808   1417.55859     787.2502     384.3808
   1417.54333     789.0616     385.2630   1417.54333     789.0616     385.2630
   1417.52808     790.3781     385.4069   1417.52808     790.3781     385.4069
   1417.51282     791.8118     386.0822   1417.51282     791.8118     386.0822
   1417.49756     791.5834     386.4476   1417.49756     791.5834     386.4476
   1417.48230     793.2547     387.0147   1417.48230     793.2547     387.0147
   1417.46704     792.9391     387.1606   1417.46704     792.9391     387.1606
   1417.45178     795.5689     388.2874   1417.45178     795.5689     388.2874
   1417.43652     796.5361     387.8322   1417.43652     796.5361     387.8322
   1417.42126     797.7705     388.8347   1417.42126     797.7705     388.8347
   1417.40601     798.3613     389.6093   1417.40601     798.3613     389.6093
   1417.39075     799.9248     389.2537   1417.39075     799.9248     389.2537
   1417.37549     800.8951     391.1131   1417.37549     800.8951     391.1131
   1417.36023     801.1138     390.8930   1417.36023     801.1138     390.8930
   1417.34497     802.5176     392.2359   1417.34497     802.5176     392.2359
   1417.32971     804.8448     391.7733   1417.32971     804.8448     391.7733
   1417.31445     805.0421     392.6696   1417.31445     805.0421     392.6696
   1417.29919     806.2521     392.3878   1417.29919     806.2521     392.3878
   1417.28394     807.3581     393.6768   1417.28394     807.3581     393.6768
   1417.26868     806.8233     394.0653   1417.26868     806.8233     394.0653
   1417.25342     810.0201     394.4529   1417.25342     810.0201     394.4529
   1417.23816     810.9008     394.6441   1417.23816     810.9008     394.6441
   1417.22290     813.1509     396.0363   1417.22290     813.1509     396.0363
   1417.20764     812.2017     396.4729   1417.20764     812.2017     396.4729
   1417.19238     815.4561     397.1061   1417.19238     815.4561     397.1061
   1417.17712     814.1962     397.3438   1417.17712     814.1962     397.3438
   1417.16187     815.7456     397.7643   1417.16187     815.7456     397.7643
   1417.14661     816.5750     399.0323   1417.14661     816.5750     399.0323
   1417.13135     818.8303     398.3217   1417.13135     818.8303     398.3217
   1417.11609     819.6976     399.8191   1417.11609     819.6976     399.8191
   1417.10083     819.7164     399.6381   1417.10083     819.7164     399.6381
   1417.08557     822.4153     400.5934   1417.08557     822.4153     400.5934
   1417.07031     822.6683     400.8112   1417.07031     822.6683     400.8112
   1417.05505     823.5555     401.4652   1417.05505     823.5555     401.4652
   1417.03979     825.0595     401.5139   1417.03979     825.0595     401.5139
   1417.02454     824.2394     402.3062   1417.02454     824.2394     402.3062
   1417.00928     825.8102     402.9911   1417.00928     825.8102     402.9911
   1416.99402     828.5534     402.8488   1416.99402     828.5534     402.8488
   1416.97876     827.7808     403.7805   1416.97876     827.7808     403.7805
   1416.96350     829.9213     404.0494   1416.96350     829.9213     404.0494
   1416.94824     830.0718     404.9620   1416.94824     830.0718     404.9620
   1416.93298     830.5983     405.1749   1416.93298     830.5983     405.1749
   1416.91772     831.4691     405.9625   1416.91772     831.4691     405.9625
   1416.90247     832.5403     406.0366   1416.90247     832.5403     406.0366
   1416.88721     833.3417     407.2284   1416.88721     833.3417     407.2284
   1416.87195     834.7385     407.1996   1416.87195     834.7385     407.1996
   1416.85669     835.0416     408.0042   1416.85669     835.0416     408.0042
   1416.84143     836.9680     408.0021   1416.84143     836.9680     408.0021
   1416.82617     837.3845     409.0468   1416.82617     837.3845     409.0468
   1416.81091     838.7787     409.7278   1416.81091     838.7787     409.7278
   1416.79565     838.6776     409.4606   1416.79565     838.6776     409.4606
   1416.78040     840.5902     410.0602   1416.78040     840.5902     410.0602
   1416.76514     841.1548     410.8617   1416.76514     841.1548     410.8617
   1416.74988     842.1254     411.5722   1416.74988     842.1254     411.5722
   1416.73462     842.7846     411.3910   1416.73462     842.7846     411.3910
   1416.71936     844.3616     411.9954   1416.71936     844.3616     411.9954
   1416.70410     844.6145     413.1110   1416.70410     844.6145     413.1110
   1416.68884     845.6956     413.0867   1416.68884     845.6956     413.0867
   1416.67358     846.1622     412.4947   1416.67358     846.1622     412.4947
   1416.65833     845.1452     412.9658   1416.65833     845.1452     412.9658
   1416.64307     847.8056     413.4107   1416.64307     847.8056     413.4107
   1416.62781     847.3247     414.1795   1416.62781     847.3247     414.1795
   1416.61255     850.0037     413.8969   1416.61255     850.0037     413.8969
   1416.59729     851.2317     414.6462   1416.59729     851.2317     414.6462
   1416.58203     849.7441     414.7814   1416.58203     849.7441     414.7814
   1416.56677     851.4956     415.7296   1416.56677     851.4956     415.7296
   1416.55151     852.1891     415.5845   1416.55151     852.1891     415.5845
   1416.53625     852.3790     415.9342   1416.53625     852.3790     415.9342
   1416.52100     852.2044     416.3957   1416.52100     852.2044     416.3957
   1416.50574     853.3235     416.9524   1416.50574     853.3235     416.9524
   1416.49048     854.6895     417.1501   1416.49048     854.6895     417.1501
   1416.47522     853.7219     417.8232   1416.47522     853.7219     417.8232
   1416.45996     853.2246     417.3064   1416.45996     853.2246     417.3064
   1416.44470     855.0820     418.1444   1416.44470     855.0820     418.1444
   1416.42944     855.6224     418.1043   1416.42944     855.6224     418.1043
   1416.41418     856.0876     417.9935   1416.41418     856.0876     417.9935
   1416.39893     857.3309     419.0437   1416.39893     857.3309     419.0437
   1416.38367     856.5082     419.1856   1416.38367     856.5082     419.1856
   1416.36841     858.0095     419.3574   1416.36841     858.0095     419.3574
   1416.35315     856.7800     419.1422   1416.35315     856.7800     419.1422
   1416.33789     857.5836     419.2578   1416.33789     857.5836     419.2578
   1416.32263     858.5800     419.3821   1416.32263     858.5800     419.3821
   1416.30737     858.5319     419.6670   1416.30737     858.5319     419.6670
   1416.29211     859.9457     421.0222   1416.29211     859.9457     421.0222
   1416.27686     859.3013     420.9018   1416.27686     859.3013     420.9018
   1416.26160     860.5038     419.9718   1416.26160     860.5038     419.9718
   1416.24634     859.9861     420.8456   1416.24634     859.9861     420.8456
   1416.23108     860.4033     421.1129   1416.23108     860.4033     421.1129
   1416.21582     861.6301     421.0700   1416.21582     861.6301     421.0700
   1416.20056     860.8646     420.4916   1416.20056     860.8646     420.4916
   1416.18530     860.4265     421.6393   1416.18530     860.4265     421.6393
   1416.17004     862.6544     421.7859   1416.17004     862.6544     421.7859
   1416.15479     861.4478     421.8949   1416.15479     861.4478     421.8949
   1416.13953     861.4962     422.2866   1416.13953     861.4962     422.2866
   1416.12427     861.4130     422.4633   1416.12427     861.4130     422.4633
   1416.10901     861.8146     423.1130   1416.10901     861.8146     423.1130
   1416.09375     861.2020     422.6488   1416.09375     861.2020     422.6488
   1416.07849     861.1102     422.4778   1416.07849     861.1102     422.4778
   1416.06323     862.3563     423.2555   1416.06323     862.3563     423.2555
   1416.04797     861.1464     422.5261   1416.04797     861.1464     422.5261
   1416.03271     861.1981     422.5907   1416.03271     861.1981     422.5907
   1416.01746     863.9330     423.0528   1416.01746     863.9330     423.0528
   1416.00220     862.2145     423.3200   1416.00220     862.2145     423.3200
   1415.98694     861.1653     422.4525   1415.98694     861.1653     422.4525
   1415.97168     860.3805     424.0852   1415.97168     860.3805     424.0852
   1415.95642     860.8571     423.0730   1415.95642     860.8571     423.0730
   1415.94116     861.5427     423.3055   1415.94116     861.5427     423.3055
   1415.92590     861.8068     423.7043   1415.92590     861.8068     423.7043
   1415.91064     860.5409     423.1228   1415.91064     860.5409     423.1228
   1415.89539     859.3588     423.7811   1415.89539     859.3588     423.7811
   1415.88013     861.4485     423.5680   1415.88013     861.4485     423.5680
   1415.86487     860.7052     424.1304   1415.86487     860.7052     424.1304
   1415.84961     858.8077     424.1304   1415.84961     858.8077     424.1304
   1415.83435     861.3974     424.4233   1415.83435     861.3974     424.4233
   1415.81909     858.6446     424.3828   1415.81909     858.6446     424.3828
   1415.80383     858.4135     423.6501   1415.80383     858.4135     423.6501
   1415.78857     859.2195     424.8232   1415.78857     859.2195     424.8232
   1415.77332     857.2886     424.5411   1415.77332     857.2886     424.5411
   1415.75806     858.6326     424.7614   1415.75806     858.6326     424.7614
   1415.74280     856.3078     423.5308   1415.74280     856.3078     423.5308
   1415.72754     857.0571     424.1398   1415.72754     857.0571     424.1398
   1415.71228     856.5032     423.9366   1415.71228     856.5032     423.9366
   1415.69702     855.5464     424.0887   1415.69702     855.5464     424.0887
   1415.68176     854.3163     423.6163   1415.68176     854.3163     423.6163
   1415.66650     854.5504     424.3232   1415.66650     854.5504     424.3232
   1415.65125     853.9412     423.9011   1415.65125     853.9412     423.9011
   1415.63599     853.6186     423.8539   1415.63599     853.6186     423.8539
   1415.62073     853.7048     424.3808   1415.62073     853.7048     424.3808
   1415.60547     852.6229     423.8713   1415.60547     852.6229     423.8713
   1415.59021     851.0768     423.9247   1415.59021     851.0768     423.9247
   1415.57495     850.0138     423.8060   1415.57495     850.0138     423.8060
   1415.55969     850.3385     423.2594   1415.55969     850.3385     423.2594
   1415.54443     849.6600     423.7372   1415.54443     849.6600     423.7372
   1415.52917     848.0953     423.8992   1415.52917     848.0953     423.8992
   1415.51392     846.7401     423.4720   1415.51392     846.7401     423.4720
   1415.49866     847.0969     423.9126   1415.49866     847.0969     423.9126
   1415.48340     844.6953     423.3567   1415.48340     844.6953     423.3567
   1415.46814     845.0340     422.9106   1415.46814     845.0340     422.9106
   1415.45288     845.0828     423.5670   1415.45288     845.0828     423.5670
   1415.43762     845.3380     423.3913   1415.43762     845.3380     423.3913
   1415.42236     843.0970     423.7121   1415.42236     843.0970     423.7121
   1415.40710     841.9026     422.7364   1415.40710     841.9026     422.7364
   1415.39185     841.4879     422.5015   1415.39185     841.4879     422.5015
   1415.37659     839.7227     422.3434   1415.37659     839.7227     422.3434
   1415.36133     837.4772     423.0927   1415.36133     837.4772     423.0927
   1415.34607     836.5125     422.6575   1415.34607     836.5125     422.6575
   1415.33081     836.8271     423.0573   1415.33081     836.8271     423.0573
   1415.31555     836.2179     422.5943   1415.31555     836.2179     422.5943
   1415.30029     834.0783     422.5532   1415.30029     834.0783     422.5532
   1415.28503     833.8723     422.5924   1415.28503     833.8723     422.5924
   1415.26978     830.6046     421.9400   1415.26978     830.6046     421.9400
   1415.25452     830.6233     422.0103   1415.25452     830.6233     422.0103
   1415.23926     829.1545     421.7910   1415.23926     829.1545     421.7910
   1415.22400     827.5268     421.6349   1415.22400     827.5268     421.6349
   1415.20874     826.7669     420.9643   1415.20874     826.7669     420.9643
   1415.19348     824.8024     421.0566   1415.19348     824.8024     421.0566
   1415.17822     825.1252     420.2542   1415.17822     825.1252     420.2542
   1415.16296     821.5015     420.2029   1415.16296     821.5015     420.2029
   1415.14771     821.3655     420.5266   1415.14771     821.3655     420.5266
   1415.13245     818.1572     419.4594   1415.13245     818.1572     419.4594
   1415.11719     817.6340     419.6413   1415.11719     817.6340     419.6413
   1415.10193     815.9021     419.1830   1415.10193     815.9021     419.1830
   1415.08667     814.4814     418.8996   1415.08667     814.4814     418.8996
   1415.07141     812.3204     418.9602   1415.07141     812.3204     418.9602
   1415.05615     811.1442     418.2772   1415.05615     811.1442     418.2772
   1415.04089     810.1967     417.7998   1415.04089     810.1967     417.7998
   1415.02563     807.7626     417.6391   1415.02563     807.7626     417.6391
   1415.01038     805.7017     416.9911   1415.01038     805.7017     416.9911
   1414.99512     803.0565     416.3889   1414.99512     803.0565     416.3889
   1414.97986     804.0256     416.9257   1414.97986     804.0256     416.9257
   1414.96460     801.0101     416.0865   1414.96460     801.0101     416.0865
   1414.94934     799.6223     415.4637   1414.94934     799.6223     415.4637
   1414.93408     796.6854     414.9098   1414.93408     796.6854     414.9098
   1414.91882     793.9099     415.1703   1414.91882     793.9099     415.1703
   1414.90356     792.5047     414.5939   1414.90356     792.5047     414.5939
   1414.88831     791.3273     414.7012   1414.88831     791.3273     414.7012
   1414.87305     788.9292     413.3692   1414.87305     788.9292     413.3692
   1414.85779     786.9591     413.6151   1414.85779     786.9591     413.6151
   1414.84253     785.5644     412.9199   1414.84253     785.5644     412.9199
   1414.82727     783.6425     411.8873   1414.82727     783.6425     411.8873
   1414.81201     781.7292     412.1660   1414.81201     781.7292     412.1660
   1414.79675     776.7833     410.5500   1414.79675     776.7833     410.5500
   1414.78149     776.0809     410.6207   1414.78149     776.0809     410.6207
   1414.76624     773.3940     410.2177   1414.76624     773.3940     410.2177
   1414.75098     771.4839     409.0787   1414.75098     771.4839     409.0787
   1414.73572     770.8708     408.3504   1414.73572     770.8708     408.3504
   1414.72046     766.3198     408.2903   1414.72046     766.3198     408.2903
   1414.70520     763.8605     407.9690   1414.70520     763.8605     407.9690
   1414.68994     762.5089     407.3914   1414.68994     762.5089     407.3914
   1414.67468     758.8181     406.1631   1414.67468     758.8181     406.1631
   1414.65942     757.1027     405.5834   1414.65942     757.1027     405.5834
   1414.64417     755.5160     405.1542   1414.64417     755.5160     405.1542
   1414.62891     751.7626     404.5517   1414.62891     751.7626     404.5517
   1414.61365     749.8906     403.7453   1414.61365     749.8906     403.7453
   1414.59839     746.1203     403.3076   1414.59839     746.1203     403.3076
   1414.58313     744.8309     403.1036   1414.58313     744.8309     403.1036
   1414.56787     741.9500     401.5152   1414.56787     741.9500     401.5152
   1414.55261     739.3889     401.0196   1414.55261     739.3889     401.0196
   1414.53735     735.8769     399.9103   1414.53735     735.8769     399.9103
   1414.52209     733.4462     399.3240   1414.52209     733.4462     399.3240
   1414.50684     731.1130     397.8326   1414.50684     731.1130     397.8326
   1414.49158     729.8674     397.2985   1414.49158     729.8674     397.2985
   1414.47632     724.6662     397.3922   1414.47632     724.6662     397.3922
   1414.46106     720.9977     396.1394   1414.46106     720.9977     396.1394
   1414.44580     720.8282     395.3445   1414.44580     720.8282     395.3445
   1414.43054     717.0524     394.8133   1414.43054     717.0524     394.8133
   1414.41528     712.8616     393.9429   1414.41528     712.8616     393.9429
   1414.40002     710.9223     393.0305   1414.40002     710.9223     393.0305
   1414.38477     708.3699     392.0070   1414.38477     708.3699     392.0070
   1414.36951     705.5561     390.2750   1414.36951     705.5561     390.2750
   1414.35425     702.4020     390.2557   1414.35425     702.4020     390.2557
   1414.33899     700.2368     388.6482   1414.33899     700.2368     388.6482
   1414.32373     695.9203     388.2852   1414.32373     695.9203     388.2852
   1414.30847     694.4267     387.2391   1414.30847     694.4267     387.2391
   1414.29321     689.9745     385.7656   1414.29321     689.9745     385.7656
   1414.27795     687.5616     384.4391   1414.27795     687.5616     384.4391
   1414.26270     683.4101     383.4055   1414.26270     683.4101     383.4055
   1414.24744     680.9950     382.6890   1414.24744     680.9950     382.6890
   1414.23218     679.0331     382.1601   1414.23218     679.0331     382.1601
   1414.21692     674.7655     381.1037   1414.21692     674.7655     381.1037
   1414.20166     672.8290     379.9635   1414.20166     672.8290     379.9635
   1414.18640     667.7579     378.6879   1414.18640     667.7579     378.6879
   1414.17114     664.1226     377.2503   1414.17114     664.1226     377.2503
   1414.15588     662.1973     376.4645   1414.15588     662.1973     376.4645
   1414.14062     658.8238     375.3483   1414.14062     658.8238     375.3483
   1414.12537     654.9068     374.8719   1414.12537     654.9068     374.8719
   1414.11011     651.9653     373.2769   1414.11011     651.9653     373.2769
   1414.09485     648.9013     372.0818   1414.09485     648.9013     372.0818
   1414.07959     644.9112     370.9222   1414.07959     644.9112     370.9222
   1414.06433     642.7277     369.3631   1414.06433     642.7277     369.3631
   1414.04907     638.8984     368.2945   1414.04907     638.8984     368.2945
   1414.03381     635.7101     367.1878   1414.03381     635.7101     367.1878
   1414.01855     633.3735     365.8560   1414.01855     633.3735     365.8560
   1414.00330     630.7908     365.5657   1414.00330     630.7908     365.5657
   1413.98804     624.8320     362.9158   1413.98804     624.8320     362.9158
   1413.97278     622.1397     362.3565   1413.97278     622.1397     362.3565
   1413.95752     619.4099     361.1164   1413.95752     619.4099     361.1164
   1413.94226     616.1696     359.0324   1413.94226     616.1696     359.0324
   1413.92700     611.7791     358.4398   1413.92700     611.7791     358.4398
   1413.91174     609.8885     357.0328   1413.91174     609.8885     357.0328
   1413.89648     604.7101     355.2057   1413.89648     604.7101     355.2057
   1413.88123     602.1752     354.2299   1413.88123     602.1752     354.2299
   1413.86597     599.1163     353.0333   1413.86597     599.1163     353.0333
   1413.85071     595.2472     351.7066   1413.85071     595.2472     351.7066
   1413.83545     592.5493     349.8666   1413.83545     592.5493     349.8666
   1413.82019     588.7287     349.1676   1413.82019     588.7287     349.1676
   1413.80493     585.0312     347.3673   1413.80493     585.0312     347.3673
   1413.78967     581.2833     346.0875   1413.78967     581.2833     346.0875
   1413.77441     577.2621     344.9403   1413.77441     577.2621     344.9403
   1413.75916     574.3612     342.4517   1413.75916     574.3612     342.4517
   1413.74390     571.2728     342.0072   1413.74390     571.2728     342.0072
   1413.72864     567.7976     339.5005   1413.72864     567.7976     339.5005
   1413.71338     564.2266     339.1982   1413.71338     564.2266     339.1982
   1413.69812     561.4849     337.6213   1413.69812     561.4849     337.6213
   1413.68286     557.5431     336.1055   1413.68286     557.5431     336.1055
   1413.66760     554.2261     335.6186   1413.66760     554.2261     335.6186
   1413.65234     550.7690     333.5137   1413.65234     550.7690     333.5137
   1413.63708     547.2449     331.9491   1413.63708     547.2449     331.9491
   1413.62183     543.8412     330.0068   1413.62183     543.8412     330.0068
   1413.60657     541.6172     329.2696   1413.60657     541.6172     329.2696
   1413.59131     537.3510     327.4321   1413.59131     537.3510     327.4321
   1413.57605     533.8445     326.1015   1413.57605     533.8445     326.1015
   1413.56079     530.5952     325.2447   1413.56079     530.5952     325.2447
   1413.54553     527.9347     323.3907   1413.54553     527.9347     323.3907
   1413.53027     524.5200     321.7844   1413.53027     524.5200     321.7844
   1413.51501     520.8475     320.3285   1413.51501     520.8475     320.3285
   1413.49976     518.2606     318.8327   1413.49976     518.2606     318.8327
   1413.48450     514.6015     317.2691   1413.48450     514.6015     317.2691
   1413.46924     511.2123     315.8793   1413.46924     511.2123     315.8793
   1413.45398     507.6287     313.8642   1413.45398     507.6287     313.8642
   1413.43872     504.7351     312.5643   1413.43872     504.7351     312.5643
   1413.42346     501.9461     311.6199   1413.42346     501.9461     311.6199
   1413.40820     498.7044     310.6769   1413.40820     498.7044     310.6769
   1413.39294     496.5650     308.3392   1413.39294     496.5650     308.3392
   1413.37769     493.3286     307.1106   1413.37769     493.3286     307.1106
   1413.36243     488.9226     305.4214   1413.36243     488.9226     305.4214
   1413.34717     486.4162     304.7060   1413.34717     486.4162     304.7060
   1413.33191     484.0758     303.2610   1413.33191     484.0758     303.2610
   1413.31665     480.4342     301.9205   1413.31665     480.4342     301.9205
   1413.30139     477.7346     300.0611   1413.30139     477.7346     300.0611
   1413.28613     474.3123     298.3763   1413.28613     474.3123     298.3763
   1413.27087     472.2424     297.1601   1413.27087     472.2424     297.1601
   1413.25562     468.9792     295.6060   1413.25562     468.9792     295.6060
   1413.24036     466.5338     294.1894   1413.24036     466.5338     294.1894
   1413.22510     463.6311     292.7727   1413.22510     463.6311     292.7727
   1413.20984     461.6161     291.9487   1413.20984     461.6161     291.9487
   1413.19458     458.8136     290.0385   1413.19458     458.8136     290.0385
   1413.17932     455.4152     288.8780   1413.17932     455.4152     288.8780
   1413.16406     453.2912     287.4946   1413.16406     453.2912     287.4946
   1413.14880     450.7904     286.3989   1413.14880     450.7904     286.3989
   1413.13354     449.0165     284.9801   1413.13354     449.0165     284.9801
   1413.11829     445.4035     283.3287   1413.11829     445.4035     283.3287
   1413.10303     443.3865     282.2455   1413.10303     443.3865     282.2455
   1413.08777     440.5150     280.4794   1413.08777     440.5150     280.4794
   1413.07251     438.8199     279.3816   1413.07251     438.8199     279.3816
   1413.05725     436.1167     278.0294   1413.05725     436.1167     278.0294
   1413.04199     434.1108     277.1778   1413.04199     434.1108     277.1778
   1413.02673     431.0599     275.9576   1413.02673     431.0599     275.9576
   1413.01147     429.6339     274.1873   1413.01147     429.6339     274.1873
   1412.99622     427.3713     273.1755   1412.99622     427.3713     273.1755
   1412.98096     424.5825     272.2175   1412.98096     424.5825     272.2175
   1412.96570     423.0168     271.0297   1412.96570     423.0168     271.0297
   1412.95044     420.8048     269.7747   1412.95044     420.8048     269.7747
   1412.93518     418.0589     268.7447   1412.93518     418.0589     268.7447
   1412.91992     416.4495     267.3956   1412.91992     416.4495     267.3956
   1412.90466     414.2864     266.2939   1412.90466     414.2864     266.2939
   1412.88940     413.0179     265.4167   1412.88940     413.0179     265.4167
   1412.87415     411.0519     264.0343   1412.87415     411.0519     264.0343
   1412.85889     409.4035     263.6042   1412.85889     409.4035     263.6042
   1412.84363     407.5212     262.1920   1412.84363     407.5212     262.1920
   1412.82837     406.1950     260.9894   1412.82837     406.1950     260.9894
   1412.81311     405.2085     260.2713   1412.81311     405.2085     260.2713
   1412.79785     402.7789     259.3383   1412.79785     402.7789     259.3383
   1412.78259     401.9926     258.3465   1412.78259     401.9926     258.3465
   1412.76733     399.5638     257.1434   1412.76733     399.5638     257.1434
   1412.75208     398.9226     256.3596   1412.75208     398.9226     256.3596
   1412.73682     397.8864     255.4728   1412.73682     397.8864     255.4728
   1412.72156     395.7160     254.5235   1412.72156     395.7160     254.5235
   1412.70630     394.7889     253.8593   1412.70630     394.7889     253.8593
   1412.69104     393.7535     253.0294   1412.69104     393.7535     253.0294
   1412.67578     392.9385     252.4324   1412.67578     392.9385     252.4324
   1412.66052     392.0646     251.6269   1412.66052     392.0646     251.6269
   1412.64526     390.3823     250.9485   1412.64526     390.3823     250.9485
   1412.63000     389.7592     250.4404   1412.63000     389.7592     250.4404
   1412.61475     388.1970     249.6523   1412.61475     388.1970     249.6523
   1412.59949     388.5214     248.6869   1412.59949     388.5214     248.6869
   1412.58423     387.0285     248.3042   1412.58423     387.0285     248.3042
   1412.56897     385.9223     247.4654   1412.56897     385.9223     247.4654
   1412.55371     384.8244     247.7101   1412.55371     384.8244     247.7101
   1412.53845     385.1415     246.4705   1412.53845     385.1415     246.4705
   1412.52319     384.5426     245.9166   1412.52319     384.5426     245.9166
   1412.50793     383.6244     245.4348   1412.50793     383.6244     245.4348
   1412.49268     384.3836     245.7431   1412.49268     384.3836     245.7431
   1412.47742     382.8080     244.8396   1412.47742     382.8080     244.8396
   1412.46216     382.9667     244.7115   1412.46216     382.9667     244.7115
   1412.44690     382.8653     244.3585   1412.44690     382.8653     244.3585
   1412.43164     381.8828     244.1943   1412.43164     381.8828     244.1943
   1412.41638     382.0142     243.9810   1412.41638     382.0142     243.9810
   1412.40112     381.9076     243.6164   1412.40112     381.9076     243.6164
   1412.38586     381.6900     243.1554   1412.38586     381.6900     243.1554
   1412.37061     381.9089     243.4146   1412.37061     381.9089     243.4146
   1412.35535     382.0403     243.4813   1412.35535     382.0403     243.4813
   1412.34009     381.3498     243.2898   1412.34009     381.3498     243.2898
   1412.32483     382.4129     243.2805   1412.32483     382.4129     243.2805
   1412.30957     382.2727     243.2048   1412.30957     382.2727     243.2048
   1412.29431     382.2762     242.8840   1412.29431     382.2762     242.8840
   1412.27905     383.2785     243.4900   1412.27905     383.2785     243.4900
   1412.26379     383.6849     243.0172   1412.26379     383.6849     243.0172
   1412.24854     383.7630     243.3254   1412.24854     383.7630     243.3254
   1412.23328     383.8209     243.6358   1412.23328     383.8209     243.6358
   1412.21802     384.8775     243.8567   1412.21802     384.8775     243.8567
   1412.20276     385.2986     244.0341   1412.20276     385.2986     244.0341