#     FILENAME=!Skynet_57528_lach-hhg-162_20532_20986.cyb.fits
#     BASENAME=Skynet_57528_lach-hhg-162_20532_20986
#     SRC_NAME=lach-hhg-162
#     OBSERVER=hhgmadison16_9500
#     DATE_OBS=2016-05-20T18:02:10.750
#        OBSID=20532
#      SCANNUM=20986
#          MJD=57528.7526
#          UTC=65020
#     SCANTYPE=track
#     DATAMODE=HIRES
#     TUNEFREQ=1420.0000
# Actual_FREQ1=1420.0000
# Actual_FREQ2=1420.0000
#    LO1Tuning=6870.000
#     RFFILTER=1355_1435
#        OBSBW=-15.6250
#        NCHAN=1024 
#        FOCUS=37.0709
#           RA=04:54:05.43
#          DEC=43:42:29.68
#      RA(hrs)=4.901500
#     DEC(deg)=43.708200
#    AZIM(deg)=29.701
#    ELEV(deg)=83.741
#     IFattens=10.00, 9.00
#      WARNING=None
#    TCAL_XL1=7.9635
#    TCAL_YR1=9.1340
#    TCAL_XL2=7.9635
#    TCAL_YR2=9.1340
#     TRX_XL1=11.7060
#     TRX_YR1=11.7060
#     TRX_XL2=11.7060
#     TRX_YR2=11.7060
#        TAVE=1.0000
#Freq1(MHz)          XL1          YR1  Freq2(MHz)          XL2          YR2 

   1427.81250     376.4283     336.6216   1427.81250     376.4283     336.6216
   1427.79724     377.2504     337.5538   1427.79724     377.2504     337.5538
   1427.78198     377.7344     339.3815   1427.78198     377.7344     339.3815
   1427.76672     377.6801     340.9199   1427.76672     377.6801     340.9199
   1427.75146     378.6239     343.3954   1427.75146     378.6239     343.3954
   1427.73621     379.9109     345.0461   1427.73621     379.9109     345.0461
   1427.72095     380.5188     346.6613   1427.72095     380.5188     346.6613
   1427.70569     382.0433     348.1793   1427.70569     382.0433     348.1793
   1427.69043     382.6344     349.9002   1427.69043     382.6344     349.9002
   1427.67517     383.3956     351.4647   1427.67517     383.3956     351.4647
   1427.65991     384.3359     354.0532   1427.65991     384.3359     354.0532
   1427.64465     385.6599     355.9513   1427.64465     385.6599     355.9513
   1427.62939     386.8560     358.1981   1427.62939     386.8560     358.1981
   1427.61414     387.7293     360.5222   1427.61414     387.7293     360.5222
   1427.59888     389.6889     362.2559   1427.59888     389.6889     362.2559
   1427.58362     391.0500     364.1211   1427.58362     391.0500     364.1211
   1427.56836     392.3558     367.1742   1427.56836     392.3558     367.1742
   1427.55310     393.6449     368.2100   1427.55310     393.6449     368.2100
   1427.53784     394.5938     371.3713   1427.53784     394.5938     371.3713
   1427.52258     397.0789     373.6798   1427.52258     397.0789     373.6798
   1427.50732     398.5657     375.4158   1427.50732     398.5657     375.4158
   1427.49207     400.4266     378.2185   1427.49207     400.4266     378.2185
   1427.47681     401.7342     380.5507   1427.47681     401.7342     380.5507
   1427.46155     403.1893     383.1268   1427.46155     403.1893     383.1268
   1427.44629     404.9998     385.5600   1427.44629     404.9998     385.5600
   1427.43103     406.5877     387.5163   1427.43103     406.5877     387.5163
   1427.41577     408.6304     390.1921   1427.41577     408.6304     390.1921
   1427.40051     410.7667     393.2101   1427.40051     410.7667     393.2101
   1427.38525     412.5762     395.0690   1427.38525     412.5762     395.0690
   1427.37000     414.5827     398.1640   1427.37000     414.5827     398.1640
   1427.35474     416.0738     400.6570   1427.35474     416.0738     400.6570
   1427.33948     418.5901     403.2119   1427.33948     418.5901     403.2119
   1427.32422     421.1965     406.0253   1427.32422     421.1965     406.0253
   1427.30896     423.0302     408.2305   1427.30896     423.0302     408.2305
   1427.29370     425.0122     411.8150   1427.29370     425.0122     411.8150
   1427.27844     427.3903     414.3755   1427.27844     427.3903     414.3755
   1427.26318     429.9074     417.1375   1427.26318     429.9074     417.1375
   1427.24792     432.2682     420.3584   1427.24792     432.2682     420.3584
   1427.23267     433.9136     422.4798   1427.23267     433.9136     422.4798
   1427.21741     437.1512     425.3006   1427.21741     437.1512     425.3006
   1427.20215     438.9318     428.0327   1427.20215     438.9318     428.0327
   1427.18689     441.6996     431.0622   1427.18689     441.6996     431.0622
   1427.17163     443.5931     433.5978   1427.17163     443.5931     433.5978
   1427.15637     446.6434     436.9475   1427.15637     446.6434     436.9475
   1427.14111     448.3732     439.2151   1427.14111     448.3732     439.2151
   1427.12585     451.8792     441.7754   1427.12585     451.8792     441.7754
   1427.11060     454.2191     445.2987   1427.11060     454.2191     445.2987
   1427.09534     457.4094     447.4447   1427.09534     457.4094     447.4447
   1427.08008     459.6174     450.0263   1427.08008     459.6174     450.0263
   1427.06482     461.9763     452.8412   1427.06482     461.9763     452.8412
   1427.04956     464.7024     456.5662   1427.04956     464.7024     456.5662
   1427.03430     467.6339     459.0168   1427.03430     467.6339     459.0168
   1427.01904     470.3434     461.6467   1427.01904     470.3434     461.6467
   1427.00378     472.2946     464.6574   1427.00378     472.2946     464.6574
   1426.98853     475.7230     468.2091   1426.98853     475.7230     468.2091
   1426.97327     478.6896     469.5091   1426.97327     478.6896     469.5091
   1426.95801     481.5961     472.6252   1426.95801     481.5961     472.6252
   1426.94275     484.8701     476.1185   1426.94275     484.8701     476.1185
   1426.92749     488.0270     478.1702   1426.92749     488.0270     478.1702
   1426.91223     490.4995     480.8726   1426.91223     490.4995     480.8726
   1426.89697     493.2225     483.6946   1426.89697     493.2225     483.6946
   1426.88171     496.5897     486.1258   1426.88171     496.5897     486.1258
   1426.86646     499.7878     489.1281   1426.86646     499.7878     489.1281
   1426.85120     501.2613     491.6039   1426.85120     501.2613     491.6039
   1426.83594     504.7829     494.2660   1426.83594     504.7829     494.2660
   1426.82068     508.5244     497.8092   1426.82068     508.5244     497.8092
   1426.80542     511.1223     500.9866   1426.80542     511.1223     500.9866
   1426.79016     514.8069     503.2062   1426.79016     514.8069     503.2062
   1426.77490     517.8485     505.3938   1426.77490     517.8485     505.3938
   1426.75964     520.4688     507.9794   1426.75964     520.4688     507.9794
   1426.74438     524.3838     510.7427   1426.74438     524.3838     510.7427
   1426.72913     527.2070     512.9484   1426.72913     527.2070     512.9484
   1426.71387     529.8578     515.3628   1426.71387     529.8578     515.3628
   1426.69861     533.1336     518.5724   1426.69861     533.1336     518.5724
   1426.68335     535.2072     521.5459   1426.68335     535.2072     521.5459
   1426.66809     539.3577     522.6063   1426.66809     539.3577     522.6063
   1426.65283     542.0166     525.3046   1426.65283     542.0166     525.3046
   1426.63757     545.5435     528.7622   1426.63757     545.5435     528.7622
   1426.62231     553.5491     536.2376   1426.62231     553.5491     536.2376
   1426.60706     551.5703     532.3415   1426.60706     551.5703     532.3415
   1426.59180     554.0343     535.3708   1426.59180     554.0343     535.3708
   1426.57654     557.8627     538.3645   1426.57654     557.8627     538.3645
   1426.56128     560.5847     540.6258   1426.56128     560.5847     540.6258
   1426.54602     564.3445     542.9935   1426.54602     564.3445     542.9935
   1426.53076     566.8179     544.2656   1426.53076     566.8179     544.2656
   1426.51550     570.5981     546.8465   1426.51550     570.5981     546.8465
   1426.50024     572.6140     549.0416   1426.50024     572.6140     549.0416
   1426.48499     575.1796     550.9990   1426.48499     575.1796     550.9990
   1426.46973     578.4916     553.5601   1426.46973     578.4916     553.5601
   1426.45447     581.7328     555.9714   1426.45447     581.7328     555.9714
   1426.43921     584.9209     557.7161   1426.43921     584.9209     557.7161
   1426.42395     587.5632     559.5903   1426.42395     587.5632     559.5903
   1426.40869     591.0780     561.1647   1426.40869     591.0780     561.1647
   1426.39343     594.2476     562.9523   1426.39343     594.2476     562.9523
   1426.37817     598.3073     566.3842   1426.37817     598.3073     566.3842
   1426.36292     600.9073     567.6608   1426.36292     600.9073     567.6608
   1426.34766     602.2700     569.5533   1426.34766     602.2700     569.5533
   1426.33240     606.6918     571.7197   1426.33240     606.6918     571.7197
   1426.31714     608.1777     573.0524   1426.31714     608.1777     573.0524
   1426.30188     611.6468     575.0419   1426.30188     611.6468     575.0419
   1426.28662     615.4064     577.5276   1426.28662     615.4064     577.5276
   1426.27136     617.6521     578.8269   1426.27136     617.6521     578.8269
   1426.25610     621.2161     581.3419   1426.25610     621.2161     581.3419
   1426.24084     623.8343     581.5809   1426.24084     623.8343     581.5809
   1426.22559     626.2838     584.0284   1426.22559     626.2838     584.0284
   1426.21033     630.3495     586.2653   1426.21033     630.3495     586.2653
   1426.19507     632.5520     586.7600   1426.19507     632.5520     586.7600
   1426.17981     635.6545     588.7284   1426.17981     635.6545     588.7284
   1426.16455     638.6539     590.1459   1426.16455     638.6539     590.1459
   1426.14929     641.1349     592.9460   1426.14929     641.1349     592.9460
   1426.13403     644.2887     593.2128   1426.13403     644.2887     593.2128
   1426.11877     646.3347     594.8242   1426.11877     646.3347     594.8242
   1426.10352     648.5414     596.2909   1426.10352     648.5414     596.2909
   1426.08826     651.4676     597.9177   1426.08826     651.4676     597.9177
   1426.07300     653.9288     598.7949   1426.07300     653.9288     598.7949
   1426.05774     656.6027     599.3700   1426.05774     656.6027     599.3700
   1426.04248     658.4091     601.8720   1426.04248     658.4091     601.8720
   1426.02722     661.6415     603.8610   1426.02722     661.6415     603.8610
   1426.01196     664.2515     604.4006   1426.01196     664.2515     604.4006
   1425.99670     667.0562     606.1793   1425.99670     667.0562     606.1793
   1425.98145     668.4461     606.8036   1425.98145     668.4461     606.8036
   1425.96619     670.7402     608.4888   1425.96619     670.7402     608.4888
   1425.95093     673.8612     609.5113   1425.95093     673.8612     609.5113
   1425.93567     674.4294     610.2186   1425.93567     674.4294     610.2186
   1425.92041     678.6340     612.5098   1425.92041     678.6340     612.5098
   1425.90515     681.9512     612.3574   1425.90515     681.9512     612.3574
   1425.88989     683.4131     613.9385   1425.88989     683.4131     613.9385
   1425.87463     685.0208     614.9034   1425.87463     685.0208     614.9034
   1425.85938     688.3221     615.6669   1425.85938     688.3221     615.6669
   1425.84412     689.2532     617.3888   1425.84412     689.2532     617.3888
   1425.82886     691.1309     618.1906   1425.82886     691.1309     618.1906
   1425.81360     695.0223     618.5585   1425.81360     695.0223     618.5585
   1425.79834     697.6229     619.8760   1425.79834     697.6229     619.8760
   1425.78308     698.2719     621.0707   1425.78308     698.2719     621.0707
   1425.76782     701.8995     620.3306   1425.76782     701.8995     620.3306
   1425.75256     702.4979     622.5260   1425.75256     702.4979     622.5260
   1425.73730     702.9793     621.8367   1425.73730     702.9793     621.8367
   1425.72205     705.5084     622.8163   1425.72205     705.5084     622.8163
   1425.70679     708.7634     623.5077   1425.70679     708.7634     623.5077
   1425.69153     710.4256     625.7868   1425.69153     710.4256     625.7868
   1425.67627     712.0920     624.6288   1425.67627     712.0920     624.6288
   1425.66101     713.8408     626.1161   1425.66101     713.8408     626.1161
   1425.64575     716.0416     627.0419   1425.64575     716.0416     627.0419
   1425.63049     718.3345     626.7576   1425.63049     718.3345     626.7576
   1425.61523     719.8910     628.4915   1425.61523     719.8910     628.4915
   1425.59998     720.8723     628.1559   1425.59998     720.8723     628.1559
   1425.58472     723.2762     628.8527   1425.58472     723.2762     628.8527
   1425.56946     724.5462     629.2284   1425.56946     724.5462     629.2284
   1425.55420     725.2602     630.2731   1425.55420     725.2602     630.2731
   1425.53894     726.9415     631.0604   1425.53894     726.9415     631.0604
   1425.52368     728.9219     632.0190   1425.52368     728.9219     632.0190
   1425.50842     729.5578     631.3449   1425.50842     729.5578     631.3449
   1425.49316     732.1588     631.6675   1425.49316     732.1588     631.6675
   1425.47791     733.4284     632.2972   1425.47791     733.4284     632.2972
   1425.46265     734.8322     632.5673   1425.46265     734.8322     632.5673
   1425.44739     737.0126     633.6057   1425.44739     737.0126     633.6057
   1425.43213     736.9525     633.5903   1425.43213     736.9525     633.5903
   1425.41687     739.9284     634.3380   1425.41687     739.9284     634.3380
   1425.40161     739.8578     634.3254   1425.40161     739.8578     634.3254
   1425.38635     741.7089     634.3552   1425.38635     741.7089     634.3552
   1425.37109     743.6278     633.6782   1425.37109     743.6278     633.6782
   1425.35583     743.5216     635.6176   1425.35583     743.5216     635.6176
   1425.34058     744.5319     635.0413   1425.34058     744.5319     635.0413
   1425.32532     746.0733     635.1201   1425.32532     746.0733     635.1201
   1425.31006     747.3099     634.9099   1425.31006     747.3099     634.9099
   1425.29480     747.3520     634.4285   1425.29480     747.3520     634.4285
   1425.27954     750.0788     635.5764   1425.27954     750.0788     635.5764
   1425.26428     751.1849     635.2393   1425.26428     751.1849     635.2393
   1425.24902     753.2035     635.8369   1425.24902     753.2035     635.8369
   1425.23376     752.6392     636.0448   1425.23376     752.6392     636.0448
   1425.21851     753.5256     636.3997   1425.21851     753.5256     636.3997
   1425.20325     754.7920     635.6070   1425.20325     754.7920     635.6070
   1425.18799     754.8820     635.6538   1425.18799     754.8820     635.6538
   1425.17273     755.7923     635.2272   1425.17273     755.7923     635.2272
   1425.15747     755.9945     635.5840   1425.15747     755.9945     635.5840
   1425.14221     756.2734     636.1371   1425.14221     756.2734     636.1371
   1425.12695     758.1973     636.3537   1425.12695     758.1973     636.3537
   1425.11169     758.9601     634.9669   1425.11169     758.9601     634.9669
   1425.09644     759.4135     636.1117   1425.09644     759.4135     636.1117
   1425.08118     759.4080     635.1159   1425.08118     759.4080     635.1159
   1425.06592     761.9774     635.4350   1425.06592     761.9774     635.4350
   1425.05066     760.5739     636.5922   1425.05066     760.5739     636.5922
   1425.03540     761.7526     635.8596   1425.03540     761.7526     635.8596
   1425.02014     761.2338     635.9105   1425.02014     761.2338     635.9105
   1425.00488     762.5573     635.7340   1425.00488     762.5573     635.7340
   1424.98962     763.8766     635.5540   1424.98962     763.8766     635.5540
   1424.97437     763.3036     635.0115   1424.97437     763.3036     635.0115
   1424.95911     766.0779     635.3901   1424.95911     766.0779     635.3901
   1424.94385     765.5286     634.8484   1424.94385     765.5286     634.8484
   1424.92859     765.1791     635.2929   1424.92859     765.1791     635.2929
   1424.91333     765.0247     634.2441   1424.91333     765.0247     634.2441
   1424.89807     766.5609     633.7651   1424.89807     766.5609     633.7651
   1424.88281     764.8293     633.5734   1424.88281     764.8293     633.5734
   1424.86755     766.3626     634.1277   1424.86755     766.3626     634.1277
   1424.85229     766.7939     633.8607   1424.85229     766.7939     633.8607
   1424.83704     767.3842     634.0388   1424.83704     767.3842     634.0388
   1424.82178     767.5333     632.7811   1424.82178     767.5333     632.7811
   1424.80652     767.2769     632.4528   1424.80652     767.2769     632.4528
   1424.79126     767.8404     632.3240   1424.79126     767.8404     632.3240
   1424.77600     767.3033     632.3488   1424.77600     767.3033     632.3488
   1424.76074     768.3572     630.7485   1424.76074     768.3572     630.7485
   1424.74548     767.7445     631.1948   1424.74548     767.7445     631.1948
   1424.73022     768.4856     631.6542   1424.73022     768.4856     631.6542
   1424.71497     767.0706     630.9656   1424.71497     767.0706     630.9656
   1424.69971     769.4508     631.0726   1424.69971     769.4508     631.0726
   1424.68445     768.1071     630.7169   1424.68445     768.1071     630.7169
   1424.66919     767.7747     629.7610   1424.66919     767.7747     629.7610
   1424.65393     769.8401     630.4573   1424.65393     769.8401     630.4573
   1424.63867     769.5219     630.2689   1424.63867     769.5219     630.2689
   1424.62341     767.8570     629.4009   1424.62341     767.8570     629.4009
   1424.60815     767.9286     629.3401   1424.60815     767.9286     629.3401
   1424.59290     769.6461     627.8560   1424.59290     769.6461     627.8560
   1424.57764     768.8345     627.9846   1424.57764     768.8345     627.9846
   1424.56238     768.9425     627.4413   1424.56238     768.9425     627.4413
   1424.54712     767.6818     627.0563   1424.54712     767.6818     627.0563
   1424.53186     768.5766     626.6587   1424.53186     768.5766     626.6587
   1424.51660     768.1543     626.5176   1424.51660     768.1543     626.5176
   1424.50134     767.8852     626.4321   1424.50134     767.8852     626.4321
   1424.48608     767.3841     626.1014   1424.48608     767.3841     626.1014
   1424.47083     766.5583     624.2902   1424.47083     766.5583     624.2902
   1424.45557     766.8065     624.8550   1424.45557     766.8065     624.8550
   1424.44031     767.3942     624.7340   1424.44031     767.3942     624.7340
   1424.42505     765.4398     622.7987   1424.42505     765.4398     622.7987
   1424.40979     766.9576     623.3541   1424.40979     766.9576     623.3541
   1424.39453     766.8480     623.0278   1424.39453     766.8480     623.0278
   1424.37927     766.7525     622.5712   1424.37927     766.7525     622.5712
   1424.36401     766.5530     621.4632   1424.36401     766.5530     621.4632
   1424.34875     765.9066     621.8809   1424.34875     765.9066     621.8809
   1424.33350     765.7961     621.5259   1424.33350     765.7961     621.5259
   1424.31824     766.1735     621.5292   1424.31824     766.1735     621.5292
   1424.30298     765.8108     620.3970   1424.30298     765.8108     620.3970
   1424.28772     765.5697     619.7177   1424.28772     765.5697     619.7177
   1424.27246     764.2642     619.0624   1424.27246     764.2642     619.0624
   1424.25720     764.2143     619.3275   1424.25720     764.2143     619.3275
   1424.24194     764.4105     618.2531   1424.24194     764.4105     618.2531
   1424.22668     763.8578     616.9130   1424.22668     763.8578     616.9130
   1424.21143     763.5247     616.8279   1424.21143     763.5247     616.8279
   1424.19617     762.4088     616.9642   1424.19617     762.4088     616.9642
   1424.18091     761.6851     617.5869   1424.18091     761.6851     617.5869
   1424.16565     762.7353     614.6709   1424.16565     762.7353     614.6709
   1424.15039     762.0553     615.3358   1424.15039     762.0553     615.3358
   1424.13513     761.2561     614.6161   1424.13513     761.2561     614.6161
   1424.11987     760.5872     614.6853   1424.11987     760.5872     614.6853
   1424.10461     760.5564     614.8539   1424.10461     760.5564     614.8539
   1424.08936     759.7331     613.3447   1424.08936     759.7331     613.3447
   1424.07410     760.1728     613.1843   1424.07410     760.1728     613.1843
   1424.05884     759.6495     612.3319   1424.05884     759.6495     612.3319
   1424.04358     759.5374     611.7054   1424.04358     759.5374     611.7054
   1424.02832     758.5787     611.7468   1424.02832     758.5787     611.7468
   1424.01306     758.9943     610.8264   1424.01306     758.9943     610.8264
   1423.99780     757.3807     609.5838   1423.99780     757.3807     609.5838
   1423.98254     759.0530     608.9048   1423.98254     759.0530     608.9048
   1423.96729     757.3412     608.1446   1423.96729     757.3412     608.1446
   1423.95203     756.6683     609.1372   1423.95203     756.6683     609.1372
   1423.93677     756.1225     607.4879   1423.93677     756.1225     607.4879
   1423.92151     756.2612     607.0486   1423.92151     756.2612     607.0486
   1423.90625     755.8163     606.6707   1423.90625     755.8163     606.6707
   1423.89099     756.0873     605.3318   1423.89099     756.0873     605.3318
   1423.87573     755.3094     605.1085   1423.87573     755.3094     605.1085
   1423.86047     754.2871     604.3707   1423.86047     754.2871     604.3707
   1423.84521     753.7642     603.7608   1423.84521     753.7642     603.7608
   1423.82996     753.6212     604.4128   1423.82996     753.6212     604.4128
   1423.81470     753.9197     603.6445   1423.81470     753.9197     603.6445
   1423.79944     752.2800     602.4052   1423.79944     752.2800     602.4052
   1423.78418     752.4774     601.6002   1423.78418     752.4774     601.6002
   1423.76892     750.6560     601.2698   1423.76892     750.6560     601.2698
   1423.75366     751.9186     600.1887   1423.75366     751.9186     600.1887
   1423.73840     750.0229     599.5296   1423.73840     750.0229     599.5296
   1423.72314     750.2074     598.6978   1423.72314     750.2074     598.6978
   1423.70789     749.1010     598.8356   1423.70789     749.1010     598.8356
   1423.69263     749.1394     597.3444   1423.69263     749.1394     597.3444
   1423.67737     750.1803     597.4908   1423.67737     750.1803     597.4908
   1423.66211     748.2136     597.1520   1423.66211     748.2136     597.1520
   1423.64685     749.4407     596.9752   1423.64685     749.4407     596.9752
   1423.63159     747.9366     596.1339   1423.63159     747.9366     596.1339
   1423.61633     747.7206     595.7895   1423.61633     747.7206     595.7895
   1423.60107     746.5228     594.0637   1423.60107     746.5228     594.0637
   1423.58582     747.0549     593.5950   1423.58582     747.0549     593.5950
   1423.57056     745.3520     593.0410   1423.57056     745.3520     593.0410
   1423.55530     745.5097     592.1996   1423.55530     745.5097     592.1996
   1423.54004     745.3125     591.9461   1423.54004     745.3125     591.9461
   1423.52478     743.1594     590.8864   1423.52478     743.1594     590.8864
   1423.50952     745.1347     590.3305   1423.50952     745.1347     590.3305
   1423.49426     744.3718     589.9656   1423.49426     744.3718     589.9656
   1423.47900     743.9661     589.9008   1423.47900     743.9661     589.9008
   1423.46375     742.4926     587.6804   1423.46375     742.4926     587.6804
   1423.44849     742.1796     588.4374   1423.44849     742.1796     588.4374
   1423.43323     742.3243     587.4847   1423.43323     742.3243     587.4847
   1423.41797     741.2050     585.8736   1423.41797     741.2050     585.8736
   1423.40271     740.2152     585.5378   1423.40271     740.2152     585.5378
   1423.38745     741.0953     585.4499   1423.38745     741.0953     585.4499
   1423.37219     740.8461     583.8083   1423.37219     740.8461     583.8083
   1423.35693     740.1671     583.3107   1423.35693     740.1671     583.3107
   1423.34167     740.2260     582.3272   1423.34167     740.2260     582.3272
   1423.32642     740.0329     582.1021   1423.32642     740.0329     582.1021
   1423.31116     739.1757     581.1243   1423.31116     739.1757     581.1243
   1423.29590     739.0598     580.4366   1423.29590     739.0598     580.4366
   1423.28064     738.3818     579.5691   1423.28064     738.3818     579.5691
   1423.26538     738.4894     578.9583   1423.26538     738.4894     578.9583
   1423.25012     737.9152     577.8832   1423.25012     737.9152     577.8832
   1423.23486     736.8805     578.1756   1423.23486     736.8805     578.1756
   1423.21960     736.8114     576.8593   1423.21960     736.8114     576.8593
   1423.20435     736.5513     576.0023   1423.20435     736.5513     576.0023
   1423.18909     735.9189     574.8796   1423.18909     735.9189     574.8796
   1423.17383     735.3379     574.4189   1423.17383     735.3379     574.4189
   1423.15857     735.2040     573.6876   1423.15857     735.2040     573.6876
   1423.14331     733.9583     572.5888   1423.14331     733.9583     572.5888
   1423.12805     734.3758     571.7582   1423.12805     734.3758     571.7582
   1423.11279     733.6560     570.4729   1423.11279     733.6560     570.4729
   1423.09753     733.1318     570.5906   1423.09753     733.1318     570.5906
   1423.08228     733.9832     569.8257   1423.08228     733.9832     569.8257
   1423.06702     732.5637     568.2675   1423.06702     732.5637     568.2675
   1423.05176     733.3235     568.4913   1423.05176     733.3235     568.4913
   1423.03650     733.4512     568.3994   1423.03650     733.4512     568.3994
   1423.02124     731.5921     567.0271   1423.02124     731.5921     567.0271
   1423.00598     731.5542     565.2842   1423.00598     731.5542     565.2842
   1422.99072     731.6320     564.9351   1422.99072     731.6320     564.9351
   1422.97546     732.8087     564.5061   1422.97546     732.8087     564.5061
   1422.96021     730.9724     564.4120   1422.96021     730.9724     564.4120
   1422.94495     730.7706     563.5590   1422.94495     730.7706     563.5590
   1422.92969     730.2395     562.3178   1422.92969     730.2395     562.3178
   1422.91443     729.7515     561.3809   1422.91443     729.7515     561.3809
   1422.89917     730.0186     560.2680   1422.89917     730.0186     560.2680
   1422.88391     728.6089     559.4426   1422.88391     728.6089     559.4426
   1422.86865     728.3220     559.2610   1422.86865     728.3220     559.2610
   1422.85339     728.2247     558.3127   1422.85339     728.2247     558.3127
   1422.83813     727.6696     556.8044   1422.83813     727.6696     556.8044
   1422.82288     728.7022     556.0370   1422.82288     728.7022     556.0370
   1422.80762     727.6600     556.4555   1422.80762     727.6600     556.4555
   1422.79236     727.3638     555.8776   1422.79236     727.3638     555.8776
   1422.77710     727.5095     554.2228   1422.77710     727.5095     554.2228
   1422.76184     725.8624     553.6889   1422.76184     725.8624     553.6889
   1422.74658     727.5752     551.5006   1422.74658     727.5752     551.5006
   1422.73132     727.3879     551.6278   1422.73132     727.3879     551.6278
   1422.71606     725.7936     550.7784   1422.71606     725.7936     550.7784
   1422.70081     725.7792     549.5610   1422.70081     725.7792     549.5610
   1422.68555     725.9101     549.5118   1422.68555     725.9101     549.5118
   1422.67029     726.7224     547.6288   1422.67029     726.7224     547.6288
   1422.65503     725.3661     547.4410   1422.65503     725.3661     547.4410
   1422.63977     726.0271     546.5789   1422.63977     726.0271     546.5789
   1422.62451     726.8045     546.4426   1422.62451     726.8045     546.4426
   1422.60925     724.9628     545.6545   1422.60925     724.9628     545.6545
   1422.59399     724.6866     543.7054   1422.59399     724.6866     543.7054
   1422.57874     723.3315     543.1145   1422.57874     723.3315     543.1145
   1422.56348     725.3005     541.6087   1422.56348     725.3005     541.6087
   1422.54822     724.0817     541.7625   1422.54822     724.0817     541.7625
   1422.53296     723.8719     540.1462   1422.53296     723.8719     540.1462
   1422.51770     724.4556     539.3943   1422.51770     724.4556     539.3943
   1422.50244     724.2604     538.5002   1422.50244     724.2604     538.5002
   1422.48718     723.6199     538.0718   1422.48718     723.6199     538.0718
   1422.47192     723.7718     536.5232   1422.47192     723.7718     536.5232
   1422.45667     723.5401     535.9219   1422.45667     723.5401     535.9219
   1422.44141     721.7669     535.5629   1422.44141     721.7669     535.5629
   1422.42615     722.2794     534.1694   1422.42615     722.2794     534.1694
   1422.41089     723.4628     533.9771   1422.41089     723.4628     533.9771
   1422.39563     722.4734     532.9783   1422.39563     722.4734     532.9783
   1422.38037     723.4253     532.5034   1422.38037     723.4253     532.5034
   1422.36511     722.3694     531.5954   1422.36511     722.3694     531.5954
   1422.34985     723.1640     530.3707   1422.34985     723.1640     530.3707
   1422.33459     721.3948     529.7686   1422.33459     721.3948     529.7686
   1422.31934     721.7903     528.7745   1422.31934     721.7903     528.7745
   1422.30408     721.2084     528.2292   1422.30408     721.2084     528.2292
   1422.28882     722.5745     527.2816   1422.28882     722.5745     527.2816
   1422.27356     721.9282     526.4777   1422.27356     721.9282     526.4777
   1422.25830     720.7200     525.8327   1422.25830     720.7200     525.8327
   1422.24304     721.3512     524.3696   1422.24304     721.3512     524.3696
   1422.22778     720.7527     523.5352   1422.22778     720.7527     523.5352
   1422.21252     721.2069     522.6833   1422.21252     721.2069     522.6833
   1422.19727     720.8100     522.3708   1422.19727     720.8100     522.3708
   1422.18201     720.5790     521.4241   1422.18201     720.5790     521.4241
   1422.16675     719.7835     520.3321   1422.16675     719.7835     520.3321
   1422.15149     719.7186     519.3002   1422.15149     719.7186     519.3002
   1422.13623     719.3337     517.7250   1422.13623     719.3337     517.7250
   1422.12097     719.8042     517.8656   1422.12097     719.8042     517.8656
   1422.10571     718.7407     518.4216   1422.10571     718.7407     518.4216
   1422.09045     720.0074     515.6990   1422.09045     720.0074     515.6990
   1422.07520     719.9756     515.7647   1422.07520     719.9756     515.7647
   1422.05994     720.2476     515.2094   1422.05994     720.2476     515.2094
   1422.04468     719.1443     513.1638   1422.04468     719.1443     513.1638
   1422.02942     719.3730     512.3533   1422.02942     719.3730     512.3533
   1422.01416     718.7691     511.2604   1422.01416     718.7691     511.2604
   1421.99890     718.5529     511.1621   1421.99890     718.5529     511.1621
   1421.98364     718.6113     509.9514   1421.98364     718.6113     509.9514
   1421.96838     718.0955     508.6029   1421.96838     718.0955     508.6029
   1421.95312     719.2925     508.8182   1421.95312     719.2925     508.8182
   1421.93787     718.4327     508.1709   1421.93787     718.4327     508.1709
   1421.92261     718.9304     506.7663   1421.92261     718.9304     506.7663
   1421.90735     718.2968     505.6511   1421.90735     718.2968     505.6511
   1421.89209     718.3323     504.8980   1421.89209     718.3323     504.8980
   1421.87683     718.8369     503.8523   1421.87683     718.8369     503.8523
   1421.86157     718.8133     503.2734   1421.86157     718.8133     503.2734
   1421.84631     717.6697     502.1429   1421.84631     717.6697     502.1429
   1421.83105     717.8742     501.9461   1421.83105     717.8742     501.9461
   1421.81580     719.3602     501.2209   1421.81580     719.3602     501.2209
   1421.80054     717.7654     499.8556   1421.80054     717.7654     499.8556
   1421.78528     719.1287     499.5690   1421.78528     719.1287     499.5690
   1421.77002     717.6661     498.1024   1421.77002     717.6661     498.1024
   1421.75476     717.9176     498.4737   1421.75476     717.9176     498.4737
   1421.73950     717.5983     496.8349   1421.73950     717.5983     496.8349
   1421.72424     718.4525     495.1450   1421.72424     718.4525     495.1450
   1421.70898     716.8636     494.1587   1421.70898     716.8636     494.1587
   1421.69373     717.1983     493.6046   1421.69373     717.1983     493.6046
   1421.67847     716.9147     493.7981   1421.67847     716.9147     493.7981
   1421.66321     716.9554     491.7769   1421.66321     716.9554     491.7769
   1421.64795     716.6859     491.2845   1421.64795     716.6859     491.2845
   1421.63269     717.2448     489.8438   1421.63269     717.2448     489.8438
   1421.61743     717.8254     488.9827   1421.61743     717.8254     488.9827
   1421.60217     716.6488     488.5027   1421.60217     716.6488     488.5027
   1421.58691     716.7526     488.1141   1421.58691     716.7526     488.1141
   1421.57166     716.5529     486.6357   1421.57166     716.5529     486.6357
   1421.55640     715.4153     486.4258   1421.55640     715.4153     486.4258
   1421.54114     716.4182     485.0782   1421.54114     716.4182     485.0782
   1421.52588     715.2012     484.2041   1421.52588     715.2012     484.2041
   1421.51062     715.9158     482.6711   1421.51062     715.9158     482.6711
   1421.49536     715.7164     482.6971   1421.49536     715.7164     482.6971
   1421.48010     715.5073     481.5288   1421.48010     715.5073     481.5288
   1421.46484     714.7389     480.7986   1421.46484     714.7389     480.7986
   1421.44958     715.4255     480.1041   1421.44958     715.4255     480.1041
   1421.43433     715.0161     479.0100   1421.43433     715.0161     479.0100
   1421.41907     714.8613     478.6320   1421.41907     714.8613     478.6320
   1421.40381     715.0993     477.0626   1421.40381     715.0993     477.0626
   1421.38855     714.4976     477.1165   1421.38855     714.4976     477.1165
   1421.37329     715.4146     476.0551   1421.37329     715.4146     476.0551
   1421.35803     714.9821     475.2002   1421.35803     714.9821     475.2002
   1421.34277     713.8601     473.7187   1421.34277     713.8601     473.7187
   1421.32751     714.2053     473.3077   1421.32751     714.2053     473.3077
   1421.31226     714.2307     472.0728   1421.31226     714.2307     472.0728
   1421.29700     713.9742     470.9973   1421.29700     713.9742     470.9973
   1421.28174     713.6847     470.1676   1421.28174     713.6847     470.1676
   1421.26648     712.6414     470.1006   1421.26648     712.6414     470.1006
   1421.25122     714.0957     468.9379   1421.25122     714.0957     468.9379
   1421.23596     714.1901     467.0192   1421.23596     714.1901     467.0192
   1421.22070     713.8432     467.2573   1421.22070     713.8432     467.2573
   1421.20544     713.4791     466.3857   1421.20544     713.4791     466.3857
   1421.19019     713.2620     465.1985   1421.19019     713.2620     465.1985
   1421.17493     712.5675     464.9345   1421.17493     712.5675     464.9345
   1421.15967     713.0415     463.4319   1421.15967     713.0415     463.4319
   1421.14441     713.3633     462.5567   1421.14441     713.3633     462.5567
   1421.12915     712.1188     461.8768   1421.12915     712.1188     461.8768
   1421.11389     712.5703     461.1748   1421.11389     712.5703     461.1748
   1421.09863     712.0214     460.4141   1421.09863     712.0214     460.4141
   1421.08337     711.7909     460.0280   1421.08337     711.7909     460.0280
   1421.06812     711.3143     458.5572   1421.06812     711.3143     458.5572
   1421.05286     711.8961     457.8531   1421.05286     711.8961     457.8531
   1421.03760     712.3079     456.8914   1421.03760     712.3079     456.8914
   1421.02234     711.9352     456.1613   1421.02234     711.9352     456.1613
   1421.00708     711.8798     455.8238   1421.00708     711.8798     455.8238
   1420.99182     711.2823     454.4115   1420.99182     711.2823     454.4115
   1420.97656     712.0614     454.0047   1420.97656     712.0614     454.0047
   1420.96130     712.2906     452.8438   1420.96130     712.2906     452.8438
   1420.94604     711.0393     452.8031   1420.94604     711.0393     452.8031
   1420.93079     712.2327     451.8057   1420.93079     712.2327     451.8057
   1420.91553     712.0510     451.3649   1420.91553     712.0510     451.3649
   1420.90027     712.9509     450.5774   1420.90027     712.9509     450.5774
   1420.88501     713.6637     450.6768   1420.88501     713.6637     450.6768
   1420.86975     713.3029     450.2194   1420.86975     713.3029     450.2194
   1420.85449     714.9836     449.2037   1420.85449     714.9836     449.2037
   1420.83923     715.0546     448.9872   1420.83923     715.0546     448.9872
   1420.82397     715.5569     448.4109   1420.82397     715.5569     448.4109
   1420.80872     717.0976     448.8708   1420.80872     717.0976     448.8708
   1420.79346     718.7061     448.8614   1420.79346     718.7061     448.8614
   1420.77820     719.8438     449.0353   1420.77820     719.8438     449.0353
   1420.76294     719.7304     448.8135   1420.76294     719.7304     448.8135
   1420.74768     722.0502     448.7107   1420.74768     722.0502     448.7107
   1420.73242     723.5561     449.3870   1420.73242     723.5561     449.3870
   1420.71716     725.8071     449.0169   1420.71716     725.8071     449.0169
   1420.70190     729.8669     452.0032   1420.70190     729.8669     452.0032
   1420.68665     739.8372     456.6438   1420.68665     739.8372     456.6438
   1420.67139     751.1089     462.3793   1420.67139     751.1089     462.3793
   1420.65613     765.9859     471.7299   1420.65613     765.9859     471.7299
   1420.64087     779.2265     477.7555   1420.64087     779.2265     477.7555
   1420.62561     795.0900     486.8528   1420.62561     795.0900     486.8528
   1420.61035     823.7029     502.9148   1420.61035     823.7029     502.9148
   1420.59509     858.6821     522.8759   1420.59509     858.6821     522.8759
   1420.57983     924.5336     559.8428   1420.57983     924.5336     559.8428
   1420.56458    1049.2858     633.3355   1420.56458    1049.2858     633.3355
   1420.54932    1245.5702     747.9227   1420.54932    1245.5702     747.9227
   1420.53406    1462.4768     871.5516   1420.53406    1462.4768     871.5516
   1420.51880    1701.5797    1010.3833   1420.51880    1701.5797    1010.3833
   1420.50354    1761.0388    1044.2076   1420.50354    1761.0388    1044.2076
   1420.48828    1709.2687    1011.7192   1420.48828    1709.2687    1011.7192
   1420.47302    1813.8278    1070.0002   1420.47302    1813.8278    1070.0002
   1420.45776    1900.1439    1117.6240   1420.45776    1900.1439    1117.6240
   1420.44250    1871.8298    1099.9175   1420.44250    1871.8298    1099.9175
   1420.42725    1855.0588    1087.6523   1420.42725    1855.0588    1087.6523
   1420.41199    1758.2133    1030.9626   1420.41199    1758.2133    1030.9626
   1420.39673    1541.4291     906.6898   1420.39673    1541.4291     906.6898
   1420.38147    1577.0240     924.1624   1420.38147    1577.0240     924.1624
   1420.36621    1670.0106     976.4766   1420.36621    1670.0106     976.4766
   1420.35095    1562.5397     914.5158   1420.35095    1562.5397     914.5158
   1420.33569    1460.9156     851.1782   1420.33569    1460.9156     851.1782
   1420.32043    1424.8209     828.1053   1420.32043    1424.8209     828.1053
   1420.30518    1196.6274     698.4535   1420.30518    1196.6274     698.4535
   1420.28992     912.3252     537.3337   1420.28992     912.3252     537.3337
   1420.27466     805.4293     474.8861   1420.27466     805.4293     474.8861
   1420.25940     759.2385     447.4284   1420.25940     759.2385     447.4284
   1420.24414     737.0507     434.7138   1420.24414     737.0507     434.7138
   1420.22888     725.3616     427.0890   1420.22888     725.3616     427.0890
   1420.21362     717.7790     421.2091   1420.21362     717.7790     421.2091
   1420.19836     712.0386     418.4785   1420.19836     712.0386     418.4785
   1420.18311     708.9778     416.0842   1420.18311     708.9778     416.0842
   1420.16785     708.7117     414.8075   1420.16785     708.7117     414.8075
   1420.15259     705.8329     413.7516   1420.15259     705.8329     413.7516
   1420.13733     705.8593     411.8557   1420.13733     705.8593     411.8557
   1420.12207     704.1785     410.4070   1420.12207     704.1785     410.4070
   1420.10681     702.1600     409.6468   1420.10681     702.1600     409.6468
   1420.09155     700.0654     407.8247   1420.09155     700.0654     407.8247
   1420.07629     700.6409     406.2584   1420.07629     700.6409     406.2584
   1420.06104     700.2551     406.0886   1420.06104     700.2551     406.0886
   1420.04578     699.7602     404.7240   1420.04578     699.7602     404.7240
   1420.03052     699.2784     404.5245   1420.03052     699.2784     404.5245
   1420.01526     699.9352     405.0748   1420.01526     699.9352     405.0748
   1420.00000     700.3159     405.4541   1420.00000     700.3159     405.4541
   1419.98474     700.6965     405.8333   1419.98474     700.6965     405.8333
   1419.96948     701.3335     403.1555   1419.96948     701.3335     403.1555
   1419.95422     698.1434     400.7404   1419.95422     698.1434     400.7404
   1419.93896     698.7280     399.6950   1419.93896     698.7280     399.6950
   1419.92371     698.0378     399.7089   1419.92371     698.0378     399.7089
   1419.90845     698.5164     399.1552   1419.90845     698.5164     399.1552
   1419.89319     697.7677     398.8206   1419.89319     697.7677     398.8206
   1419.87793     698.5841     397.2171   1419.87793     698.5841     397.2171
   1419.86267     698.3250     396.9641   1419.86267     698.3250     396.9641
   1419.84741     697.3775     396.5430   1419.84741     697.3775     396.5430
   1419.83215     697.8917     396.2100   1419.83215     697.8917     396.2100
   1419.81689     696.2207     395.5141   1419.81689     696.2207     395.5141
   1419.80164     697.5724     395.0947   1419.80164     697.5724     395.0947
   1419.78638     697.5029     394.6197   1419.78638     697.5029     394.6197
   1419.77112     697.2778     394.2908   1419.77112     697.2778     394.2908
   1419.75586     697.6635     394.0196   1419.75586     697.6635     394.0196
   1419.74060     698.0933     392.8784   1419.74060     698.0933     392.8784
   1419.72534     697.9114     392.0201   1419.72534     697.9114     392.0201
   1419.71008     698.1360     391.7567   1419.71008     698.1360     391.7567
   1419.69482     698.6227     391.7347   1419.69482     698.6227     391.7347
   1419.67957     698.5627     391.0067   1419.67957     698.5627     391.0067
   1419.66431     698.2995     390.5798   1419.66431     698.2995     390.5798
   1419.64905     698.1859     389.6948   1419.64905     698.1859     389.6948
   1419.63379     698.0422     390.2794   1419.63379     698.0422     390.2794
   1419.61853     697.6512     389.7063   1419.61853     697.6512     389.7063
   1419.60327     698.8682     388.5299   1419.60327     698.8682     388.5299
   1419.58801     699.0453     388.7206   1419.58801     699.0453     388.7206
   1419.57275     699.9875     388.3205   1419.57275     699.9875     388.3205
   1419.55750     698.9714     388.1081   1419.55750     698.9714     388.1081
   1419.54224     698.5847     387.4214   1419.54224     698.5847     387.4214
   1419.52698     699.1577     387.4290   1419.52698     699.1577     387.4290
   1419.51172     698.5698     386.5461   1419.51172     698.5698     386.5461
   1419.49646     699.7692     387.0536   1419.49646     699.7692     387.0536
   1419.48120     700.0316     386.1714   1419.48120     700.0316     386.1714
   1419.46594     699.9685     386.1949   1419.46594     699.9685     386.1949
   1419.45068     701.5615     385.8928   1419.45068     701.5615     385.8928
   1419.43542     699.3217     385.0998   1419.43542     699.3217     385.0998
   1419.42017     701.1367     385.5850   1419.42017     701.1367     385.5850
   1419.40491     700.7053     384.9691   1419.40491     700.7053     384.9691
   1419.38965     700.6367     384.8163   1419.38965     700.6367     384.8163
   1419.37439     700.3611     384.1889   1419.37439     700.3611     384.1889
   1419.35913     701.2917     383.5179   1419.35913     701.2917     383.5179
   1419.34387     701.1599     383.6839   1419.34387     701.1599     383.6839
   1419.32861     701.8591     382.8581   1419.32861     701.8591     382.8581
   1419.31335     702.3826     383.1372   1419.31335     702.3826     383.1372
   1419.29810     702.3736     383.0240   1419.29810     702.3736     383.0240
   1419.28284     703.0108     383.0192   1419.28284     703.0108     383.0192
   1419.26758     704.1772     382.6094   1419.26758     704.1772     382.6094
   1419.25232     703.7986     382.7297   1419.25232     703.7986     382.7297
   1419.23706     704.0823     382.2978   1419.23706     704.0823     382.2978
   1419.22180     704.6324     381.9747   1419.22180     704.6324     381.9747
   1419.20654     703.9246     381.5366   1419.20654     703.9246     381.5366
   1419.19128     705.3072     381.4407   1419.19128     705.3072     381.4407
   1419.17603     705.2930     381.5585   1419.17603     705.2930     381.5585
   1419.16077     705.6208     381.6843   1419.16077     705.6208     381.6843
   1419.14551     706.3304     381.1310   1419.14551     706.3304     381.1310
   1419.13025     705.2653     381.3410   1419.13025     705.2653     381.3410
   1419.11499     706.2458     381.0156   1419.11499     706.2458     381.0156
   1419.09973     705.5405     380.8480   1419.09973     705.5405     380.8480
   1419.08447     706.4393     381.1936   1419.08447     706.4393     381.1936
   1419.06921     707.4579     380.8032   1419.06921     707.4579     380.8032
   1419.05396     707.8452     381.1125   1419.05396     707.8452     381.1125
   1419.03870     707.9001     380.7709   1419.03870     707.9001     380.7709
   1419.02344     708.3564     380.3961   1419.02344     708.3564     380.3961
   1419.00818     709.1044     380.9292   1419.00818     709.1044     380.9292
   1418.99292     709.6572     381.0338   1418.99292     709.6572     381.0338
   1418.97766     710.1695     380.5250   1418.97766     710.1695     380.5250
   1418.96240     710.3396     380.8494   1418.96240     710.3396     380.8494
   1418.94714     709.7808     380.6630   1418.94714     709.7808     380.6630
   1418.93188     710.6708     380.6662   1418.93188     710.6708     380.6662
   1418.91663     710.2543     380.6385   1418.91663     710.2543     380.6385
   1418.90137     711.6193     380.7752   1418.90137     711.6193     380.7752
   1418.88611     711.5458     380.5284   1418.88611     711.5458     380.5284
   1418.87085     713.6680     380.9820   1418.87085     713.6680     380.9820
   1418.85559     713.2171     380.8836   1418.85559     713.2171     380.8836
   1418.84033     713.3069     381.7121   1418.84033     713.3069     381.7121
   1418.82507     714.6824     380.6857   1418.82507     714.6824     380.6857
   1418.80981     715.5446     381.3911   1418.80981     715.5446     381.3911
   1418.79456     715.6168     381.4450   1418.79456     715.6168     381.4450
   1418.77930     715.6081     381.0395   1418.77930     715.6081     381.0395
   1418.76404     715.2921     381.8181   1418.76404     715.2921     381.8181
   1418.74878     716.4290     380.7748   1418.74878     716.4290     380.7748
   1418.73352     716.4086     381.2644   1418.73352     716.4086     381.2644
   1418.71826     716.4117     381.9667   1418.71826     716.4117     381.9667
   1418.70300     718.4648     382.6593   1418.70300     718.4648     382.6593
   1418.68774     718.9664     382.3879   1418.68774     718.9664     382.3879
   1418.67249     718.5186     382.3457   1418.67249     718.5186     382.3457
   1418.65723     718.7564     382.9836   1418.65723     718.7564     382.9836
   1418.64197     718.6000     382.5755   1418.64197     718.6000     382.5755
   1418.62671     720.1399     383.4710   1418.62671     720.1399     383.4710
   1418.61145     721.1124     383.4252   1418.61145     721.1124     383.4252
   1418.59619     721.3691     383.7081   1418.59619     721.3691     383.7081
   1418.58093     721.6246     384.4616   1418.58093     721.6246     384.4616
   1418.56567     724.1032     384.9226   1418.56567     724.1032     384.9226
   1418.55042     723.6462     384.8813   1418.55042     723.6462     384.8813
   1418.53516     724.1890     385.0408   1418.53516     724.1890     385.0408
   1418.51990     724.1958     385.5558   1418.51990     724.1958     385.5558
   1418.50464     724.3260     385.8271   1418.50464     724.3260     385.8271
   1418.48938     725.8653     386.3750   1418.48938     725.8653     386.3750
   1418.47412     725.4067     386.7356   1418.47412     725.4067     386.7356
   1418.45886     726.7758     386.6315   1418.45886     726.7758     386.6315
   1418.44360     727.8839     386.8011   1418.44360     727.8839     386.8011
   1418.42834     728.1392     386.9929   1418.42834     728.1392     386.9929
   1418.41309     727.7741     387.1868   1418.41309     727.7741     387.1868
   1418.39783     728.8834     387.3528   1418.39783     728.8834     387.3528
   1418.38257     729.7099     388.5198   1418.38257     729.7099     388.5198
   1418.36731     730.1552     388.7956   1418.36731     730.1552     388.7956
   1418.35205     731.3317     389.3221   1418.35205     731.3317     389.3221
   1418.33679     732.0986     389.4839   1418.33679     732.0986     389.4839
   1418.32153     730.8163     389.8246   1418.32153     730.8163     389.8246
   1418.30627     734.2145     390.4285   1418.30627     734.2145     390.4285
   1418.29102     734.0266     391.4671   1418.29102     734.0266     391.4671
   1418.27576     735.4688     391.7835   1418.27576     735.4688     391.7835
   1418.26050     734.4012     392.1190   1418.26050     734.4012     392.1190
   1418.24524     734.9895     392.4115   1418.24524     734.9895     392.4115
   1418.22998     735.6036     393.3398   1418.22998     735.6036     393.3398
   1418.21472     737.2910     393.2299   1418.21472     737.2910     393.2299
   1418.19946     737.0475     394.3527   1418.19946     737.0475     394.3527
   1418.18420     739.2596     394.8270   1418.18420     739.2596     394.8270
   1418.16895     739.9008     395.0180   1418.16895     739.9008     395.0180
   1418.15369     740.1362     395.7291   1418.15369     740.1362     395.7291
   1418.13843     740.3564     395.9816   1418.13843     740.3564     395.9816
   1418.12317     741.7789     396.9218   1418.12317     741.7789     396.9218
   1418.10791     742.0193     397.3076   1418.10791     742.0193     397.3076
   1418.09265     742.2557     397.8997   1418.09265     742.2557     397.8997
   1418.07739     742.9675     398.2691   1418.07739     742.9675     398.2691
   1418.06213     743.7003     399.1854   1418.06213     743.7003     399.1854
   1418.04688     745.9620     400.1115   1418.04688     745.9620     400.1115
   1418.03162     745.4544     400.6653   1418.03162     745.4544     400.6653
   1418.01636     746.6577     401.2696   1418.01636     746.6577     401.2696
   1418.00110     746.8917     401.8509   1418.00110     746.8917     401.8509
   1417.98584     747.2070     402.0045   1417.98584     747.2070     402.0045
   1417.97058     748.0609     403.7887   1417.97058     748.0609     403.7887
   1417.95532     748.7662     403.3676   1417.95532     748.7662     403.3676
   1417.94006     749.7496     403.9064   1417.94006     749.7496     403.9064
   1417.92480     750.0981     404.7256   1417.92480     750.0981     404.7256
   1417.90955     751.0215     406.2470   1417.90955     751.0215     406.2470
   1417.89429     752.1236     407.3576   1417.89429     752.1236     407.3576
   1417.87903     752.0561     406.7803   1417.87903     752.0561     406.7803
   1417.86377     754.3051     407.7267   1417.86377     754.3051     407.7267
   1417.84851     753.2004     408.8688   1417.84851     753.2004     408.8688
   1417.83325     755.6360     409.5599   1417.83325     755.6360     409.5599
   1417.81799     755.4073     409.9200   1417.81799     755.4073     409.9200
   1417.80273     755.2836     411.5681   1417.80273     755.2836     411.5681
   1417.78748     757.1750     411.7271   1417.78748     757.1750     411.7271
   1417.77222     757.1015     412.4713   1417.77222     757.1015     412.4713
   1417.75696     758.4966     413.5042   1417.75696     758.4966     413.5042
   1417.74170     758.4371     413.6844   1417.74170     758.4371     413.6844
   1417.72644     761.6955     414.1693   1417.72644     761.6955     414.1693
   1417.71118     760.1826     416.2472   1417.71118     760.1826     416.2472
   1417.69592     761.4247     415.9602   1417.69592     761.4247     415.9602
   1417.68066     762.3815     417.6186   1417.68066     762.3815     417.6186
   1417.66541     762.6657     418.1682   1417.66541     762.6657     418.1682
   1417.65015     763.7004     419.2411   1417.65015     763.7004     419.2411
   1417.63489     764.1873     420.3629   1417.63489     764.1873     420.3629
   1417.61963     764.9265     420.5992   1417.61963     764.9265     420.5992
   1417.60437     765.4999     422.1089   1417.60437     765.4999     422.1089
   1417.58911     764.9191     422.7268   1417.58911     764.9191     422.7268
   1417.57385     766.4666     423.4279   1417.57385     766.4666     423.4279
   1417.55859     767.6406     423.7984   1417.55859     767.6406     423.7984
   1417.54333     768.9327     425.1395   1417.54333     768.9327     425.1395
   1417.52808     768.9121     425.8885   1417.52808     768.9121     425.8885
   1417.51282     770.1984     427.9240   1417.51282     770.1984     427.9240
   1417.49756     770.3406     427.5267   1417.49756     770.3406     427.5267
   1417.48230     770.6736     428.4482   1417.48230     770.6736     428.4482
   1417.46704     771.3544     429.1891   1417.46704     771.3544     429.1891
   1417.45178     771.5513     430.9466   1417.45178     771.5513     430.9466
   1417.43652     772.7834     432.3775   1417.43652     772.7834     432.3775
   1417.42126     774.5081     432.5220   1417.42126     774.5081     432.5220
   1417.40601     774.8809     433.3467   1417.40601     774.8809     433.3467
   1417.39075     775.1633     434.6873   1417.39075     775.1633     434.6873
   1417.37549     776.4879     435.9079   1417.37549     776.4879     435.9079
   1417.36023     775.6221     436.2393   1417.36023     775.6221     436.2393
   1417.34497     778.0466     437.6031   1417.34497     778.0466     437.6031
   1417.32971     778.8858     438.2610   1417.32971     778.8858     438.2610
   1417.31445     778.5375     439.1496   1417.31445     778.5375     439.1496
   1417.29919     779.3571     440.5274   1417.29919     779.3571     440.5274
   1417.28394     779.6489     441.8604   1417.28394     779.6489     441.8604
   1417.26868     780.1022     442.8139   1417.26868     780.1022     442.8139
   1417.25342     780.5673     443.2102   1417.25342     780.5673     443.2102
   1417.23816     782.0473     444.8436   1417.23816     782.0473     444.8436
   1417.22290     782.8848     445.9310   1417.22290     782.8848     445.9310
   1417.20764     782.7903     445.7489   1417.20764     782.7903     445.7489
   1417.19238     783.5188     446.8798   1417.19238     783.5188     446.8798
   1417.17712     784.1501     448.6687   1417.17712     784.1501     448.6687
   1417.16187     784.1165     449.1284   1417.16187     784.1165     449.1284
   1417.14661     784.8095     450.5886   1417.14661     784.8095     450.5886
   1417.13135     785.5366     450.9503   1417.13135     785.5366     450.9503
   1417.11609     786.1932     452.6149   1417.11609     786.1932     452.6149
   1417.10083     785.5703     452.4635   1417.10083     785.5703     452.4635
   1417.08557     787.2498     454.3310   1417.08557     787.2498     454.3310
   1417.07031     787.0287     455.2003   1417.07031     787.0287     455.2003
   1417.05505     788.4224     456.4427   1417.05505     788.4224     456.4427
   1417.03979     787.7719     457.1709   1417.03979     787.7719     457.1709
   1417.02454     789.2430     458.3617   1417.02454     789.2430     458.3617
   1417.00928     788.7753     459.3650   1417.00928     788.7753     459.3650
   1416.99402     789.9421     460.3922   1416.99402     789.9421     460.3922
   1416.97876     791.1476     461.4589   1416.97876     791.1476     461.4589
   1416.96350     789.8641     462.4484   1416.96350     789.8641     462.4484
   1416.94824     790.5895     464.2077   1416.94824     790.5895     464.2077
   1416.93298     790.9417     463.9518   1416.93298     790.9417     463.9518
   1416.91772     792.2081     464.9483   1416.91772     792.2081     464.9483
   1416.90247     792.8290     465.7474   1416.90247     792.8290     465.7474
   1416.88721     792.9026     466.7868   1416.88721     792.9026     466.7868
   1416.87195     792.9827     467.4984   1416.87195     792.9827     467.4984
   1416.85669     792.9086     468.6767   1416.85669     792.9086     468.6767
   1416.84143     792.2835     470.1008   1416.84143     792.2835     470.1008
   1416.82617     793.3512     469.9617   1416.82617     793.3512     469.9617
   1416.81091     793.8985     471.5998   1416.81091     793.8985     471.5998
   1416.79565     794.9070     472.4733   1416.79565     794.9070     472.4733
   1416.78040     794.5045     474.0227   1416.78040     794.5045     474.0227
   1416.76514     794.6982     474.3317   1416.76514     794.6982     474.3317
   1416.74988     795.3805     474.9489   1416.74988     795.3805     474.9489
   1416.73462     795.2845     476.0220   1416.73462     795.2845     476.0220
   1416.71936     797.2883     477.3058   1416.71936     797.2883     477.3058
   1416.70410     796.6554     477.3748   1416.70410     796.6554     477.3748
   1416.68884     796.5921     478.7782   1416.68884     796.5921     478.7782
   1416.67358     795.9424     479.3092   1416.67358     795.9424     479.3092
   1416.65833     796.0994     479.7765   1416.65833     796.0994     479.7765
   1416.64307     796.5416     481.0408   1416.64307     796.5416     481.0408
   1416.62781     796.9266     481.5376   1416.62781     796.9266     481.5376
   1416.61255     797.1470     481.9728   1416.61255     797.1470     481.9728
   1416.59729     797.3392     483.2442   1416.59729     797.3392     483.2442
   1416.58203     796.2894     483.9498   1416.58203     796.2894     483.9498
   1416.56677     797.1339     484.2783   1416.56677     797.1339     484.2783
   1416.55151     797.7566     484.9809   1416.55151     797.7566     484.9809
   1416.53625     798.3002     486.0137   1416.53625     798.3002     486.0137
   1416.52100     796.7263     486.0707   1416.52100     796.7263     486.0707
   1416.50574     796.9421     487.2894   1416.50574     796.9421     487.2894
   1416.49048     795.5640     488.6075   1416.49048     795.5640     488.6075
   1416.47522     796.3942     488.3137   1416.47522     796.3942     488.3137
   1416.45996     796.7327     489.3383   1416.45996     796.7327     489.3383
   1416.44470     797.4318     489.8792   1416.44470     797.4318     489.8792
   1416.42944     798.9063     490.7236   1416.42944     798.9063     490.7236
   1416.41418     797.3455     490.7150   1416.41418     797.3455     490.7150
   1416.39893     795.0165     491.6425   1416.39893     795.0165     491.6425
   1416.38367     795.4097     492.0253   1416.38367     795.4097     492.0253
   1416.36841     796.2529     492.9887   1416.36841     796.2529     492.9887
   1416.35315     796.5126     493.7352   1416.35315     796.5126     493.7352
   1416.33789     796.8524     493.5394   1416.33789     796.8524     493.5394
   1416.32263     796.2583     494.6031   1416.32263     796.2583     494.6031
   1416.30737     795.9936     494.9484   1416.30737     795.9936     494.9484
   1416.29211     795.2696     495.1796   1416.29211     795.2696     495.1796
   1416.27686     795.7772     496.1302   1416.27686     795.7772     496.1302
   1416.26160     796.1022     495.9000   1416.26160     796.1022     495.9000
   1416.24634     794.9996     497.1895   1416.24634     794.9996     497.1895
   1416.23108     795.0617     497.2986   1416.23108     795.0617     497.2986
   1416.21582     794.7000     497.6974   1416.21582     794.7000     497.6974
   1416.20056     794.6142     497.1599   1416.20056     794.6142     497.1599
   1416.18530     793.7753     497.6986   1416.18530     793.7753     497.6986
   1416.17004     793.9583     498.3716   1416.17004     793.9583     498.3716
   1416.15479     792.9766     498.1446   1416.15479     792.9766     498.1446
   1416.13953     793.2006     498.6132   1416.13953     793.2006     498.6132
   1416.12427     792.1799     498.8802   1416.12427     792.1799     498.8802
   1416.10901     793.4189     499.3371   1416.10901     793.4189     499.3371
   1416.09375     791.7624     499.5246   1416.09375     791.7624     499.5246
   1416.07849     790.4568     499.7528   1416.07849     790.4568     499.7528
   1416.06323     791.5289     500.7201   1416.06323     791.5289     500.7201
   1416.04797     789.8618     500.3952   1416.04797     789.8618     500.3952
   1416.03271     791.1613     500.6170   1416.03271     791.1613     500.6170
   1416.01746     790.3074     500.7522   1416.01746     790.3074     500.7522
   1416.00220     789.9101     500.2939   1416.00220     789.9101     500.2939
   1415.98694     789.0276     500.2262   1415.98694     789.0276     500.2262
   1415.97168     788.7703     501.5021   1415.97168     788.7703     501.5021
   1415.95642     788.8788     502.4713   1415.95642     788.8788     502.4713
   1415.94116     788.2147     501.7985   1415.94116     788.2147     501.7985
   1415.92590     787.3514     501.7772   1415.92590     787.3514     501.7772
   1415.91064     787.5610     501.4367   1415.91064     787.5610     501.4367
   1415.89539     786.1191     502.2165   1415.89539     786.1191     502.2165
   1415.88013     784.8908     502.6313   1415.88013     784.8908     502.6313
   1415.86487     784.7949     502.2962   1415.86487     784.7949     502.2962
   1415.84961     782.8658     501.9377   1415.84961     782.8658     501.9377
   1415.83435     782.7384     502.3562   1415.83435     782.7384     502.3562
   1415.81909     782.9570     502.8286   1415.81909     782.9570     502.8286
   1415.80383     781.6862     501.1437   1415.80383     781.6862     501.1437
   1415.78857     781.8796     501.4816   1415.78857     781.8796     501.4816
   1415.77332     781.1941     502.0273   1415.77332     781.1941     502.0273
   1415.75806     779.8929     502.8648   1415.75806     779.8929     502.8648
   1415.74280     780.0515     502.0496   1415.74280     780.0515     502.0496
   1415.72754     778.1501     502.5922   1415.72754     778.1501     502.5922
   1415.71228     778.9046     502.8877   1415.71228     778.9046     502.8877
   1415.69702     777.3731     502.7090   1415.69702     777.3731     502.7090
   1415.68176     775.0917     502.4594   1415.68176     775.0917     502.4594
   1415.66650     775.6296     502.7203   1415.66650     775.6296     502.7203
   1415.65125     775.4550     502.5361   1415.65125     775.4550     502.5361
   1415.63599     775.0173     502.3592   1415.63599     775.0173     502.3592
   1415.62073     772.2430     501.9948   1415.62073     772.2430     501.9948
   1415.60547     773.4827     501.1638   1415.60547     773.4827     501.1638
   1415.59021     771.4797     501.6351   1415.59021     771.4797     501.6351
   1415.57495     770.5850     501.7714   1415.57495     770.5850     501.7714
   1415.55969     771.0784     501.5322   1415.55969     771.0784     501.5322
   1415.54443     768.9554     502.0345   1415.54443     768.9554     502.0345
   1415.52917     768.9453     500.7960   1415.52917     768.9453     500.7960
   1415.51392     767.1293     501.4065   1415.51392     767.1293     501.4065
   1415.49866     766.5772     501.0189   1415.49866     766.5772     501.0189
   1415.48340     766.8243     500.6883   1415.48340     766.8243     500.6883
   1415.46814     765.5645     500.8319   1415.46814     765.5645     500.8319
   1415.45288     763.4366     500.7949   1415.45288     763.4366     500.7949
   1415.43762     763.7584     500.5063   1415.43762     763.7584     500.5063
   1415.42236     762.1780     499.7657   1415.42236     762.1780     499.7657
   1415.40710     762.1856     499.2857   1415.40710     762.1856     499.2857
   1415.39185     760.6181     499.7892   1415.39185     760.6181     499.7892
   1415.37659     759.7183     499.3628   1415.37659     759.7183     499.3628
   1415.36133     759.8826     498.7118   1415.36133     759.8826     498.7118
   1415.34607     756.6231     498.5842   1415.34607     756.6231     498.5842
   1415.33081     755.4498     497.6924   1415.33081     755.4498     497.6924
   1415.31555     754.8519     498.0154   1415.31555     754.8519     498.0154
   1415.30029     754.6307     498.0843   1415.30029     754.6307     498.0843
   1415.28503     753.8979     497.6473   1415.28503     753.8979     497.6473
   1415.26978     752.1176     497.3033   1415.26978     752.1176     497.3033
   1415.25452     749.3714     496.4821   1415.25452     749.3714     496.4821
   1415.23926     748.4487     496.1535   1415.23926     748.4487     496.1535
   1415.22400     748.6564     496.4273   1415.22400     748.6564     496.4273
   1415.20874     746.0637     495.2900   1415.20874     746.0637     495.2900
   1415.19348     745.5520     495.0977   1415.19348     745.5520     495.0977
   1415.17822     745.4525     494.7221   1415.17822     745.4525     494.7221
   1415.16296     744.0427     494.5841   1415.16296     744.0427     494.5841
   1415.14771     740.7506     493.8080   1415.14771     740.7506     493.8080
   1415.13245     740.9915     493.3870   1415.13245     740.9915     493.3870
   1415.11719     739.8266     493.5445   1415.11719     739.8266     493.5445
   1415.10193     738.3496     492.7400   1415.10193     738.3496     492.7400
   1415.08667     736.7603     492.3299   1415.08667     736.7603     492.3299
   1415.07141     735.5375     491.2852   1415.07141     735.5375     491.2852
   1415.05615     734.6728     491.1186   1415.05615     734.6728     491.1186
   1415.04089     733.3824     491.0038   1415.04089     733.3824     491.0038
   1415.02563     732.9880     490.2332   1415.02563     732.9880     490.2332
   1415.01038     730.9403     489.8846   1415.01038     730.9403     489.8846
   1414.99512     728.3552     489.1034   1414.99512     728.3552     489.1034
   1414.97986     727.1591     488.9433   1414.97986     727.1591     488.9433
   1414.96460     726.5273     487.7108   1414.96460     726.5273     487.7108
   1414.94934     724.1912     487.2544   1414.94934     724.1912     487.2544
   1414.93408     722.7153     486.5946   1414.93408     722.7153     486.5946
   1414.91882     722.6392     486.1393   1414.91882     722.6392     486.1393
   1414.90356     720.4023     485.2320   1414.90356     720.4023     485.2320
   1414.88831     719.0117     484.9186   1414.88831     719.0117     484.9186
   1414.87305     716.6130     483.7421   1414.87305     716.6130     483.7421
   1414.85779     715.5676     483.1510   1414.85779     715.5676     483.1510
   1414.84253     713.8467     482.3502   1414.84253     713.8467     482.3502
   1414.82727     711.8732     482.3904   1414.82727     711.8732     482.3904
   1414.81201     711.1829     481.8523   1414.81201     711.1829     481.8523
   1414.79675     708.0005     480.4379   1414.79675     708.0005     480.4379
   1414.78149     706.7871     480.4883   1414.78149     706.7871     480.4883
   1414.76624     705.0754     479.0647   1414.76624     705.0754     479.0647
   1414.75098     705.1824     477.9776   1414.75098     705.1824     477.9776
   1414.73572     701.8636     477.4134   1414.73572     701.8636     477.4134
   1414.72046     700.1239     476.9001   1414.72046     700.1239     476.9001
   1414.70520     698.0015     475.0179   1414.70520     698.0015     475.0179
   1414.68994     696.7016     474.7142   1414.68994     696.7016     474.7142
   1414.67468     695.8458     473.6762   1414.67468     695.8458     473.6762
   1414.65942     692.9380     472.8899   1414.65942     692.9380     472.8899
   1414.64417     692.4855     471.9483   1414.64417     692.4855     471.9483
   1414.62891     687.7808     471.2117   1414.62891     687.7808     471.2117
   1414.61365     686.7280     469.7443   1414.61365     686.7280     469.7443
   1414.59839     685.4882     468.9514   1414.59839     685.4882     468.9514
   1414.58313     683.3561     468.9410   1414.58313     683.3561     468.9410
   1414.56787     681.0035     467.6744   1414.56787     681.0035     467.6744
   1414.55261     680.5216     466.8623   1414.55261     680.5216     466.8623
   1414.53735     678.2546     465.5334   1414.53735     678.2546     465.5334
   1414.52209     675.3141     463.8747   1414.52209     675.3141     463.8747
   1414.50684     673.8829     463.0780   1414.50684     673.8829     463.0780
   1414.49158     671.7985     462.2445   1414.49158     671.7985     462.2445
   1414.47632     668.5413     461.3119   1414.47632     668.5413     461.3119
   1414.46106     665.9168     459.7809   1414.46106     665.9168     459.7809
   1414.44580     664.9001     458.7941   1414.44580     664.9001     458.7941
   1414.43054     663.2816     457.7949   1414.43054     663.2816     457.7949
   1414.41528     660.7692     456.9592   1414.41528     660.7692     456.9592
   1414.40002     658.5482     454.6729   1414.40002     658.5482     454.6729
   1414.38477     656.5939     454.6627   1414.38477     656.5939     454.6627
   1414.36951     653.0151     453.2321   1414.36951     653.0151     453.2321
   1414.35425     652.4633     451.6648   1414.35425     652.4633     451.6648
   1414.33899     649.0991     450.3630   1414.33899     649.0991     450.3630
   1414.32373     647.4534     448.9417   1414.32373     647.4534     448.9417
   1414.30847     643.6251     448.5103   1414.30847     643.6251     448.5103
   1414.29321     642.0261     447.3896   1414.29321     642.0261     447.3896
   1414.27795     639.6596     446.0912   1414.27795     639.6596     446.0912
   1414.26270     637.6250     444.7443   1414.26270     637.6250     444.7443
   1414.24744     634.4703     443.2050   1414.24744     634.4703     443.2050
   1414.23218     633.4087     441.9620   1414.23218     633.4087     441.9620
   1414.21692     629.4248     440.1903   1414.21692     629.4248     440.1903
   1414.20166     627.3752     439.5134   1414.20166     627.3752     439.5134
   1414.18640     624.9791     438.5842   1414.18640     624.9791     438.5842
   1414.17114     622.5824     436.6307   1414.17114     622.5824     436.6307
   1414.15588     620.1320     434.6607   1414.15588     620.1320     434.6607
   1414.14062     617.2733     434.2799   1414.14062     617.2733     434.2799
   1414.12537     614.6432     432.0671   1414.12537     614.6432     432.0671
   1414.11011     613.0375     431.6532   1414.11011     613.0375     431.6532
   1414.09485     609.4179     429.2850   1414.09485     609.4179     429.2850
   1414.07959     607.5489     428.2620   1414.07959     607.5489     428.2620
   1414.06433     604.2357     426.8151   1414.06433     604.2357     426.8151
   1414.04907     602.5939     425.4391   1414.04907     602.5939     425.4391
   1414.03381     599.1852     423.5148   1414.03381     599.1852     423.5148
   1414.01855     596.3645     422.0489   1414.01855     596.3645     422.0489
   1414.00330     598.8893     422.7953   1414.00330     598.8893     422.7953
   1413.98804     592.0921     420.3444   1413.98804     592.0921     420.3444
   1413.97278     590.2833     418.2328   1413.97278     590.2833     418.2328
   1413.95752     586.2686     416.5387   1413.95752     586.2686     416.5387
   1413.94226     583.4490     414.5152   1413.94226     583.4490     414.5152
   1413.92700     581.0870     413.1320   1413.92700     581.0870     413.1320
   1413.91174     578.5848     411.7599   1413.91174     578.5848     411.7599
   1413.89648     575.6108     409.6236   1413.89648     575.6108     409.6236
   1413.88123     573.2538     408.4721   1413.88123     573.2538     408.4721
   1413.86597     568.7644     407.0716   1413.86597     568.7644     407.0716
   1413.85071     565.7178     405.3750   1413.85071     565.7178     405.3750
   1413.83545     564.0684     403.9242   1413.83545     564.0684     403.9242
   1413.82019     561.0099     402.6673   1413.82019     561.0099     402.6673
   1413.80493     558.3651     400.2968   1413.80493     558.3651     400.2968
   1413.78967     555.9374     399.5285   1413.78967     555.9374     399.5285
   1413.77441     553.0992     397.2857   1413.77441     553.0992     397.2857
   1413.75916     550.7239     396.4756   1413.75916     550.7239     396.4756
   1413.74390     546.8827     394.1158   1413.74390     546.8827     394.1158
   1413.72864     544.6715     393.0594   1413.72864     544.6715     393.0594
   1413.71338     541.4077     391.5662   1413.71338     541.4077     391.5662
   1413.69812     539.3761     389.8629   1413.69812     539.3761     389.8629
   1413.68286     536.3352     387.7137   1413.68286     536.3352     387.7137
   1413.66760     532.8108     386.8617   1413.66760     532.8108     386.8617
   1413.65234     530.3332     385.2032   1413.65234     530.3332     385.2032
   1413.63708     528.3120     383.1138   1413.63708     528.3120     383.1138
   1413.62183     524.7545     381.4438   1413.62183     524.7545     381.4438
   1413.60657     522.1515     379.7789   1413.60657     522.1515     379.7789
   1413.59131     519.8152     378.5378   1413.59131     519.8152     378.5378
   1413.57605     516.2868     376.7273   1413.57605     516.2868     376.7273
   1413.56079     514.0522     375.3196   1413.56079     514.0522     375.3196
   1413.54553     511.2275     373.4955   1413.54553     511.2275     373.4955
   1413.53027     508.4984     372.5164   1413.53027     508.4984     372.5164
   1413.51501     505.1039     370.5659   1413.51501     505.1039     370.5659
   1413.49976     501.8261     368.5365   1413.49976     501.8261     368.5365
   1413.48450     499.9239     367.3873   1413.48450     499.9239     367.3873
   1413.46924     496.1160     365.3082   1413.46924     496.1160     365.3082
   1413.45398     494.0228     364.0755   1413.45398     494.0228     364.0755
   1413.43872     491.1381     362.7680   1413.43872     491.1381     362.7680
   1413.42346     488.9109     360.9460   1413.42346     488.9109     360.9460
   1413.40820     486.3104     359.4677   1413.40820     486.3104     359.4677
   1413.39294     483.7885     358.0403   1413.39294     483.7885     358.0403
   1413.37769     480.8062     357.0022   1413.37769     480.8062     357.0022
   1413.36243     478.2236     355.5201   1413.36243     478.2236     355.5201
   1413.34717     475.5619     354.1955   1413.34717     475.5619     354.1955
   1413.33191     473.1463     352.3305   1413.33191     473.1463     352.3305
   1413.31665     470.0496     350.6570   1413.31665     470.0496     350.6570
   1413.30139     467.8999     348.8308   1413.30139     467.8999     348.8308
   1413.28613     464.1481     347.6623   1413.28613     464.1481     347.6623
   1413.27087     461.7943     346.3650   1413.27087     461.7943     346.3650
   1413.25562     460.2303     345.2921   1413.25562     460.2303     345.2921
   1413.24036     456.3688     344.2210   1413.24036     456.3688     344.2210
   1413.22510     454.2823     342.5476   1413.22510     454.2823     342.5476
   1413.20984     452.2436     341.1839   1413.20984     452.2436     341.1839
   1413.19458     450.1023     340.1230   1413.19458     450.1023     340.1230
   1413.17932     447.9155     338.1965   1413.17932     447.9155     338.1965
   1413.16406     445.1120     336.9889   1413.16406     445.1120     336.9889
   1413.14880     442.9644     335.9640   1413.14880     442.9644     335.9640
   1413.13354     439.9625     335.1075   1413.13354     439.9625     335.1075
   1413.11829     438.0163     333.6263   1413.11829     438.0163     333.6263
   1413.10303     435.8440     332.8517   1413.10303     435.8440     332.8517
   1413.08777     433.2506     331.4122   1413.08777     433.2506     331.4122
   1413.07251     431.1938     330.8438   1413.07251     431.1938     330.8438
   1413.05725     429.0174     329.3825   1413.05725     429.0174     329.3825
   1413.04199     426.7963     328.3313   1413.04199     426.7963     328.3313
   1413.02673     424.4972     326.6611   1413.02673     424.4972     326.6611
   1413.01147     422.2714     326.3100   1413.01147     422.2714     326.3100
   1412.99622     420.0418     325.3837   1412.99622     420.0418     325.3837
   1412.98096     418.0213     324.2227   1412.98096     418.0213     324.2227
   1412.96570     415.7789     323.5947   1412.96570     415.7789     323.5947
   1412.95044     414.5538     322.5471   1412.95044     414.5538     322.5471
   1412.93518     412.1160     321.4481   1412.93518     412.1160     321.4481
   1412.91992     410.3843     321.1807   1412.91992     410.3843     321.1807
   1412.90466     409.1590     320.7846   1412.90466     409.1590     320.7846
   1412.88940     407.1459     319.5482   1412.88940     407.1459     319.5482
   1412.87415     405.6206     319.3259   1412.87415     405.6206     319.3259
   1412.85889     403.6733     318.2010   1412.85889     403.6733     318.2010
   1412.84363     401.5817     317.6883   1412.84363     401.5817     317.6883
   1412.82837     399.3255     317.0126   1412.82837     399.3255     317.0126
   1412.81311     398.2871     316.4492   1412.81311     398.2871     316.4492
   1412.79785     397.0136     316.2385   1412.79785     397.0136     316.2385
   1412.78259     395.3139     315.7610   1412.78259     395.3139     315.7610
   1412.76733     393.7545     314.8360   1412.76733     393.7545     314.8360
   1412.75208     392.5222     314.8525   1412.75208     392.5222     314.8525
   1412.73682     391.3280     314.6313   1412.73682     391.3280     314.6313
   1412.72156     389.5547     314.4252   1412.72156     389.5547     314.4252
   1412.70630     388.3234     313.6852   1412.70630     388.3234     313.6852
   1412.69104     387.9625     313.6587   1412.69104     387.9625     313.6587
   1412.67578     385.3228     313.8667   1412.67578     385.3228     313.8667
   1412.66052     385.4991     313.5313   1412.66052     385.4991     313.5313
   1412.64526     384.0878     313.2574   1412.64526     384.0878     313.2574
   1412.63000     382.4337     313.3864   1412.63000     382.4337     313.3864
   1412.61475     382.2407     313.4882   1412.61475     382.2407     313.4882
   1412.59949     380.9494     313.8185   1412.59949     380.9494     313.8185
   1412.58423     379.9063     314.2929   1412.58423     379.9063     314.2929
   1412.56897     379.1732     314.4643   1412.56897     379.1732     314.4643
   1412.55371     378.6822     314.8915   1412.55371     378.6822     314.8915
   1412.53845     377.4054     314.9548   1412.53845     377.4054     314.9548
   1412.52319     376.8906     315.1297   1412.52319     376.8906     315.1297
   1412.50793     376.1436     315.3170   1412.50793     376.1436     315.3170
   1412.49268     376.0398     315.8016   1412.49268     376.0398     315.8016
   1412.47742     375.1931     316.8994   1412.47742     375.1931     316.8994
   1412.46216     374.7345     316.6550   1412.46216     374.7345     316.6550
   1412.44690     375.2416     317.8207   1412.44690     375.2416     317.8207
   1412.43164     374.2100     319.0583   1412.43164     374.2100     319.0583
   1412.41638     373.7313     319.0703   1412.41638     373.7313     319.0703
   1412.40112     373.8807     320.3412   1412.40112     373.8807     320.3412
   1412.38586     373.2154     320.7532   1412.38586     373.2154     320.7532
   1412.37061     373.2184     321.1381   1412.37061     373.2184     321.1381
   1412.35535     373.2401     322.7348   1412.35535     373.2401     322.7348
   1412.34009     373.1830     323.6474   1412.34009     373.1830     323.6474
   1412.32483     374.0703     324.7143   1412.32483     374.0703     324.7143
   1412.30957     373.2607     324.9379   1412.30957     373.2607     324.9379
   1412.29431     373.8746     326.8734   1412.29431     373.8746     326.8734
   1412.27905     373.7112     328.0441   1412.27905     373.7112     328.0441
   1412.26379     374.3724     329.6536   1412.26379     374.3724     329.6536
   1412.24854     374.6563     330.7178   1412.24854     374.6563     330.7178
   1412.23328     374.6983     331.3934   1412.23328     374.6983     331.3934
   1412.21802     374.9693     333.9893   1412.21802     374.9693     333.9893
   1412.20276     375.5526     334.8437   1412.20276     375.5526     334.8437