#     FILENAME=!Skynet_57528_lach-hhg-100_20347_20907.cyb.fits
#     BASENAME=Skynet_57528_lach-hhg-100_20347_20907
#     SRC_NAME=lach-hhg-100
#     OBSERVER=hhgmadison16_9500
#     DATE_OBS=2016-05-20T15:23:33.620
#        OBSID=20347
#      SCANNUM=20907
#          MJD=57528.6424
#          UTC=55502
#     SCANTYPE=track
#     DATAMODE=HIRES
#     TUNEFREQ=1420.0000
# Actual_FREQ1=1420.0000
# Actual_FREQ2=1420.0000
#    LO1Tuning=6870.000
#     RFFILTER=1355_1435
#        OBSBW=-15.6250
#        NCHAN=1024 
#        FOCUS=37.0709
#           RA=22:00:09.88
#          DEC=55:02:58.60
#      RA(hrs)=22.002700
#     DEC(deg)=55.049600
#    AZIM(deg)=312.644
#    ELEV(deg)=47.334
#     IFattens=11.00, 9.00
#      WARNING=None
#    TCAL_XL1=7.9635
#    TCAL_YR1=9.1340
#    TCAL_XL2=7.9635
#    TCAL_YR2=9.1340
#     TRX_XL1=11.7060
#     TRX_YR1=11.7060
#     TRX_XL2=11.7060
#     TRX_YR2=11.7060
#        TAVE=1.0000
#Freq1(MHz)          XL1          YR1  Freq2(MHz)          XL2          YR2 

   1427.81250     369.0422     227.1410   1427.81250     369.0422     227.1410
   1427.79724     369.9316     227.2216   1427.79724     369.9316     227.2216
   1427.78198     370.6661     228.1015   1427.78198     370.6661     228.1015
   1427.76672     371.5119     228.6926   1427.76672     371.5119     228.6926
   1427.75146     372.3591     229.1363   1427.75146     372.3591     229.1363
   1427.73621     373.4127     230.5439   1427.73621     373.4127     230.5439
   1427.72095     374.3662     231.1518   1427.72095     374.3662     231.1518
   1427.70569     374.2650     231.7589   1427.70569     374.2650     231.7589
   1427.69043     376.3370     232.6099   1427.69043     376.3370     232.6099
   1427.67517     377.4058     233.2946   1427.67517     377.4058     233.2946
   1427.65991     378.6314     234.2867   1427.65991     378.6314     234.2867
   1427.64465     379.5174     234.8370   1427.64465     379.5174     234.8370
   1427.62939     381.1105     235.6996   1427.62939     381.1105     235.6996
   1427.61414     382.9593     236.9875   1427.61414     382.9593     236.9875
   1427.59888     383.6861     237.8446   1427.59888     383.6861     237.8446
   1427.58362     385.1733     238.4594   1427.58362     385.1733     238.4594
   1427.56836     386.9707     239.7406   1427.56836     386.9707     239.7406
   1427.55310     387.8882     241.0107   1427.55310     387.8882     241.0107
   1427.53784     389.6106     242.0727   1427.53784     389.6106     242.0727
   1427.52258     391.5387     243.2479   1427.52258     391.5387     243.2479
   1427.50732     393.0238     244.3014   1427.50732     393.0238     244.3014
   1427.49207     394.5915     245.3290   1427.49207     394.5915     245.3290
   1427.47681     395.9689     246.4237   1427.47681     395.9689     246.4237
   1427.46155     399.0304     247.6852   1427.46155     399.0304     247.6852
   1427.44629     400.7821     248.5823   1427.44629     400.7821     248.5823
   1427.43103     402.7950     250.0746   1427.43103     402.7950     250.0746
   1427.41577     404.3491     251.2794   1427.41577     404.3491     251.2794
   1427.40051     405.7492     252.3100   1427.40051     405.7492     252.3100
   1427.38525     408.3556     253.5547   1427.38525     408.3556     253.5547
   1427.37000     410.2980     254.9694   1427.37000     410.2980     254.9694
   1427.35474     412.8266     256.2592   1427.35474     412.8266     256.2592
   1427.33948     414.8505     257.5605   1427.33948     414.8505     257.5605
   1427.32422     416.6660     259.4287   1427.32422     416.6660     259.4287
   1427.30896     419.0640     260.5087   1427.30896     419.0640     260.5087
   1427.29370     421.2125     261.8457   1427.29370     421.2125     261.8457
   1427.27844     424.2732     263.2030   1427.27844     424.2732     263.2030
   1427.26318     425.7015     265.1444   1427.26318     425.7015     265.1444
   1427.24792     429.6164     266.3133   1427.24792     429.6164     266.3133
   1427.23267     431.6375     268.0241   1427.23267     431.6375     268.0241
   1427.21741     433.8812     269.4018   1427.21741     433.8812     269.4018
   1427.20215     436.1645     270.9656   1427.20215     436.1645     270.9656
   1427.18689     438.6518     272.5920   1427.18689     438.6518     272.5920
   1427.17163     441.6144     274.1930   1427.17163     441.6144     274.1930
   1427.15637     444.4964     276.0719   1427.15637     444.4964     276.0719
   1427.14111     446.8085     276.8899   1427.14111     446.8085     276.8899
   1427.12585     449.3065     279.3118   1427.12585     449.3065     279.3118
   1427.11060     452.3377     280.7545   1427.11060     452.3377     280.7545
   1427.09534     454.5135     282.2039   1427.09534     454.5135     282.2039
   1427.08008     458.1537     283.5655   1427.08008     458.1537     283.5655
   1427.06482     459.9228     285.1082   1427.06482     459.9228     285.1082
   1427.04956     462.4133     287.5117   1427.04956     462.4133     287.5117
   1427.03430     465.8149     288.9802   1427.03430     465.8149     288.9802
   1427.01904     468.9962     291.1373   1427.01904     468.9962     291.1373
   1427.00378     471.4213     292.1316   1427.00378     471.4213     292.1316
   1426.98853     474.7779     294.0734   1426.98853     474.7779     294.0734
   1426.97327     477.1716     295.7385   1426.97327     477.1716     295.7385
   1426.95801     480.8731     297.5699   1426.95801     480.8731     297.5699
   1426.94275     482.6816     299.5656   1426.94275     482.6816     299.5656
   1426.92749     486.0757     300.7740   1426.92749     486.0757     300.7740
   1426.91223     489.4369     302.9150   1426.91223     489.4369     302.9150
   1426.89697     491.7585     304.7049   1426.89697     491.7585     304.7049
   1426.88171     495.2935     306.1339   1426.88171     495.2935     306.1339
   1426.86646     497.8200     308.1871   1426.86646     497.8200     308.1871
   1426.85120     501.3007     309.6897   1426.85120     501.3007     309.6897
   1426.83594     503.6546     311.5172   1426.83594     503.6546     311.5172
   1426.82068     506.9507     313.3682   1426.82068     506.9507     313.3682
   1426.80542     510.8037     315.3594   1426.80542     510.8037     315.3594
   1426.79016     513.5033     317.2449   1426.79016     513.5033     317.2449
   1426.77490     516.5769     318.8948   1426.77490     516.5769     318.8948
   1426.75964     519.8661     320.7106   1426.75964     519.8661     320.7106
   1426.74438     523.0254     322.2343   1426.74438     523.0254     322.2343
   1426.72913     525.5853     324.1818   1426.72913     525.5853     324.1818
   1426.71387     529.2234     325.7980   1426.71387     529.2234     325.7980
   1426.69861     531.3873     327.9437   1426.69861     531.3873     327.9437
   1426.68335     534.2522     328.8322   1426.68335     534.2522     328.8322
   1426.66809     537.3860     331.2022   1426.66809     537.3860     331.2022
   1426.65283     540.8162     332.6775   1426.65283     540.8162     332.6775
   1426.63757     544.7880     334.9624   1426.63757     544.7880     334.9624
   1426.62231     549.7610     337.5555   1426.62231     549.7610     337.5555
   1426.60706     551.4626     338.6095   1426.60706     551.4626     338.6095
   1426.59180     553.2262     339.7309   1426.59180     553.2262     339.7309
   1426.57654     557.1454     341.6798   1426.57654     557.1454     341.6798
   1426.56128     560.2415     343.5698   1426.56128     560.2415     343.5698
   1426.54602     562.5801     345.7571   1426.54602     562.5801     345.7571
   1426.53076     565.7125     346.8249   1426.53076     565.7125     346.8249
   1426.51550     568.5398     348.4453   1426.51550     568.5398     348.4453
   1426.50024     572.4980     350.9428   1426.50024     572.4980     350.9428
   1426.48499     574.6562     352.3256   1426.48499     574.6562     352.3256
   1426.46973     576.7343     354.4175   1426.46973     576.7343     354.4175
   1426.45447     581.8489     355.4855   1426.45447     581.8489     355.4855
   1426.43921     583.1854     357.7694   1426.43921     583.1854     357.7694
   1426.42395     587.4185     359.3803   1426.42395     587.4185     359.3803
   1426.40869     589.3693     360.8370   1426.40869     589.3693     360.8370
   1426.39343     592.3858     362.3265   1426.39343     592.3858     362.3265
   1426.37817     595.5014     364.2953   1426.37817     595.5014     364.2953
   1426.36292     598.2383     365.7622   1426.36292     598.2383     365.7622
   1426.34766     601.0136     367.4640   1426.34766     601.0136     367.4640
   1426.33240     603.9630     369.4455   1426.33240     603.9630     369.4455
   1426.31714     607.0157     370.5307   1426.31714     607.0157     370.5307
   1426.30188     608.8391     372.3557   1426.30188     608.8391     372.3557
   1426.28662     612.2955     374.2003   1426.28662     612.2955     374.2003
   1426.27136     615.9327     376.2318   1426.27136     615.9327     376.2318
   1426.25610     617.7875     377.8457   1426.25610     617.7875     377.8457
   1426.24084     620.9453     378.5839   1426.24084     620.9453     378.5839
   1426.22559     623.0327     380.6546   1426.22559     623.0327     380.6546
   1426.21033     626.3091     382.2718   1426.21033     626.3091     382.2718
   1426.19507     629.1536     384.1371   1426.19507     629.1536     384.1371
   1426.17981     631.0683     385.3302   1426.17981     631.0683     385.3302
   1426.16455     634.4816     387.4077   1426.16455     634.4816     387.4077
   1426.14929     637.0995     388.6470   1426.14929     637.0995     388.6470
   1426.13403     638.6484     389.5887   1426.13403     638.6484     389.5887
   1426.11877     642.8890     391.9478   1426.11877     642.8890     391.9478
   1426.10352     644.2908     393.0420   1426.10352     644.2908     393.0420
   1426.08826     647.1237     394.9597   1426.08826     647.1237     394.9597
   1426.07300     650.0097     395.6077   1426.07300     650.0097     395.6077
   1426.05774     652.2836     397.4585   1426.05774     652.2836     397.4585
   1426.04248     653.8629     398.3135   1426.04248     653.8629     398.3135
   1426.02722     656.7694     399.8075   1426.02722     656.7694     399.8075
   1426.01196     658.3924     400.9880   1426.01196     658.3924     400.9880
   1425.99670     661.3881     403.0072   1425.99670     661.3881     403.0072
   1425.98145     663.1433     404.3609   1425.98145     663.1433     404.3609
   1425.96619     666.0303     405.2195   1425.96619     666.0303     405.2195
   1425.95093     666.6732     406.3527   1425.95093     666.6732     406.3527
   1425.93567     669.8132     408.6983   1425.93567     669.8132     408.6983
   1425.92041     671.7311     410.1611   1425.92041     671.7311     410.1611
   1425.90515     674.5344     410.9156   1425.90515     674.5344     410.9156
   1425.88989     676.9864     412.5811   1425.88989     676.9864     412.5811
   1425.87463     677.3746     413.4019   1425.87463     677.3746     413.4019
   1425.85938     680.2983     415.6701   1425.85938     680.2983     415.6701
   1425.84412     682.9941     415.7531   1425.84412     682.9941     415.7531
   1425.82886     684.0621     417.0967   1425.82886     684.0621     417.0967
   1425.81360     686.4993     419.3967   1425.81360     686.4993     419.3967
   1425.79834     689.2299     420.5417   1425.79834     689.2299     420.5417
   1425.78308     690.4401     421.3503   1425.78308     690.4401     421.3503
   1425.76782     693.4065     422.5746   1425.76782     693.4065     422.5746
   1425.75256     694.2905     424.1289   1425.75256     694.2905     424.1289
   1425.73730     695.0607     425.1222   1425.73730     695.0607     425.1222
   1425.72205     697.6442     426.0493   1425.72205     697.6442     426.0493
   1425.70679     698.6578     427.5137   1425.70679     698.6578     427.5137
   1425.69153     701.0050     429.3238   1425.69153     701.0050     429.3238
   1425.67627     701.2447     430.4814   1425.67627     701.2447     430.4814
   1425.66101     703.3658     431.3151   1425.66101     703.3658     431.3151
   1425.64575     706.1804     431.9194   1425.64575     706.1804     431.9194
   1425.63049     706.5701     433.2203   1425.63049     706.5701     433.2203
   1425.61523     708.7171     433.8456   1425.61523     708.7171     433.8456
   1425.59998     709.6253     435.7023   1425.59998     709.6253     435.7023
   1425.58472     712.1054     436.4024   1425.58472     712.1054     436.4024
   1425.56946     712.8895     438.0410   1425.56946     712.8895     438.0410
   1425.55420     715.1728     438.2552   1425.55420     715.1728     438.2552
   1425.53894     715.6689     439.7977   1425.53894     715.6689     439.7977
   1425.52368     717.7214     440.7095   1425.52368     717.7214     440.7095
   1425.50842     718.7292     442.4809   1425.50842     718.7292     442.4809
   1425.49316     720.1039     442.4443   1425.49316     720.1039     442.4443
   1425.47791     720.4974     443.4260   1425.47791     720.4974     443.4260
   1425.46265     721.3473     444.5865   1425.46265     721.3473     444.5865
   1425.44739     723.0338     445.5106   1425.44739     723.0338     445.5106
   1425.43213     725.0472     445.2533   1425.43213     725.0472     445.2533
   1425.41687     726.3207     449.5928   1425.41687     726.3207     449.5928
   1425.40161     726.6025     447.6379   1425.40161     726.6025     447.6379
   1425.38635     727.8793     448.9117   1425.38635     727.8793     448.9117
   1425.37109     729.3478     450.7308   1425.37109     729.3478     450.7308
   1425.35583     729.6622     450.8647   1425.35583     729.6622     450.8647
   1425.34058     731.1273     452.7129   1425.34058     731.1273     452.7129
   1425.32532     730.8530     453.0462   1425.32532     730.8530     453.0462
   1425.31006     732.4550     454.5146   1425.31006     732.4550     454.5146
   1425.29480     732.7025     454.5714   1425.29480     732.7025     454.5714
   1425.27954     733.6727     456.2867   1425.27954     733.6727     456.2867
   1425.26428     734.6749     456.2386   1425.26428     734.6749     456.2386
   1425.24902     736.1823     457.1313   1425.24902     736.1823     457.1313
   1425.23376     736.9612     458.4308   1425.23376     736.9612     458.4308
   1425.21851     737.8613     459.5882   1425.21851     737.8613     459.5882
   1425.20325     737.5638     460.3770   1425.20325     737.5638     460.3770
   1425.18799     739.3104     461.0012   1425.18799     739.3104     461.0012
   1425.17273     739.5123     461.7791   1425.17273     739.5123     461.7791
   1425.15747     740.7348     462.0858   1425.15747     740.7348     462.0858
   1425.14221     741.0966     462.4891   1425.14221     741.0966     462.4891
   1425.12695     740.6595     464.2793   1425.12695     740.6595     464.2793
   1425.11169     741.5105     464.9883   1425.11169     741.5105     464.9883
   1425.09644     741.7531     465.0778   1425.09644     741.7531     465.0778
   1425.08118     742.6335     465.6365   1425.08118     742.6335     465.6365
   1425.06592     744.0096     467.0956   1425.06592     744.0096     467.0956
   1425.05066     744.1893     468.6436   1425.05066     744.1893     468.6436
   1425.03540     745.1495     468.3939   1425.03540     745.1495     468.3939
   1425.02014     745.4346     469.1045   1425.02014     745.4346     469.1045
   1425.00488     744.3499     469.6554   1425.00488     744.3499     469.6554
   1424.98962     745.2969     471.2366   1424.98962     745.2969     471.2366
   1424.97437     746.0818     471.6713   1424.97437     746.0818     471.6713
   1424.95911     746.2872     472.2471   1424.95911     746.2872     472.2471
   1424.94385     746.6529     473.1616   1424.94385     746.6529     473.1616
   1424.92859     746.6682     473.2816   1424.92859     746.6682     473.2816
   1424.91333     746.6272     474.4097   1424.91333     746.6272     474.4097
   1424.89807     747.4006     474.9474   1424.89807     747.4006     474.9474
   1424.88281     748.0094     475.0770   1424.88281     748.0094     475.0770
   1424.86755     748.2288     475.8210   1424.86755     748.2288     475.8210
   1424.85229     747.7962     476.6401   1424.85229     747.7962     476.6401
   1424.83704     748.4118     477.6381   1424.83704     748.4118     477.6381
   1424.82178     748.5979     477.2840   1424.82178     748.5979     477.2840
   1424.80652     748.1523     478.6700   1424.80652     748.1523     478.6700
   1424.79126     749.0034     479.1032   1424.79126     749.0034     479.1032
   1424.77600     747.7993     479.5023   1424.77600     747.7993     479.5023
   1424.76074     748.6838     480.6344   1424.76074     748.6838     480.6344
   1424.74548     748.4013     481.1254   1424.74548     748.4013     481.1254
   1424.73022     748.3567     481.6090   1424.73022     748.3567     481.6090
   1424.71497     748.3347     482.0335   1424.71497     748.3347     482.0335
   1424.69971     748.7471     482.7337   1424.69971     748.7471     482.7337
   1424.68445     749.4533     483.5646   1424.68445     749.4533     483.5646
   1424.66919     748.4252     483.7077   1424.66919     748.4252     483.7077
   1424.65393     749.3380     484.0297   1424.65393     749.3380     484.0297
   1424.63867     748.4768     484.8615   1424.63867     748.4768     484.8615
   1424.62341     749.9600     485.6809   1424.62341     749.9600     485.6809
   1424.60815     748.5389     485.2415   1424.60815     748.5389     485.2415
   1424.59290     750.9397     486.9915   1424.59290     750.9397     486.9915
   1424.57764     747.6305     487.0746   1424.57764     747.6305     487.0746
   1424.56238     749.2241     486.3014   1424.56238     749.2241     486.3014
   1424.54712     749.3900     488.0692   1424.54712     749.3900     488.0692
   1424.53186     748.6246     488.6302   1424.53186     748.6246     488.6302
   1424.51660     748.2580     488.8377   1424.51660     748.2580     488.8377
   1424.50134     747.3400     489.4517   1424.50134     747.3400     489.4517
   1424.48608     748.2517     491.0005   1424.48608     748.2517     491.0005
   1424.47083     747.7437     490.5024   1424.47083     747.7437     490.5024
   1424.45557     748.4495     491.0281   1424.45557     748.4495     491.0281
   1424.44031     749.2259     491.1580   1424.44031     749.2259     491.1580
   1424.42505     747.3784     491.7934   1424.42505     747.3784     491.7934
   1424.40979     747.8267     492.9466   1424.40979     747.8267     492.9466
   1424.39453     746.6211     492.9584   1424.39453     746.6211     492.9584
   1424.37927     747.3366     493.8738   1424.37927     747.3366     493.8738
   1424.36401     746.9753     493.4825   1424.36401     746.9753     493.4825
   1424.34875     747.2856     494.0436   1424.34875     747.2856     494.0436
   1424.33350     746.0831     494.9786   1424.33350     746.0831     494.9786
   1424.31824     746.5325     495.8022   1424.31824     746.5325     495.8022
   1424.30298     746.0002     495.1571   1424.30298     746.0002     495.1571
   1424.28772     745.0650     495.6857   1424.28772     745.0650     495.6857
   1424.27246     746.0907     496.6443   1424.27246     746.0907     496.6443
   1424.25720     745.2510     497.3079   1424.25720     745.2510     497.3079
   1424.24194     744.8983     497.9453   1424.24194     744.8983     497.9453
   1424.22668     744.0886     498.7942   1424.22668     744.0886     498.7942
   1424.21143     745.1716     497.8305   1424.21143     745.1716     497.8305
   1424.19617     744.2774     497.9260   1424.19617     744.2774     497.9260
   1424.18091     744.5400     499.4466   1424.18091     744.5400     499.4466
   1424.16565     744.7109     499.5516   1424.16565     744.7109     499.5516
   1424.15039     743.0043     500.3211   1424.15039     743.0043     500.3211
   1424.13513     744.6343     500.7210   1424.13513     744.6343     500.7210
   1424.11987     742.8737     500.5605   1424.11987     742.8737     500.5605
   1424.10461     744.4042     500.1171   1424.10461     744.4042     500.1171
   1424.08936     743.7095     501.7953   1424.08936     743.7095     501.7953
   1424.07410     743.2665     501.4644   1424.07410     743.2665     501.4644
   1424.05884     742.6937     501.8701   1424.05884     742.6937     501.8701
   1424.04358     741.1254     502.7629   1424.04358     741.1254     502.7629
   1424.02832     741.7965     503.4539   1424.02832     741.7965     503.4539
   1424.01306     740.8068     501.9411   1424.01306     740.8068     501.9411
   1423.99780     740.4703     503.2295   1423.99780     740.4703     503.2295
   1423.98254     741.6039     503.2894   1423.98254     741.6039     503.2894
   1423.96729     740.7093     503.7171   1423.96729     740.7093     503.7171
   1423.95203     739.0562     503.5647   1423.95203     739.0562     503.5647
   1423.93677     739.7527     504.3280   1423.93677     739.7527     504.3280
   1423.92151     739.4841     504.3661   1423.92151     739.4841     504.3661
   1423.90625     739.2361     505.4493   1423.90625     739.2361     505.4493
   1423.89099     739.9120     505.2324   1423.89099     739.9120     505.2324
   1423.87573     738.9495     505.3953   1423.87573     738.9495     505.3953
   1423.86047     738.8641     505.6086   1423.86047     738.8641     505.6086
   1423.84521     739.1309     506.1404   1423.84521     739.1309     506.1404
   1423.82996     738.0479     506.3744   1423.82996     738.0479     506.3744
   1423.81470     739.1724     506.4317   1423.81470     739.1724     506.4317
   1423.79944     738.0019     506.9416   1423.79944     738.0019     506.9416
   1423.78418     736.9825     507.0985   1423.78418     736.9825     507.0985
   1423.76892     736.6254     506.6631   1423.76892     736.6254     506.6631
   1423.75366     736.9879     507.6752   1423.75366     736.9879     507.6752
   1423.73840     737.2478     507.8487   1423.73840     737.2478     507.8487
   1423.72314     736.0430     507.5477   1423.72314     736.0430     507.5477
   1423.70789     734.8472     507.9430   1423.70789     734.8472     507.9430
   1423.69263     736.0140     507.2544   1423.69263     736.0140     507.2544
   1423.67737     735.2792     508.3530   1423.67737     735.2792     508.3530
   1423.66211     736.1259     508.4613   1423.66211     736.1259     508.4613
   1423.64685     734.2947     509.0869   1423.64685     734.2947     509.0869
   1423.63159     735.3715     509.2535   1423.63159     735.3715     509.2535
   1423.61633     734.9392     508.6591   1423.61633     734.9392     508.6591
   1423.60107     734.5173     510.2043   1423.60107     734.5173     510.2043
   1423.58582     733.9657     509.3732   1423.58582     733.9657     509.3732
   1423.57056     733.6273     509.4450   1423.57056     733.6273     509.4450
   1423.55530     732.4598     509.1713   1423.55530     732.4598     509.1713
   1423.54004     731.8477     509.7638   1423.54004     731.8477     509.7638
   1423.52478     733.1162     510.4704   1423.52478     733.1162     510.4704
   1423.50952     731.8002     509.7285   1423.50952     731.8002     509.7285
   1423.49426     732.0667     510.2272   1423.49426     732.0667     510.2272
   1423.47900     732.2042     508.9091   1423.47900     732.2042     508.9091
   1423.46375     730.9143     509.7826   1423.46375     730.9143     509.7826
   1423.44849     730.7031     510.1634   1423.44849     730.7031     510.1634
   1423.43323     731.6789     510.2917   1423.43323     731.6789     510.2917
   1423.41797     730.2137     510.9386   1423.41797     730.2137     510.9386
   1423.40271     731.1182     510.1021   1423.40271     731.1182     510.1021
   1423.38745     730.2678     510.1530   1423.38745     730.2678     510.1530
   1423.37219     730.4386     511.2979   1423.37219     730.4386     511.2979
   1423.35693     728.9022     510.3948   1423.35693     728.9022     510.3948
   1423.34167     729.6141     510.3503   1423.34167     729.6141     510.3503
   1423.32642     728.9912     509.6059   1423.32642     728.9912     509.6059
   1423.31116     728.8991     509.6525   1423.31116     728.8991     509.6525
   1423.29590     729.5611     510.5946   1423.29590     729.5611     510.5946
   1423.28064     728.9476     509.4706   1423.28064     728.9476     509.4706
   1423.26538     728.6425     510.1560   1423.26538     728.6425     510.1560
   1423.25012     728.9615     510.0129   1423.25012     728.9615     510.0129
   1423.23486     726.6521     509.3430   1423.23486     726.6521     509.3430
   1423.21960     727.7723     510.2701   1423.21960     727.7723     510.2701
   1423.20435     726.5810     509.2880   1423.20435     726.5810     509.2880
   1423.18909     726.8306     508.9109   1423.18909     726.8306     508.9109
   1423.17383     727.8497     509.1419   1423.17383     727.8497     509.1419
   1423.15857     727.1487     508.7776   1423.15857     727.1487     508.7776
   1423.14331     727.4666     509.2122   1423.14331     727.4666     509.2122
   1423.12805     725.6890     509.2171   1423.12805     725.6890     509.2171
   1423.11279     726.4694     508.6105   1423.11279     726.4694     508.6105
   1423.09753     727.2576     508.5516   1423.09753     727.2576     508.5516
   1423.08228     725.4009     507.7756   1423.08228     725.4009     507.7756
   1423.06702     725.9460     507.9511   1423.06702     725.9460     507.9511
   1423.05176     725.5685     507.4508   1423.05176     725.5685     507.4508
   1423.03650     723.8466     507.2673   1423.03650     723.8466     507.2673
   1423.02124     725.7725     505.9587   1423.02124     725.7725     505.9587
   1423.00598     724.7861     506.8076   1423.00598     724.7861     506.8076
   1422.99072     724.0178     505.3860   1422.99072     724.0178     505.3860
   1422.97546     723.8790     506.1451   1422.97546     723.8790     506.1451
   1422.96021     724.2374     505.3622   1422.96021     724.2374     505.3622
   1422.94495     724.0561     505.3665   1422.94495     724.0561     505.3665
   1422.92969     723.5729     504.8694   1422.92969     723.5729     504.8694
   1422.91443     723.0279     504.6582   1422.91443     723.0279     504.6582
   1422.89917     723.7695     504.2699   1422.89917     723.7695     504.2699
   1422.88391     724.3952     504.0702   1422.88391     724.3952     504.0702
   1422.86865     723.9134     504.0402   1422.86865     723.9134     504.0402
   1422.85339     721.9183     503.6516   1422.85339     721.9183     503.6516
   1422.83813     721.6938     502.6933   1422.83813     721.6938     502.6933
   1422.82288     723.1078     502.2811   1422.82288     723.1078     502.2811
   1422.80762     721.7401     501.5755   1422.80762     721.7401     501.5755
   1422.79236     721.5727     501.3652   1422.79236     721.5727     501.3652
   1422.77710     722.0528     500.7631   1422.77710     722.0528     500.7631
   1422.76184     721.5204     500.4107   1422.76184     721.5204     500.4107
   1422.74658     721.6012     499.9918   1422.74658     721.6012     499.9918
   1422.73132     721.5173     498.8518   1422.73132     721.5173     498.8518
   1422.71606     721.5045     498.9174   1422.71606     721.5045     498.9174
   1422.70081     721.1240     497.8839   1422.70081     721.1240     497.8839
   1422.68555     720.9757     497.3302   1422.68555     720.9757     497.3302
   1422.67029     721.5788     496.4632   1422.67029     721.5788     496.4632
   1422.65503     720.1432     496.7632   1422.65503     720.1432     496.7632
   1422.63977     721.1229     495.4719   1422.63977     721.1229     495.4719
   1422.62451     719.5121     495.4533   1422.62451     719.5121     495.4533
   1422.60925     720.2695     494.6737   1422.60925     720.2695     494.6737
   1422.59399     720.6595     494.7555   1422.59399     720.6595     494.7555
   1422.57874     719.2132     492.4382   1422.57874     719.2132     492.4382
   1422.56348     720.1752     492.6948   1422.56348     720.1752     492.6948
   1422.54822     719.0418     492.4248   1422.54822     719.0418     492.4248
   1422.53296     719.4028     491.9402   1422.53296     719.4028     491.9402
   1422.51770     718.5107     490.9883   1422.51770     718.5107     490.9883
   1422.50244     719.3564     489.5316   1422.50244     719.3564     489.5316
   1422.48718     718.7914     489.3030   1422.48718     718.7914     489.3030
   1422.47192     717.9056     488.3740   1422.47192     717.9056     488.3740
   1422.45667     718.2540     488.3563   1422.45667     718.2540     488.3563
   1422.44141     718.0908     486.7132   1422.44141     718.0908     486.7132
   1422.42615     716.9217     486.5516   1422.42615     716.9217     486.5516
   1422.41089     717.5078     486.3001   1422.41089     717.5078     486.3001
   1422.39563     716.8013     485.3475   1422.39563     716.8013     485.3475
   1422.38037     719.1578     484.2208   1422.38037     719.1578     484.2208
   1422.36511     716.0310     483.7241   1422.36511     716.0310     483.7241
   1422.34985     716.4843     482.6412   1422.34985     716.4843     482.6412
   1422.33459     716.6088     482.0514   1422.33459     716.6088     482.0514
   1422.31934     716.3906     480.7750   1422.31934     716.3906     480.7750
   1422.30408     716.9045     480.3625   1422.30408     716.9045     480.3625
   1422.28882     716.8677     479.6154   1422.28882     716.8677     479.6154
   1422.27356     715.1855     478.1667   1422.27356     715.1855     478.1667
   1422.25830     716.7101     477.5618   1422.25830     716.7101     477.5618
   1422.24304     716.8205     477.1703   1422.24304     716.8205     477.1703
   1422.22778     716.9425     476.3212   1422.22778     716.9425     476.3212
   1422.21252     716.1097     475.6793   1422.21252     716.1097     475.6793
   1422.19727     714.9043     474.1897   1422.19727     714.9043     474.1897
   1422.18201     715.3342     473.8863   1422.18201     715.3342     473.8863
   1422.16675     715.0874     472.4151   1422.16675     715.0874     472.4151
   1422.15149     714.7737     471.9398   1422.15149     714.7737     471.9398
   1422.13623     714.7720     470.8188   1422.13623     714.7720     470.8188
   1422.12097     715.4358     468.9470   1422.12097     715.4358     468.9470
   1422.10571     714.1634     468.2954   1422.10571     714.1634     468.2954
   1422.09045     714.9579     468.5978   1422.09045     714.9579     468.5978
   1422.07520     714.5480     467.4568   1422.07520     714.5480     467.4568
   1422.05994     713.3434     464.9154   1422.05994     713.3434     464.9154
   1422.04468     713.7825     465.7366   1422.04468     713.7825     465.7366
   1422.02942     714.1292     464.8018   1422.02942     714.1292     464.8018
   1422.01416     713.3107     463.4545   1422.01416     713.3107     463.4545
   1421.99890     712.7905     463.5996   1421.99890     712.7905     463.5996
   1421.98364     712.7605     461.1425   1421.98364     712.7605     461.1425
   1421.96838     713.0069     459.6852   1421.96838     713.0069     459.6852
   1421.95312     713.0134     459.2719   1421.95312     713.0134     459.2719
   1421.93787     712.2017     458.7716   1421.93787     712.2017     458.7716
   1421.92261     712.1592     457.1587   1421.92261     712.1592     457.1587
   1421.90735     710.8811     456.2531   1421.90735     710.8811     456.2531
   1421.89209     711.7495     455.8376   1421.89209     711.7495     455.8376
   1421.87683     710.8228     454.2662   1421.87683     710.8228     454.2662
   1421.86157     711.2739     453.0016   1421.86157     711.2739     453.0016
   1421.84631     710.5771     451.7984   1421.84631     710.5771     451.7984
   1421.83105     710.5772     451.7824   1421.83105     710.5772     451.7824
   1421.81580     710.4908     450.4120   1421.81580     710.4908     450.4120
   1421.80054     709.9493     449.2151   1421.80054     709.9493     449.2151
   1421.78528     710.3660     448.6062   1421.78528     710.3660     448.6062
   1421.77002     709.9255     447.6714   1421.77002     709.9255     447.6714
   1421.75476     708.3450     445.4438   1421.75476     708.3450     445.4438
   1421.73950     709.9131     443.9720   1421.73950     709.9131     443.9720
   1421.72424     709.4493     444.2667   1421.72424     709.4493     444.2667
   1421.70898     709.2076     442.6696   1421.70898     709.2076     442.6696
   1421.69373     709.1127     441.8113   1421.69373     709.1127     441.8113
   1421.67847     708.7108     440.3793   1421.67847     708.7108     440.3793
   1421.66321     707.4732     439.8714   1421.66321     707.4732     439.8714
   1421.64795     707.9761     437.6736   1421.64795     707.9761     437.6736
   1421.63269     708.2900     437.4823   1421.63269     708.2900     437.4823
   1421.61743     707.4756     436.2973   1421.61743     707.4756     436.2973
   1421.60217     707.5751     434.7079   1421.60217     707.5751     434.7079
   1421.58691     707.8796     434.0151   1421.58691     707.8796     434.0151
   1421.57166     707.7154     433.1317   1421.57166     707.7154     433.1317
   1421.55640     706.3444     432.0299   1421.55640     706.3444     432.0299
   1421.54114     705.6521     430.8367   1421.54114     705.6521     430.8367
   1421.52588     705.7997     429.8209   1421.52588     705.7997     429.8209
   1421.51062     705.6672     428.9336   1421.51062     705.6672     428.9336
   1421.49536     705.3990     427.7181   1421.49536     705.3990     427.7181
   1421.48010     705.7786     426.8293   1421.48010     705.7786     426.8293
   1421.46484     706.1205     425.6373   1421.46484     706.1205     425.6373
   1421.44958     705.7086     424.8877   1421.44958     705.7086     424.8877
   1421.43433     704.5470     423.4632   1421.43433     704.5470     423.4632
   1421.41907     705.1277     422.3782   1421.41907     705.1277     422.3782
   1421.40381     704.0016     421.3327   1421.40381     704.0016     421.3327
   1421.38855     705.2241     420.3806   1421.38855     705.2241     420.3806
   1421.37329     703.8680     419.1028   1421.37329     703.8680     419.1028
   1421.35803     704.2662     418.0046   1421.35803     704.2662     418.0046
   1421.34277     703.1712     417.1991   1421.34277     703.1712     417.1991
   1421.32751     703.8396     415.9183   1421.32751     703.8396     415.9183
   1421.31226     703.5598     415.6287   1421.31226     703.5598     415.6287
   1421.29700     703.9550     414.3098   1421.29700     703.9550     414.3098
   1421.28174     704.2827     413.4828   1421.28174     704.2827     413.4828
   1421.26648     703.1180     412.7270   1421.26648     703.1180     412.7270
   1421.25122     705.0480     411.9849   1421.25122     705.0480     411.9849
   1421.23596     703.5114     410.9386   1421.23596     703.5114     410.9386
   1421.22070     704.2500     410.6964   1421.22070     704.2500     410.6964
   1421.20544     705.0438     409.8657   1421.20544     705.0438     409.8657
   1421.19019     704.4606     408.0045   1421.19019     704.4606     408.0045
   1421.17493     705.9120     406.7241   1421.17493     705.9120     406.7241
   1421.15967     706.3942     407.6130   1421.15967     706.3942     407.6130
   1421.14441     709.1982     407.0626   1421.14441     709.1982     407.0626
   1421.12915     714.1044     408.9327   1421.12915     714.1044     408.9327
   1421.11389     718.6477     411.4870   1421.11389     718.6477     411.4870
   1421.09863     730.1032     416.6905   1421.09863     730.1032     416.6905
   1421.08337     746.2643     424.6571   1421.08337     746.2643     424.6571
   1421.06812     767.9000     435.0012   1421.06812     767.9000     435.0012
   1421.05286     793.9554     448.3769   1421.05286     793.9554     448.3769
   1421.03760     816.6896     460.8506   1421.03760     816.6896     460.8506
   1421.02234     837.0986     471.6044   1421.02234     837.0986     471.6044
   1421.00708     850.1852     477.4253   1421.00708     850.1852     477.4253
   1420.99182     854.0286     479.2339   1420.99182     854.0286     479.2339
   1420.97656     863.1830     483.0441   1420.97656     863.1830     483.0441
   1420.96130     861.6639     481.0396   1420.96130     861.6639     481.0396
   1420.94604     841.9527     469.1637   1420.94604     841.9527     469.1637
   1420.93079     814.5060     453.7998   1420.93079     814.5060     453.7998
   1420.91553     796.4330     442.5667   1420.91553     796.4330     442.5667
   1420.90027     799.8108     442.9416   1420.90027     799.8108     442.9416
   1420.88501     830.1501     457.8314   1420.88501     830.1501     457.8314
   1420.86975     897.1401     493.4203   1420.86975     897.1401     493.4203
   1420.85449    1037.7354     569.7643   1420.85449    1037.7354     569.7643
   1420.83923    1314.3129     713.7837   1420.83923    1314.3129     713.7837
   1420.82397    1673.3021     903.6231   1420.82397    1673.3021     903.6231
   1420.80872    1861.8219     999.4648   1420.80872    1861.8219     999.4648
   1420.79346    1875.3162    1004.3635   1420.79346    1875.3162    1004.3635
   1420.77820    1820.8508     975.4200   1420.77820    1820.8508     975.4200
   1420.76294    1776.5802     948.4716   1420.76294    1776.5802     948.4716
   1420.74768    1688.1587     899.7292   1420.74768    1688.1587     899.7292
   1420.73242    1538.1415     816.8834   1420.73242    1538.1415     816.8834
   1420.71716    1608.1316     850.7767   1420.71716    1608.1316     850.7767
   1420.70190    1747.6616     923.7405   1420.70190    1747.6616     923.7405
   1420.68665    1749.1708     922.9001   1420.68665    1749.1708     922.9001
   1420.67139    1690.4777     891.0103   1420.67139    1690.4777     891.0103
   1420.65613    1377.3944     728.7772   1420.65613    1377.3944     728.7772
   1420.64087    1360.5338     718.3901   1420.64087    1360.5338     718.3901
   1420.62561    1549.7203     813.2773   1420.62561    1549.7203     813.2773
   1420.61035    1658.7024     866.5576   1420.61035    1658.7024     866.5576
   1420.59509    1413.7394     739.7072   1420.59509    1413.7394     739.7072
   1420.57983    1288.4600     675.0947   1420.57983    1288.4600     675.0947
   1420.56458    1512.9030     786.8954   1420.56458    1512.9030     786.8954
   1420.54932    1764.6592     914.9494   1420.54932    1764.6592     914.9494
   1420.53406    1868.6118     969.3253   1420.53406    1868.6118     969.3253
   1420.51880    1902.5769     983.9899   1420.51880    1902.5769     983.9899
   1420.50354    1729.3026     893.8668   1420.50354    1729.3026     893.8668
   1420.48828    1244.8895     645.2845   1420.48828    1244.8895     645.2845
   1420.47302     947.1655     492.6584   1420.47302     947.1655     492.6584
   1420.45776     854.4679     444.0446   1420.45776     854.4679     444.0446
   1420.44250     809.6865     420.6862   1420.44250     809.6865     420.6862
   1420.42725     764.3522     397.1310   1420.42725     764.3522     397.1310
   1420.41199     731.0626     380.7628   1420.41199     731.0626     380.7628
   1420.39673     715.6281     371.4445   1420.39673     715.6281     371.4445
   1420.38147     707.9487     366.4860   1420.38147     707.9487     366.4860
   1420.36621     704.4706     364.2243   1420.36621     704.4706     364.2243
   1420.35095     701.2474     362.3952   1420.35095     701.2474     362.3952
   1420.33569     700.9437     361.1138   1420.33569     700.9437     361.1138
   1420.32043     698.5247     359.9571   1420.32043     698.5247     359.9571
   1420.30518     696.8210     358.2108   1420.30518     696.8210     358.2108
   1420.28992     697.0267     357.6330   1420.28992     697.0267     357.6330
   1420.27466     695.4384     356.6941   1420.27466     695.4384     356.6941
   1420.25940     695.3692     355.7445   1420.25940     695.3692     355.7445
   1420.24414     696.1362     354.9339   1420.24414     696.1362     354.9339
   1420.22888     694.7638     354.3358   1420.22888     694.7638     354.3358
   1420.21362     694.6107     353.1816   1420.21362     694.6107     353.1816
   1420.19836     694.0449     352.5635   1420.19836     694.0449     352.5635
   1420.18311     693.3248     351.3201   1420.18311     693.3248     351.3201
   1420.16785     690.9868     350.3338   1420.16785     690.9868     350.3338
   1420.15259     690.3458     349.2808   1420.15259     690.3458     349.2808
   1420.13733     689.3568     349.0388   1420.13733     689.3568     349.0388
   1420.12207     690.6122     347.8545   1420.12207     690.6122     347.8545
   1420.10681     689.3246     347.4645   1420.10681     689.3246     347.4645
   1420.09155     689.7562     346.5729   1420.09155     689.7562     346.5729
   1420.07629     689.6287     345.2440   1420.07629     689.6287     345.2440
   1420.06104     689.6938     344.6051   1420.06104     689.6938     344.6051
   1420.04578     688.0048     344.3166   1420.04578     688.0048     344.3166
   1420.03052     686.7377     344.3004   1420.03052     686.7377     344.3004
   1420.01526     688.3048     344.6172   1420.01526     688.3048     344.6172
   1420.00000     689.6192     345.1767   1420.00000     689.6192     345.1767
   1419.98474     690.9337     345.7362   1419.98474     690.9337     345.7362
   1419.96948     690.0421     342.7421   1419.96948     690.0421     342.7421
   1419.95422     687.9040     341.2476   1419.95422     687.9040     341.2476
   1419.93896     688.1067     340.3534   1419.93896     688.1067     340.3534
   1419.92371     687.9433     340.0591   1419.92371     687.9433     340.0591
   1419.90845     687.9735     340.7339   1419.90845     687.9735     340.7339
   1419.89319     687.5038     339.4514   1419.89319     687.5038     339.4514
   1419.87793     688.3146     339.2544   1419.87793     688.3146     339.2544
   1419.86267     687.9578     338.9290   1419.86267     687.9578     338.9290
   1419.84741     687.6288     338.9595   1419.84741     687.6288     338.9595
   1419.83215     689.1288     338.6733   1419.83215     689.1288     338.6733
   1419.81689     688.2036     337.9767   1419.81689     688.2036     337.9767
   1419.80164     688.8994     337.4830   1419.80164     688.8994     337.4830
   1419.78638     688.4602     337.7630   1419.78638     688.4602     337.7630
   1419.77112     688.8928     337.0604   1419.77112     688.8928     337.0604
   1419.75586     690.3854     336.8992   1419.75586     690.3854     336.8992
   1419.74060     690.4376     336.9183   1419.74060     690.4376     336.9183
   1419.72534     690.1325     336.7613   1419.72534     690.1325     336.7613
   1419.71008     690.3203     335.8195   1419.71008     690.3203     335.8195
   1419.69482     691.0947     336.1043   1419.69482     691.0947     336.1043
   1419.67957     691.3515     335.8179   1419.67957     691.3515     335.8179
   1419.66431     690.8622     335.7912   1419.66431     690.8622     335.7912
   1419.64905     692.0793     336.2171   1419.64905     692.0793     336.2171
   1419.63379     691.3452     335.1970   1419.63379     691.3452     335.1970
   1419.61853     691.6656     334.9409   1419.61853     691.6656     334.9409
   1419.60327     691.3928     335.5467   1419.60327     691.3928     335.5467
   1419.58801     692.9604     334.5114   1419.58801     692.9604     334.5114
   1419.57275     692.2555     334.6443   1419.57275     692.2555     334.6443
   1419.55750     694.0970     334.4979   1419.55750     694.0970     334.4979
   1419.54224     692.9489     334.3763   1419.54224     692.9489     334.3763
   1419.52698     693.6903     334.1954   1419.52698     693.6903     334.1954
   1419.51172     694.8375     333.9792   1419.51172     694.8375     333.9792
   1419.49646     694.5354     334.0271   1419.49646     694.5354     334.0271
   1419.48120     695.2168     333.8884   1419.48120     695.2168     333.8884
   1419.46594     695.0318     333.4321   1419.46594     695.0318     333.4321
   1419.45068     696.3350     333.9940   1419.45068     696.3350     333.9940
   1419.43542     696.3046     334.2209   1419.43542     696.3046     334.2209
   1419.42017     695.8815     333.9228   1419.42017     695.8815     333.9228
   1419.40491     696.9382     333.9528   1419.40491     696.9382     333.9528
   1419.38965     697.1155     333.9993   1419.38965     697.1155     333.9993
   1419.37439     697.7720     333.7943   1419.37439     697.7720     333.7943
   1419.35913     698.2245     333.2489   1419.35913     698.2245     333.2489
   1419.34387     699.0709     333.7885   1419.34387     699.0709     333.7885
   1419.32861     699.5657     333.9803   1419.32861     699.5657     333.9803
   1419.31335     699.9581     334.1523   1419.31335     699.9581     334.1523
   1419.29810     700.4953     334.0705   1419.29810     700.4953     334.0705
   1419.28284     701.3731     334.6128   1419.28284     701.3731     334.6128
   1419.26758     701.4358     333.9997   1419.26758     701.4358     333.9997
   1419.25232     700.8887     334.4765   1419.25232     700.8887     334.4765
   1419.23706     702.6365     334.3654   1419.23706     702.6365     334.3654
   1419.22180     702.0084     334.3623   1419.22180     702.0084     334.3623
   1419.20654     703.6758     335.0890   1419.20654     703.6758     335.0890
   1419.19128     703.8516     334.4397   1419.19128     703.8516     334.4397
   1419.17603     702.4059     335.0514   1419.17603     702.4059     335.0514
   1419.16077     705.1573     335.1756   1419.16077     705.1573     335.1756
   1419.14551     704.3068     335.2136   1419.14551     704.3068     335.2136
   1419.13025     705.2912     335.0497   1419.13025     705.2912     335.0497
   1419.11499     705.2091     335.6639   1419.11499     705.2091     335.6639
   1419.09973     707.2668     335.6607   1419.09973     707.2668     335.6607
   1419.08447     707.3922     335.7012   1419.08447     707.3922     335.7012
   1419.06921     706.9292     336.3731   1419.06921     706.9292     336.3731
   1419.05396     707.8837     336.3652   1419.05396     707.8837     336.3652
   1419.03870     708.8242     336.8134   1419.03870     708.8242     336.8134
   1419.02344     709.4999     336.5543   1419.02344     709.4999     336.5543
   1419.00818     709.6445     337.2411   1419.00818     709.6445     337.2411
   1418.99292     710.7661     336.9370   1418.99292     710.7661     336.9370
   1418.97766     711.0412     337.5420   1418.97766     711.0412     337.5420
   1418.96240     711.9080     337.5505   1418.96240     711.9080     337.5505
   1418.94714     713.3079     337.5358   1418.94714     713.3079     337.5358
   1418.93188     712.5361     338.4349   1418.93188     712.5361     338.4349
   1418.91663     713.0002     338.3723   1418.91663     713.0002     338.3723
   1418.90137     715.1475     338.6463   1418.90137     715.1475     338.6463
   1418.88611     714.4070     339.3642   1418.88611     714.4070     339.3642
   1418.87085     715.2931     339.7823   1418.87085     715.2931     339.7823
   1418.85559     715.2936     340.3962   1418.85559     715.2936     340.3962
   1418.84033     716.3006     340.4605   1418.84033     716.3006     340.4605
   1418.82507     716.0920     339.9548   1418.82507     716.0920     339.9548
   1418.80981     716.4547     341.0350   1418.80981     716.4547     341.0350
   1418.79456     719.5837     341.4009   1418.79456     719.5837     341.4009
   1418.77930     719.7956     341.5008   1418.77930     719.7956     341.5008
   1418.76404     719.6350     341.9817   1418.76404     719.6350     341.9817
   1418.74878     720.7441     342.0350   1418.74878     720.7441     342.0350
   1418.73352     722.0626     342.5372   1418.73352     722.0626     342.5372
   1418.71826     722.8533     342.7427   1418.71826     722.8533     342.7427
   1418.70300     722.0681     343.6294   1418.70300     722.0681     343.6294
   1418.68774     722.7624     343.7917   1418.68774     722.7624     343.7917
   1418.67249     724.7521     344.3442   1418.67249     724.7521     344.3442
   1418.65723     724.6660     345.3839   1418.65723     724.6660     345.3839
   1418.64197     726.7825     345.4379   1418.64197     726.7825     345.4379
   1418.62671     725.3022     345.7274   1418.62671     725.3022     345.7274
   1418.61145     727.2079     346.7459   1418.61145     727.2079     346.7459
   1418.59619     728.0382     346.2484   1418.59619     728.0382     346.2484
   1418.58093     727.7877     346.9660   1418.58093     727.7877     346.9660
   1418.56567     728.9130     347.3741   1418.56567     728.9130     347.3741
   1418.55042     730.3809     347.6840   1418.55042     730.3809     347.6840
   1418.53516     731.4288     348.7109   1418.53516     731.4288     348.7109
   1418.51990     732.4510     349.3354   1418.51990     732.4510     349.3354
   1418.50464     733.0565     349.5321   1418.50464     733.0565     349.5321
   1418.48938     733.9647     349.9429   1418.48938     733.9647     349.9429
   1418.47412     733.3636     350.8444   1418.47412     733.3636     350.8444
   1418.45886     734.8471     351.0666   1418.45886     734.8471     351.0666
   1418.44360     736.2753     352.2819   1418.44360     736.2753     352.2819
   1418.42834     737.2571     352.8827   1418.42834     737.2571     352.8827
   1418.41309     738.4770     352.0371   1418.41309     738.4770     352.0371
   1418.39783     738.7085     353.9916   1418.39783     738.7085     353.9916
   1418.38257     738.0115     353.8732   1418.38257     738.0115     353.8732
   1418.36731     739.3411     354.8265   1418.36731     739.3411     354.8265
   1418.35205     741.4383     355.8121   1418.35205     741.4383     355.8121
   1418.33679     742.0101     355.9192   1418.33679     742.0101     355.9192
   1418.32153     743.0621     356.2555   1418.32153     743.0621     356.2555
   1418.30627     743.4283     357.1501   1418.30627     743.4283     357.1501
   1418.29102     743.7933     357.1979   1418.29102     743.7933     357.1979
   1418.27576     746.2074     358.2220   1418.27576     746.2074     358.2220
   1418.26050     747.3018     359.4221   1418.26050     747.3018     359.4221
   1418.24524     747.0928     359.1284   1418.24524     747.0928     359.1284
   1418.22998     749.0839     360.2530   1418.22998     749.0839     360.2530
   1418.21472     749.2220     360.4922   1418.21472     749.2220     360.4922
   1418.19946     750.4360     361.0568   1418.19946     750.4360     361.0568
   1418.18420     750.5921     361.8168   1418.18420     750.5921     361.8168
   1418.16895     751.9515     362.5276   1418.16895     751.9515     362.5276
   1418.15369     752.7507     362.3837   1418.15369     752.7507     362.3837
   1418.13843     753.2868     363.3854   1418.13843     753.2868     363.3854
   1418.12317     754.2905     364.2247   1418.12317     754.2905     364.2247
   1418.10791     754.6465     365.1385   1418.10791     754.6465     365.1385
   1418.09265     756.1552     365.6942   1418.09265     756.1552     365.6942
   1418.07739     757.2038     366.0869   1418.07739     757.2038     366.0869
   1418.06213     758.3878     367.4383   1418.06213     758.3878     367.4383
   1418.04688     759.2157     367.7990   1418.04688     759.2157     367.7990
   1418.03162     761.0586     369.0707   1418.03162     761.0586     369.0707
   1418.01636     761.1025     369.3232   1418.01636     761.1025     369.3232
   1418.00110     762.1819     369.8832   1418.00110     762.1819     369.8832
   1417.98584     764.5341     370.9700   1417.98584     764.5341     370.9700
   1417.97058     763.9731     370.6945   1417.97058     763.9731     370.6945
   1417.95532     765.1587     371.8963   1417.95532     765.1587     371.8963
   1417.94006     765.3717     372.7610   1417.94006     765.3717     372.7610
   1417.92480     766.5296     373.2851   1417.92480     766.5296     373.2851
   1417.90955     768.9601     374.2078   1417.90955     768.9601     374.2078
   1417.89429     769.0970     375.4478   1417.89429     769.0970     375.4478
   1417.87903     769.4383     375.5441   1417.87903     769.4383     375.5441
   1417.86377     770.3546     375.6199   1417.86377     770.3546     375.6199
   1417.84851     771.3409     377.2024   1417.84851     771.3409     377.2024
   1417.83325     772.5277     377.7023   1417.83325     772.5277     377.7023
   1417.81799     773.0670     378.5555   1417.81799     773.0670     378.5555
   1417.80273     775.8268     379.1890   1417.80273     775.8268     379.1890
   1417.78748     776.4955     380.0685   1417.78748     776.4955     380.0685
   1417.77222     776.7363     380.3114   1417.77222     776.7363     380.3114
   1417.75696     777.5002     381.0923   1417.75696     777.5002     381.0923
   1417.74170     778.5956     381.9763   1417.74170     778.5956     381.9763
   1417.72644     778.7819     382.4038   1417.72644     778.7819     382.4038
   1417.71118     779.9443     383.1747   1417.71118     779.9443     383.1747
   1417.69592     781.4340     383.7313   1417.69592     781.4340     383.7313
   1417.68066     780.9728     384.5983   1417.68066     780.9728     384.5983
   1417.66541     783.3701     385.6098   1417.66541     783.3701     385.6098
   1417.65015     783.3911     385.9007   1417.65015     783.3911     385.9007
   1417.63489     785.4242     386.9889   1417.63489     785.4242     386.9889
   1417.61963     787.2490     387.2812   1417.61963     787.2490     387.2812
   1417.60437     787.0972     388.8571   1417.60437     787.0972     388.8571
   1417.58911     788.1347     389.0465   1417.58911     788.1347     389.0465
   1417.57385     788.3494     390.2632   1417.57385     788.3494     390.2632
   1417.55859     790.0502     390.5732   1417.55859     790.0502     390.5732
   1417.54333     791.3834     391.5399   1417.54333     791.3834     391.5399
   1417.52808     792.9145     392.0864   1417.52808     792.9145     392.0864
   1417.51282     792.5902     392.3266   1417.51282     792.5902     392.3266
   1417.49756     793.2990     393.1031   1417.49756     793.2990     393.1031
   1417.48230     795.2975     394.1177   1417.48230     795.2975     394.1177
   1417.46704     796.3573     394.0637   1417.46704     796.3573     394.0637
   1417.45178     796.4728     394.9029   1417.45178     796.4728     394.9029
   1417.43652     797.0539     396.0678   1417.43652     797.0539     396.0678
   1417.42126     797.6613     396.1732   1417.42126     797.6613     396.1732
   1417.40601     797.0971     396.9269   1417.40601     797.0971     396.9269
   1417.39075     799.5682     397.9296   1417.39075     799.5682     397.9296
   1417.37549     800.7172     398.3970   1417.37549     800.7172     398.3970
   1417.36023     801.5041     399.1469   1417.36023     801.5041     399.1469
   1417.34497     803.1208     399.2902   1417.34497     803.1208     399.2902
   1417.32971     803.0549     400.6855   1417.32971     803.0549     400.6855
   1417.31445     804.1127     401.5703   1417.31445     804.1127     401.5703
   1417.29919     805.2140     401.7808   1417.29919     805.2140     401.7808
   1417.28394     805.2996     401.7919   1417.28394     805.2996     401.7919
   1417.26868     805.4575     402.6731   1417.26868     805.4575     402.6731
   1417.25342     806.5744     402.8745   1417.25342     806.5744     402.8745
   1417.23816     807.2206     403.8537   1417.23816     807.2206     403.8537
   1417.22290     809.3653     405.3484   1417.22290     809.3653     405.3484
   1417.20764     809.6516     405.8273   1417.20764     809.6516     405.8273
   1417.19238     810.3787     405.2828   1417.19238     810.3787     405.2828
   1417.17712     809.8388     406.4099   1417.17712     809.8388     406.4099
   1417.16187     811.5048     406.7849   1417.16187     811.5048     406.7849
   1417.14661     812.4755     407.2294   1417.14661     812.4755     407.2294
   1417.13135     812.7921     408.7121   1417.13135     812.7921     408.7121
   1417.11609     813.9998     408.2180   1417.11609     813.9998     408.2180
   1417.10083     815.0259     409.0459   1417.10083     815.0259     409.0459
   1417.08557     814.4678     409.2717   1417.08557     814.4678     409.2717
   1417.07031     815.7241     409.9019   1417.07031     815.7241     409.9019
   1417.05505     816.3958     410.5043   1417.05505     816.3958     410.5043
   1417.03979     816.0906     411.5656   1417.03979     816.0906     411.5656
   1417.02454     816.2872     411.6517   1417.02454     816.2872     411.6517
   1417.00928     817.2374     411.8429   1417.00928     817.2374     411.8429
   1416.99402     818.7437     412.2780   1416.99402     818.7437     412.2780
   1416.97876     817.5329     412.4842   1416.97876     817.5329     412.4842
   1416.96350     818.0637     412.4891   1416.96350     818.0637     412.4891
   1416.94824     819.6378     413.5088   1416.94824     819.6378     413.5088
   1416.93298     821.0554     413.2621   1416.93298     821.0554     413.2621
   1416.91772     820.6588     413.6614   1416.91772     820.6588     413.6614
   1416.90247     820.2365     414.3980   1416.90247     820.2365     414.3980
   1416.88721     820.8878     415.1015   1416.88721     820.8878     415.1015
   1416.87195     821.8643     414.9537   1416.87195     821.8643     414.9537
   1416.85669     822.9274     415.3879   1416.85669     822.9274     415.3879
   1416.84143     822.0392     415.8458   1416.84143     822.0392     415.8458
   1416.82617     822.9169     415.9393   1416.82617     822.9169     415.9393
   1416.81091     824.8518     416.3849   1416.81091     824.8518     416.3849
   1416.79565     823.8066     416.4113   1416.79565     823.8066     416.4113
   1416.78040     823.0405     416.6113   1416.78040     823.0405     416.6113
   1416.76514     824.2143     417.0804   1416.76514     824.2143     417.0804
   1416.74988     824.8507     416.6920   1416.74988     824.8507     416.6920
   1416.73462     823.7487     417.1674   1416.73462     823.7487     417.1674
   1416.71936     825.5429     417.2415   1416.71936     825.5429     417.2415
   1416.70410     824.5488     417.4806   1416.70410     824.5488     417.4806
   1416.68884     824.9766     417.5266   1416.68884     824.9766     417.5266
   1416.67358     826.0693     418.0813   1416.67358     826.0693     418.0813
   1416.65833     825.8861     417.7844   1416.65833     825.8861     417.7844
   1416.64307     825.5313     417.7867   1416.64307     825.5313     417.7867
   1416.62781     824.7263     417.5669   1416.62781     824.7263     417.5669
   1416.61255     826.1030     417.8668   1416.61255     826.1030     417.8668
   1416.59729     827.2817     418.5663   1416.59729     827.2817     418.5663
   1416.58203     827.3586     418.0522   1416.58203     827.3586     418.0522
   1416.56677     826.8303     417.9491   1416.56677     826.8303     417.9491
   1416.55151     825.6838     418.2759   1416.55151     825.6838     418.2759
   1416.53625     827.1679     417.9312   1416.53625     827.1679     417.9312
   1416.52100     826.1906     417.7897   1416.52100     826.1906     417.7897
   1416.50574     826.8662     418.2745   1416.50574     826.8662     418.2745
   1416.49048     827.2869     417.9236   1416.49048     827.2869     417.9236
   1416.47522     826.6643     418.0288   1416.47522     826.6643     418.0288
   1416.45996     827.8994     417.8307   1416.45996     827.8994     417.8307
   1416.44470     826.3069     417.5777   1416.44470     826.3069     417.5777
   1416.42944     824.7761     417.4533   1416.42944     824.7761     417.4533
   1416.41418     826.0980     417.2323   1416.41418     826.0980     417.2323
   1416.39893     826.8947     417.2783   1416.39893     826.8947     417.2783
   1416.38367     826.9108     417.6916   1416.38367     826.9108     417.6916
   1416.36841     825.8958     416.3835   1416.36841     825.8958     416.3835
   1416.35315     825.8727     416.1786   1416.35315     825.8727     416.1786
   1416.33789     827.0283     416.3750   1416.33789     827.0283     416.3750
   1416.32263     826.1879     415.8377   1416.32263     826.1879     415.8377
   1416.30737     825.7362     415.7541   1416.30737     825.7362     415.7541
   1416.29211     824.9727     415.6167   1416.29211     824.9727     415.6167
   1416.27686     825.3862     415.0017   1416.27686     825.3862     415.0017
   1416.26160     825.3539     414.8575   1416.26160     825.3539     414.8575
   1416.24634     823.0248     415.1058   1416.24634     823.0248     415.1058
   1416.23108     823.5319     415.0360   1416.23108     823.5319     415.0360
   1416.21582     823.1217     414.4540   1416.21582     823.1217     414.4540
   1416.20056     823.1834     413.9778   1416.20056     823.1834     413.9778
   1416.18530     822.6555     413.2150   1416.18530     822.6555     413.2150
   1416.17004     823.2348     413.2119   1416.17004     823.2348     413.2119
   1416.15479     822.1415     413.4290   1416.15479     822.1415     413.4290
   1416.13953     821.1096     412.6979   1416.13953     821.1096     412.6979
   1416.12427     819.1801     412.6570   1416.12427     819.1801     412.6570
   1416.10901     819.9664     411.9395   1416.10901     819.9664     411.9395
   1416.09375     818.9175     411.7667   1416.09375     818.9175     411.7667
   1416.07849     819.1979     411.4570   1416.07849     819.1979     411.4570
   1416.06323     819.2245     410.8783   1416.06323     819.2245     410.8783
   1416.04797     817.7474     410.8371   1416.04797     817.7474     410.8371
   1416.03271     817.9704     410.7500   1416.03271     817.9704     410.7500
   1416.01746     817.8438     409.3075   1416.01746     817.8438     409.3075
   1416.00220     817.6742     408.9210   1416.00220     817.6742     408.9210
   1415.98694     816.2191     408.8861   1415.98694     816.2191     408.8861
   1415.97168     815.5261     409.0041   1415.97168     815.5261     409.0041
   1415.95642     815.2888     409.1852   1415.95642     815.2888     409.1852
   1415.94116     813.4113     407.6756   1415.94116     813.4113     407.6756
   1415.92590     813.8559     407.4730   1415.92590     813.8559     407.4730
   1415.91064     813.6099     406.4434   1415.91064     813.6099     406.4434
   1415.89539     812.1417     406.8492   1415.89539     812.1417     406.8492
   1415.88013     811.9657     406.1208   1415.88013     811.9657     406.1208
   1415.86487     810.6130     405.5879   1415.86487     810.6130     405.5879
   1415.84961     811.5878     405.6454   1415.84961     811.5878     405.6454
   1415.83435     809.1096     404.3615   1415.83435     809.1096     404.3615
   1415.81909     809.1692     404.1476   1415.81909     809.1692     404.1476
   1415.80383     809.2172     403.8785   1415.80383     809.2172     403.8785
   1415.78857     808.4559     403.4831   1415.78857     808.4559     403.4831
   1415.77332     807.9601     403.1971   1415.77332     807.9601     403.1971
   1415.75806     806.4468     402.6222   1415.75806     806.4468     402.6222
   1415.74280     804.6448     401.7113   1415.74280     804.6448     401.7113
   1415.72754     805.4648     401.4779   1415.72754     805.4648     401.4779
   1415.71228     803.8201     400.9944   1415.71228     803.8201     400.9944
   1415.69702     801.5277     400.7779   1415.69702     801.5277     400.7779
   1415.68176     801.6885     399.8230   1415.68176     801.6885     399.8230
   1415.66650     801.7835     399.1039   1415.66650     801.7835     399.1039
   1415.65125     800.6079     399.1866   1415.65125     800.6079     399.1866
   1415.63599     801.2637     398.6714   1415.63599     801.2637     398.6714
   1415.62073     799.3190     397.6452   1415.62073     799.3190     397.6452
   1415.60547     797.7200     397.6590   1415.60547     797.7200     397.6590
   1415.59021     795.2521     397.6437   1415.59021     795.2521     397.6437
   1415.57495     795.1359     396.4934   1415.57495     795.1359     396.4934
   1415.55969     793.8629     396.3262   1415.55969     793.8629     396.3262
   1415.54443     794.8275     395.2868   1415.54443     794.8275     395.2868
   1415.52917     792.3908     394.9333   1415.52917     792.3908     394.9333
   1415.51392     790.7480     394.5595   1415.51392     790.7480     394.5595
   1415.49866     790.6451     393.8888   1415.49866     790.6451     393.8888
   1415.48340     790.2405     393.7651   1415.48340     790.2405     393.7651
   1415.46814     789.0291     393.0327   1415.46814     789.0291     393.0327
   1415.45288     787.7225     392.5589   1415.45288     787.7225     392.5589
   1415.43762     786.1544     392.2539   1415.43762     786.1544     392.2539
   1415.42236     784.5586     391.2614   1415.42236     784.5586     391.2614
   1415.40710     785.1374     391.2224   1415.40710     785.1374     391.2224
   1415.39185     782.0986     390.0337   1415.39185     782.0986     390.0337
   1415.37659     781.2812     389.9824   1415.37659     781.2812     389.9824
   1415.36133     780.7126     389.1284   1415.36133     780.7126     389.1284
   1415.34607     778.9412     388.7563   1415.34607     778.9412     388.7563
   1415.33081     778.6578     388.3075   1415.33081     778.6578     388.3075
   1415.31555     775.6894     387.5995   1415.31555     775.6894     387.5995
   1415.30029     776.5633     386.7275   1415.30029     776.5633     386.7275
   1415.28503     774.7648     386.9790   1415.28503     774.7648     386.9790
   1415.26978     773.4900     385.4696   1415.26978     773.4900     385.4696
   1415.25452     771.7419     385.1593   1415.25452     771.7419     385.1593
   1415.23926     771.0375     384.3778   1415.23926     771.0375     384.3778
   1415.22400     768.9926     383.7188   1415.22400     768.9926     383.7188
   1415.20874     768.5403     383.8201   1415.20874     768.5403     383.8201
   1415.19348     766.1032     383.3659   1415.19348     766.1032     383.3659
   1415.17822     766.2642     382.2032   1415.17822     766.2642     382.2032
   1415.16296     764.2857     381.3506   1415.16296     764.2857     381.3506
   1415.14771     762.1176     380.8304   1415.14771     762.1176     380.8304
   1415.13245     760.2375     380.3890   1415.13245     760.2375     380.3890
   1415.11719     759.3922     379.4368   1415.11719     759.3922     379.4368
   1415.10193     757.0675     378.5650   1415.10193     757.0675     378.5650
   1415.08667     756.1771     378.4652   1415.08667     756.1771     378.4652
   1415.07141     754.6598     377.4960   1415.07141     754.6598     377.4960
   1415.05615     752.9916     376.9384   1415.05615     752.9916     376.9384
   1415.04089     751.8790     376.3358   1415.04089     751.8790     376.3358
   1415.02563     749.1437     375.8383   1415.02563     749.1437     375.8383
   1415.01038     747.8376     375.5841   1415.01038     747.8376     375.5841
   1414.99512     745.7723     373.9309   1414.99512     745.7723     373.9309
   1414.97986     745.0181     373.2013   1414.97986     745.0181     373.2013
   1414.96460     742.8674     372.6323   1414.96460     742.8674     372.6323
   1414.94934     742.3773     371.8179   1414.94934     742.3773     371.8179
   1414.93408     739.1434     371.0819   1414.93408     739.1434     371.0819
   1414.91882     739.3801     370.0577   1414.91882     739.3801     370.0577
   1414.90356     736.3882     369.8881   1414.90356     736.3882     369.8881
   1414.88831     733.6277     368.8109   1414.88831     733.6277     368.8109
   1414.87305     732.3862     368.9027   1414.87305     732.3862     368.9027
   1414.85779     731.4623     367.5765   1414.85779     731.4623     367.5765
   1414.84253     728.9261     366.7656   1414.84253     728.9261     366.7656
   1414.82727     726.2520     366.1540   1414.82727     726.2520     366.1540
   1414.81201     724.8479     365.0360   1414.81201     724.8479     365.0360
   1414.79675     724.2196     364.8260   1414.79675     724.2196     364.8260
   1414.78149     720.7213     363.5623   1414.78149     720.7213     363.5623
   1414.76624     718.9368     363.4468   1414.76624     718.9368     363.4468
   1414.75098     717.6038     361.2373   1414.75098     717.6038     361.2373
   1414.73572     715.0613     361.4202   1414.73572     715.0613     361.4202
   1414.72046     713.7171     360.2871   1414.72046     713.7171     360.2871
   1414.70520     711.1308     359.1599   1414.70520     711.1308     359.1599
   1414.68994     709.1046     358.4160   1414.68994     709.1046     358.4160
   1414.67468     706.4609     357.6591   1414.67468     706.4609     357.6591
   1414.65942     704.8763     356.9419   1414.65942     704.8763     356.9419
   1414.64417     702.8167     355.6570   1414.64417     702.8167     355.6570
   1414.62891     700.2478     354.8375   1414.62891     700.2478     354.8375
   1414.61365     698.7490     354.2108   1414.61365     698.7490     354.2108
   1414.59839     696.6512     353.3104   1414.59839     696.6512     353.3104
   1414.58313     694.0097     352.1694   1414.58313     694.0097     352.1694
   1414.56787     691.9409     351.5260   1414.56787     691.9409     351.5260
   1414.55261     689.3640     350.3608   1414.55261     689.3640     350.3608
   1414.53735     687.2449     349.6331   1414.53735     687.2449     349.6331
   1414.52209     685.1613     348.5605   1414.52209     685.1613     348.5605
   1414.50684     681.8414     348.0112   1414.50684     681.8414     348.0112
   1414.49158     680.0814     346.9489   1414.49158     680.0814     346.9489
   1414.47632     678.1536     346.0075   1414.47632     678.1536     346.0075
   1414.46106     675.3995     344.6920   1414.46106     675.3995     344.6920
   1414.44580     673.1665     343.4202   1414.44580     673.1665     343.4202
   1414.43054     671.1276     342.1431   1414.43054     671.1276     342.1431
   1414.41528     668.3036     341.1942   1414.41528     668.3036     341.1942
   1414.40002     665.1096     340.8181   1414.40002     665.1096     340.8181
   1414.38477     662.4442     339.5927   1414.38477     662.4442     339.5927
   1414.36951     661.6204     339.1424   1414.36951     661.6204     339.1424
   1414.35425     658.2471     337.4961   1414.35425     658.2471     337.4961
   1414.33899     655.8209     336.4220   1414.33899     655.8209     336.4220
   1414.32373     653.2614     335.0443   1414.32373     653.2614     335.0443
   1414.30847     649.7419     334.5305   1414.30847     649.7419     334.5305
   1414.29321     647.0769     333.7348   1414.29321     647.0769     333.7348
   1414.27795     645.1688     332.5485   1414.27795     645.1688     332.5485
   1414.26270     642.1536     331.7717   1414.26270     642.1536     331.7717
   1414.24744     640.8409     330.2665   1414.24744     640.8409     330.2665
   1414.23218     637.2929     328.8672   1414.23218     637.2929     328.8672
   1414.21692     634.7636     328.5934   1414.21692     634.7636     328.5934
   1414.20166     631.3737     326.8677   1414.20166     631.3737     326.8677
   1414.18640     628.7412     326.0983   1414.18640     628.7412     326.0983
   1414.17114     626.2672     324.6414   1414.17114     626.2672     324.6414
   1414.15588     623.0073     323.4658   1414.15588     623.0073     323.4658
   1414.14062     621.2552     322.8187   1414.14062     621.2552     322.8187
   1414.12537     617.6149     321.4081   1414.12537     617.6149     321.4081
   1414.11011     615.3007     320.2747   1414.11011     615.3007     320.2747
   1414.09485     612.6340     319.0513   1414.09485     612.6340     319.0513
   1414.07959     609.4174     317.7198   1414.07959     609.4174     317.7198
   1414.06433     605.9459     317.2181   1414.06433     605.9459     317.2181
   1414.04907     602.8245     315.4532   1414.04907     602.8245     315.4532
   1414.03381     600.8647     314.4826   1414.03381     600.8647     314.4826
   1414.01855     598.9240     312.8644   1414.01855     598.9240     312.8644
   1414.00330     611.4075     318.8921   1414.00330     611.4075     318.8921
   1413.98804     593.4512     310.8179   1413.98804     593.4512     310.8179
   1413.97278     588.9791     309.9706   1413.97278     588.9791     309.9706
   1413.95752     586.1979     308.7778   1413.95752     586.1979     308.7778
   1413.94226     582.6296     306.9250   1413.94226     582.6296     306.9250
   1413.92700     580.5523     305.7180   1413.92700     580.5523     305.7180
   1413.91174     577.4716     304.5554   1413.91174     577.4716     304.5554
   1413.89648     574.4273     303.7552   1413.89648     574.4273     303.7552
   1413.88123     571.0809     302.7301   1413.88123     571.0809     302.7301
   1413.86597     568.8604     300.9702   1413.86597     568.8604     300.9702
   1413.85071     565.4611     300.0576   1413.85071     565.4611     300.0576
   1413.83545     562.2536     298.6793   1413.83545     562.2536     298.6793
   1413.82019     559.6799     297.2562   1413.82019     559.6799     297.2562
   1413.80493     557.2430     296.4038   1413.80493     557.2430     296.4038
   1413.78967     553.7994     295.1202   1413.78967     553.7994     295.1202
   1413.77441     550.2185     293.6926   1413.77441     550.2185     293.6926
   1413.75916     547.3090     293.0298   1413.75916     547.3090     293.0298
   1413.74390     544.6216     290.8575   1413.74390     544.6216     290.8575
   1413.72864     541.8505     289.7136   1413.72864     541.8505     289.7136
   1413.71338     538.2587     289.0400   1413.71338     538.2587     289.0400
   1413.69812     535.3581     287.3133   1413.69812     535.3581     287.3133
   1413.68286     533.1467     286.3489   1413.68286     533.1467     286.3489
   1413.66760     529.1490     285.0540   1413.66760     529.1490     285.0540
   1413.65234     526.4821     283.6716   1413.65234     526.4821     283.6716
   1413.63708     523.9226     282.6967   1413.63708     523.9226     282.6967
   1413.62183     520.8048     281.7782   1413.62183     520.8048     281.7782
   1413.60657     517.9475     280.2821   1413.60657     517.9475     280.2821
   1413.59131     514.7172     279.1716   1413.59131     514.7172     279.1716
   1413.57605     510.9555     277.8482   1413.57605     510.9555     277.8482
   1413.56079     508.6924     276.7984   1413.56079     508.6924     276.7984
   1413.54553     504.9059     275.1904   1413.54553     504.9059     275.1904
   1413.53027     503.1724     273.6812   1413.53027     503.1724     273.6812
   1413.51501     500.0254     272.9179   1413.51501     500.0254     272.9179
   1413.49976     496.3274     271.6128   1413.49976     496.3274     271.6128
   1413.48450     493.8283     270.3972   1413.48450     493.8283     270.3972
   1413.46924     490.8347     268.9910   1413.46924     490.8347     268.9910
   1413.45398     488.4454     268.3034   1413.45398     488.4454     268.3034
   1413.43872     485.0645     267.2085   1413.43872     485.0645     267.2085
   1413.42346     483.2303     266.1268   1413.42346     483.2303     266.1268
   1413.40820     479.3441     264.8217   1413.40820     479.3441     264.8217
   1413.39294     476.8529     263.4796   1413.39294     476.8529     263.4796
   1413.37769     473.6333     261.9907   1413.37769     473.6333     261.9907
   1413.36243     470.9973     260.7603   1413.36243     470.9973     260.7603
   1413.34717     468.3157     259.7032   1413.34717     468.3157     259.7032
   1413.33191     465.0345     259.2991   1413.33191     465.0345     259.2991
   1413.31665     462.8048     257.7039   1413.31665     462.8048     257.7039
   1413.30139     460.5240     256.5695   1413.30139     460.5240     256.5695
   1413.28613     457.4280     255.5396   1413.28613     457.4280     255.5396
   1413.27087     454.5702     254.2767   1413.27087     454.5702     254.2767
   1413.25562     451.6077     253.6566   1413.25562     451.6077     253.6566
   1413.24036     449.3922     252.2831   1413.24036     449.3922     252.2831
   1413.22510     446.7297     251.4469   1413.22510     446.7297     251.4469
   1413.20984     444.0749     249.9852   1413.20984     444.0749     249.9852
   1413.19458     441.2842     248.9399   1413.19458     441.2842     248.9399
   1413.17932     438.4983     247.9938   1413.17932     438.4983     247.9938
   1413.16406     435.9207     247.0470   1413.16406     435.9207     247.0470
   1413.14880     434.0970     246.1908   1413.14880     434.0970     246.1908
   1413.13354     431.2438     244.7251   1413.13354     431.2438     244.7251
   1413.11829     429.3884     244.0275   1413.11829     429.3884     244.0275
   1413.10303     427.4197     243.5961   1413.10303     427.4197     243.5961
   1413.08777     424.5659     241.9585   1413.08777     424.5659     241.9585
   1413.07251     422.0758     241.3456   1413.07251     422.0758     241.3456
   1413.05725     420.2340     240.4510   1413.05725     420.2340     240.4510
   1413.04199     418.0686     239.1774   1413.04199     418.0686     239.1774
   1413.02673     415.5009     238.8454   1413.02673     415.5009     238.8454
   1413.01147     412.3634     237.8653   1413.01147     412.3634     237.8653
   1412.99622     411.3412     237.0600   1412.99622     411.3412     237.0600
   1412.98096     410.0282     236.2611   1412.98096     410.0282     236.2611
   1412.96570     407.2591     235.5674   1412.96570     407.2591     235.5674
   1412.95044     405.6184     234.6959   1412.95044     405.6184     234.6959
   1412.93518     403.4070     233.6841   1412.93518     403.4070     233.6841
   1412.91992     401.5783     233.1177   1412.91992     401.5783     233.1177
   1412.90466     399.4018     232.4012   1412.90466     399.4018     232.4012
   1412.88940     398.2664     231.6498   1412.88940     398.2664     231.6498
   1412.87415     395.2739     230.8760   1412.87415     395.2739     230.8760
   1412.85889     394.1471     230.6216   1412.85889     394.1471     230.6216
   1412.84363     392.7967     229.3570   1412.84363     392.7967     229.3570
   1412.82837     390.4820     229.1847   1412.82837     390.4820     229.1847
   1412.81311     389.5607     227.9644   1412.81311     389.5607     227.9644
   1412.79785     387.5248     227.5846   1412.79785     387.5248     227.5846
   1412.78259     386.4150     227.0271   1412.78259     386.4150     227.0271
   1412.76733     385.0599     226.6245   1412.76733     385.0599     226.6245
   1412.75208     383.6789     226.1206   1412.75208     383.6789     226.1206
   1412.73682     382.3138     225.6698   1412.73682     382.3138     225.6698
   1412.72156     381.0486     225.2541   1412.72156     381.0486     225.2541
   1412.70630     380.2956     224.7504   1412.70630     380.2956     224.7504
   1412.69104     378.1013     224.9221   1412.69104     378.1013     224.9221
   1412.67578     377.3428     224.3144   1412.67578     377.3428     224.3144
   1412.66052     375.6389     223.7488   1412.66052     375.6389     223.7488
   1412.64526     374.7754     223.4111   1412.64526     374.7754     223.4111
   1412.63000     374.6785     223.4040   1412.63000     374.6785     223.4040
   1412.61475     373.3974     222.7971   1412.61475     373.3974     222.7971
   1412.59949     371.5464     222.3214   1412.59949     371.5464     222.3214
   1412.58423     371.2086     222.4890   1412.58423     371.2086     222.4890
   1412.56897     370.2572     222.0272   1412.56897     370.2572     222.0272
   1412.55371     370.1165     222.1389   1412.55371     370.1165     222.1389
   1412.53845     369.5042     221.5665   1412.53845     369.5042     221.5665
   1412.52319     368.2332     221.9322   1412.52319     368.2332     221.9322
   1412.50793     367.8980     222.1612   1412.50793     367.8980     222.1612
   1412.49268     367.4186     221.7113   1412.49268     367.4186     221.7113
   1412.47742     366.8731     221.4002   1412.47742     366.8731     221.4002
   1412.46216     365.9791     221.9883   1412.46216     365.9791     221.9883
   1412.44690     366.0290     221.9088   1412.44690     366.0290     221.9088
   1412.43164     365.6385     221.7739   1412.43164     365.6385     221.7739
   1412.41638     365.6454     221.7012   1412.41638     365.6454     221.7012
   1412.40112     365.6015     221.7624   1412.40112     365.6015     221.7624
   1412.38586     365.5511     222.0427   1412.38586     365.5511     222.0427
   1412.37061     365.1036     222.5967   1412.37061     365.1036     222.5967
   1412.35535     364.9050     222.5895   1412.35535     364.9050     222.5895
   1412.34009     365.0616     223.3175   1412.34009     365.0616     223.3175
   1412.32483     365.4898     223.2958   1412.32483     365.4898     223.2958
   1412.30957     365.0968     223.4878   1412.30957     365.0968     223.4878
   1412.29431     366.1905     223.7517   1412.29431     366.1905     223.7517
   1412.27905     366.4154     224.2922   1412.27905     366.4154     224.2922
   1412.26379     366.5402     224.2693   1412.26379     366.5402     224.2693
   1412.24854     366.6757     225.0538   1412.24854     366.6757     225.0538
   1412.23328     367.6059     225.3315   1412.23328     367.6059     225.3315
   1412.21802     367.6147     226.1744   1412.21802     367.6147     226.1744
   1412.20276     368.2526     226.3967   1412.20276     368.2526     226.3967