#     FILENAME=!Skynet_57528_lach-hhg-121_20405_20945.cyb.fits
#     BASENAME=Skynet_57528_lach-hhg-121_20405_20945
#     SRC_NAME=lach-hhg-121
#     OBSERVER=hhgmadison16_9500
#     DATE_OBS=2016-05-20T16:39:38.930
#        OBSID=20405
#      SCANNUM=20945
#          MJD=57528.6952
#          UTC=60067
#     SCANTYPE=track
#     DATAMODE=HIRES
#     TUNEFREQ=1420.0000
# Actual_FREQ1=1420.0000
# Actual_FREQ2=1420.0000
#    LO1Tuning=6870.000
#     RFFILTER=1355_1435
#        OBSBW=-15.6250
#        NCHAN=1024 
#        FOCUS=37.0709
#           RA=00:34:31.99
#          DEC=62:48:30.65
#      RA(hrs)=0.575600
#     DEC(deg)=62.808500
#    AZIM(deg)=328.107
#    ELEV(deg)=55.666
#     IFattens=10.00, 9.00
#      WARNING=None
#    TCAL_XL1=7.9635
#    TCAL_YR1=9.1340
#    TCAL_XL2=7.9635
#    TCAL_YR2=9.1340
#     TRX_XL1=11.7060
#     TRX_YR1=11.7060
#     TRX_XL2=11.7060
#     TRX_YR2=11.7060
#        TAVE=1.0000
#Freq1(MHz)          XL1          YR1  Freq2(MHz)          XL2          YR2 

   1427.81250     379.5635     276.1281   1427.81250     379.5635     276.1281
   1427.79724     380.2046     276.5883   1427.79724     380.2046     276.5883
   1427.78198     380.7568     277.8900   1427.78198     380.7568     277.8900
   1427.76672     381.6627     278.7946   1427.76672     381.6627     278.7946
   1427.75146     382.1187     279.2956   1427.75146     382.1187     279.2956
   1427.73621     383.3382     280.2430   1427.73621     383.3382     280.2430
   1427.72095     383.7715     281.0475   1427.72095     383.7715     281.0475
   1427.70569     384.9202     282.5060   1427.70569     384.9202     282.5060
   1427.69043     386.1948     283.2085   1427.69043     386.1948     283.2085
   1427.67517     386.9800     284.3994   1427.67517     386.9800     284.3994
   1427.65991     388.3898     285.3433   1427.65991     388.3898     285.3433
   1427.64465     389.6235     286.8491   1427.64465     389.6235     286.8491
   1427.62939     390.5800     287.7658   1427.62939     390.5800     287.7658
   1427.61414     392.0362     289.2148   1427.61414     392.0362     289.2148
   1427.59888     393.7205     290.5727   1427.59888     393.7205     290.5727
   1427.58362     395.4490     291.9322   1427.58362     395.4490     291.9322
   1427.56836     396.5682     293.2413   1427.56836     396.5682     293.2413
   1427.55310     397.6871     294.4834   1427.55310     397.6871     294.4834
   1427.53784     399.4046     295.5516   1427.53784     399.4046     295.5516
   1427.52258     400.9981     297.3011   1427.52258     400.9981     297.3011
   1427.50732     402.6470     299.0559   1427.50732     402.6470     299.0559
   1427.49207     404.5922     300.2148   1427.49207     404.5922     300.2148
   1427.47681     406.3378     302.1709   1427.47681     406.3378     302.1709
   1427.46155     408.7752     304.4031   1427.46155     408.7752     304.4031
   1427.44629     410.2269     305.3093   1427.44629     410.2269     305.3093
   1427.43103     412.0821     306.4459   1427.43103     412.0821     306.4459
   1427.41577     413.8588     308.6504   1427.41577     413.8588     308.6504
   1427.40051     416.2734     310.7696   1427.40051     416.2734     310.7696
   1427.38525     417.4114     311.6532   1427.38525     417.4114     311.6532
   1427.37000     420.1548     314.1509   1427.37000     420.1548     314.1509
   1427.35474     422.3173     315.8817   1427.35474     422.3173     315.8817
   1427.33948     424.6938     318.2035   1427.33948     424.6938     318.2035
   1427.32422     426.8698     319.4592   1427.32422     426.8698     319.4592
   1427.30896     429.4012     321.4906   1427.30896     429.4012     321.4906
   1427.29370     431.3769     322.8642   1427.29370     431.3769     322.8642
   1427.27844     433.5053     324.8023   1427.27844     433.5053     324.8023
   1427.26318     435.8345     327.5567   1427.26318     435.8345     327.5567
   1427.24792     438.2403     329.6723   1427.24792     438.2403     329.6723
   1427.23267     441.1568     331.7700   1427.23267     441.1568     331.7700
   1427.21741     444.1151     333.9002   1427.21741     444.1151     333.9002
   1427.20215     445.9425     335.9550   1427.20215     445.9425     335.9550
   1427.18689     448.8359     337.9056   1427.18689     448.8359     337.9056
   1427.17163     451.2818     340.4330   1427.17163     451.2818     340.4330
   1427.15637     454.5649     342.5019   1427.15637     454.5649     342.5019
   1427.14111     456.5772     344.2388   1427.14111     456.5772     344.2388
   1427.12585     459.5690     346.2978   1427.12585     459.5690     346.2978
   1427.11060     461.6108     348.2325   1427.11060     461.6108     348.2325
   1427.09534     465.2499     350.7465   1427.09534     465.2499     350.7465
   1427.08008     467.8761     353.6884   1427.08008     467.8761     353.6884
   1427.06482     470.3286     355.0225   1427.06482     470.3286     355.0225
   1427.04956     472.9436     358.2414   1427.04956     472.9436     358.2414
   1427.03430     476.2227     360.2832   1427.03430     476.2227     360.2832
   1427.01904     479.0579     362.1148   1427.01904     479.0579     362.1148
   1427.00378     482.6465     364.9580   1427.00378     482.6465     364.9580
   1426.98853     484.9367     367.6696   1426.98853     484.9367     367.6696
   1426.97327     488.0794     370.2826   1426.97327     488.0794     370.2826
   1426.95801     490.4933     372.5162   1426.95801     490.4933     372.5162
   1426.94275     493.5102     375.4364   1426.94275     493.5102     375.4364
   1426.92749     496.9549     376.5201   1426.92749     496.9549     376.5201
   1426.91223     499.2246     380.0307   1426.91223     499.2246     380.0307
   1426.89697     503.0985     381.8995   1426.89697     503.0985     381.8995
   1426.88171     505.6645     384.4932   1426.88171     505.6645     384.4932
   1426.86646     509.7239     387.2860   1426.86646     509.7239     387.2860
   1426.85120     512.5073     389.1218   1426.85120     512.5073     389.1218
   1426.83594     515.7296     391.6475   1426.83594     515.7296     391.6475
   1426.82068     518.5154     394.1312   1426.82068     518.5154     394.1312
   1426.80542     521.0266     395.8359   1426.80542     521.0266     395.8359
   1426.79016     524.5530     399.4346   1426.79016     524.5530     399.4346
   1426.77490     527.9835     401.4453   1426.77490     527.9835     401.4453
   1426.75964     530.9023     404.1132   1426.75964     530.9023     404.1132
   1426.74438     534.9136     406.5978   1426.74438     534.9136     406.5978
   1426.72913     537.5593     409.3438   1426.72913     537.5593     409.3438
   1426.71387     540.5599     411.5032   1426.71387     540.5599     411.5032
   1426.69861     544.5605     413.8367   1426.69861     544.5605     413.8367
   1426.68335     547.1750     417.7307   1426.68335     547.1750     417.7307
   1426.66809     550.7979     419.2491   1426.66809     550.7979     419.2491
   1426.65283     553.8251     422.3655   1426.65283     553.8251     422.3655
   1426.63757     557.7401     425.5697   1426.63757     557.7401     425.5697
   1426.62231     579.1749     439.6289   1426.62231     579.1749     439.6289
   1426.60706     570.4100     433.7882   1426.60706     570.4100     433.7882
   1426.59180     567.0179     433.4395   1426.59180     567.0179     433.4395
   1426.57654     569.4951     434.1773   1426.57654     569.4951     434.1773
   1426.56128     572.6838     436.6987   1426.56128     572.6838     436.6987
   1426.54602     575.7101     439.2296   1426.54602     575.7101     439.2296
   1426.53076     578.7566     441.1277   1426.53076     578.7566     441.1277
   1426.51550     581.1348     444.3752   1426.51550     581.1348     444.3752
   1426.50024     584.8677     446.4685   1426.50024     584.8677     446.4685
   1426.48499     587.9459     449.3323   1426.48499     587.9459     449.3323
   1426.46973     591.6455     452.0192   1426.46973     591.6455     452.0192
   1426.45447     594.3818     454.3137   1426.45447     594.3818     454.3137
   1426.43921     598.0619     457.2181   1426.43921     598.0619     457.2181
   1426.42395     600.9575     458.9218   1426.42395     600.9575     458.9218
   1426.40869     603.5743     462.1136   1426.40869     603.5743     462.1136
   1426.39343     606.2316     463.8895   1426.39343     606.2316     463.8895
   1426.37817     609.2145     466.1334   1426.37817     609.2145     466.1334
   1426.36292     613.3703     468.4314   1426.36292     613.3703     468.4314
   1426.34766     615.2007     470.9094   1426.34766     615.2007     470.9094
   1426.33240     618.1666     473.4513   1426.33240     618.1666     473.4513
   1426.31714     621.7331     476.2042   1426.31714     621.7331     476.2042
   1426.30188     624.2641     477.9287   1426.30188     624.2641     477.9287
   1426.28662     628.3424     480.8013   1426.28662     628.3424     480.8013
   1426.27136     630.4314     482.5146   1426.27136     630.4314     482.5146
   1426.25610     633.8312     485.3335   1426.25610     633.8312     485.3335
   1426.24084     635.5331     487.7489   1426.24084     635.5331     487.7489
   1426.22559     638.9305     489.1659   1426.22559     638.9305     489.1659
   1426.21033     642.1107     491.9599   1426.21033     642.1107     491.9599
   1426.19507     643.8932     493.9185   1426.19507     643.8932     493.9185
   1426.17981     647.7847     496.7036   1426.17981     647.7847     496.7036
   1426.16455     651.1194     498.2232   1426.16455     651.1194     498.2232
   1426.14929     652.7394     501.9267   1426.14929     652.7394     501.9267
   1426.13403     655.8336     503.6914   1426.13403     655.8336     503.6914
   1426.11877     657.9786     504.8065   1426.11877     657.9786     504.8065
   1426.10352     661.5594     507.6079   1426.10352     661.5594     507.6079
   1426.08826     662.6970     510.1494   1426.08826     662.6970     510.1494
   1426.07300     664.7922     511.0523   1426.07300     664.7922     511.0523
   1426.05774     668.5600     513.8514   1426.05774     668.5600     513.8514
   1426.04248     671.3297     516.1398   1426.04248     671.3297     516.1398
   1426.02722     673.2481     518.3646   1426.02722     673.2481     518.3646
   1426.01196     675.8748     520.2485   1426.01196     675.8748     520.2485
   1425.99670     678.4922     522.5409   1425.99670     678.4922     522.5409
   1425.98145     680.8568     523.9484   1425.98145     680.8568     523.9484
   1425.96619     683.7061     526.9655   1425.96619     683.7061     526.9655
   1425.95093     685.7360     528.5956   1425.95093     685.7360     528.5956
   1425.93567     687.4738     530.5085   1425.93567     687.4738     530.5085
   1425.92041     690.5909     531.5557   1425.92041     690.5909     531.5557
   1425.90515     692.8994     533.3425   1425.90515     692.8994     533.3425
   1425.88989     694.6763     535.7830   1425.88989     694.6763     535.7830
   1425.87463     695.9335     538.1688   1425.87463     695.9335     538.1688
   1425.85938     699.5038     540.6501   1425.85938     699.5038     540.6501
   1425.84412     701.4444     540.9272   1425.84412     701.4444     540.9272
   1425.82886     702.6694     543.4555   1425.82886     702.6694     543.4555
   1425.81360     704.9760     545.8239   1425.81360     704.9760     545.8239
   1425.79834     706.5890     546.7083   1425.79834     706.5890     546.7083
   1425.78308     709.4568     549.2777   1425.78308     709.4568     549.2777
   1425.76782     712.4727     549.8437   1425.76782     712.4727     549.8437
   1425.75256     713.3142     551.2712   1425.75256     713.3142     551.2712
   1425.73730     715.3413     553.1063   1425.73730     715.3413     553.1063
   1425.72205     715.9844     555.7264   1425.72205     715.9844     555.7264
   1425.70679     719.3072     558.7712   1425.70679     719.3072     558.7712
   1425.69153     720.4649     558.2598   1425.69153     720.4649     558.2598
   1425.67627     723.2907     560.5492   1425.67627     723.2907     560.5492
   1425.66101     723.3102     563.3115   1425.66101     723.3102     563.3115
   1425.64575     726.6204     563.3633   1425.64575     726.6204     563.3633
   1425.63049     726.3552     564.1453   1425.63049     726.3552     564.1453
   1425.61523     728.2854     567.0215   1425.61523     728.2854     567.0215
   1425.59998     730.8643     568.0565   1425.59998     730.8643     568.0565
   1425.58472     732.5645     568.9882   1425.58472     732.5645     568.9882
   1425.56946     732.4482     571.7260   1425.56946     732.4482     571.7260
   1425.55420     735.1340     571.6461   1425.55420     735.1340     571.6461
   1425.53894     737.4449     574.7870   1425.53894     737.4449     574.7870
   1425.52368     738.6877     575.7684   1425.52368     738.6877     575.7684
   1425.50842     739.3633     577.6974   1425.50842     739.3633     577.6974
   1425.49316     740.5051     578.4948   1425.49316     740.5051     578.4948
   1425.47791     742.1439     579.8925   1425.47791     742.1439     579.8925
   1425.46265     743.5699     582.6216   1425.46265     743.5699     582.6216
   1425.44739     744.3197     582.9176   1425.44739     744.3197     582.9176
   1425.43213     745.8349     583.9807   1425.43213     745.8349     583.9807
   1425.41687     748.1447     586.1029   1425.41687     748.1447     586.1029
   1425.40161     748.2605     586.3571   1425.40161     748.2605     586.3571
   1425.38635     750.0873     588.0573   1425.38635     750.0873     588.0573
   1425.37109     751.0294     589.1727   1425.37109     751.0294     589.1727
   1425.35583     752.0821     590.6067   1425.35583     752.0821     590.6067
   1425.34058     751.8434     591.0845   1425.34058     751.8434     591.0845
   1425.32532     753.7890     593.2665   1425.32532     753.7890     593.2665
   1425.31006     754.8945     594.2578   1425.31006     754.8945     594.2578
   1425.29480     755.0104     595.2134   1425.29480     755.0104     595.2134
   1425.27954     757.9686     595.6786   1425.27954     757.9686     595.6786
   1425.26428     757.4807     597.9244   1425.26428     757.4807     597.9244
   1425.24902     758.9500     597.6014   1425.24902     758.9500     597.6014
   1425.23376     760.1505     599.2175   1425.23376     760.1505     599.2175
   1425.21851     760.3672     600.8229   1425.21851     760.3672     600.8229
   1425.20325     762.0007     602.2758   1425.20325     762.0007     602.2758
   1425.18799     761.8854     603.0620   1425.18799     761.8854     603.0620
   1425.17273     763.1637     604.7842   1425.17273     763.1637     604.7842
   1425.15747     763.4675     605.2064   1425.15747     763.4675     605.2064
   1425.14221     764.4794     605.4083   1425.14221     764.4794     605.4083
   1425.12695     764.6065     606.3036   1425.12695     764.6065     606.3036
   1425.11169     765.3290     608.6624   1425.11169     765.3290     608.6624
   1425.09644     764.8384     609.5821   1425.09644     764.8384     609.5821
   1425.08118     766.6984     609.7600   1425.08118     766.6984     609.7600
   1425.06592     766.6231     610.8163   1425.06592     766.6231     610.8163
   1425.05066     769.7021     612.4607   1425.05066     769.7021     612.4607
   1425.03540     767.6354     612.3489   1425.03540     767.6354     612.3489
   1425.02014     769.0109     614.3583   1425.02014     769.0109     614.3583
   1425.00488     768.0315     615.0693   1425.00488     768.0315     615.0693
   1424.98962     769.5027     616.0781   1424.98962     769.5027     616.0781
   1424.97437     770.0351     616.6342   1424.97437     770.0351     616.6342
   1424.95911     770.4395     617.9430   1424.95911     770.4395     617.9430
   1424.94385     771.0994     617.7753   1424.94385     771.0994     617.7753
   1424.92859     771.7944     617.9222   1424.92859     771.7944     617.9222
   1424.91333     771.0864     619.2505   1424.91333     771.0864     619.2505
   1424.89807     771.8856     619.6866   1424.89807     771.8856     619.6866
   1424.88281     771.3260     620.6511   1424.88281     771.3260     620.6511
   1424.86755     771.9153     621.7911   1424.86755     771.9153     621.7911
   1424.85229     773.3182     621.5298   1424.85229     773.3182     621.5298
   1424.83704     771.3248     623.8250   1424.83704     771.3248     623.8250
   1424.82178     773.0448     624.3038   1424.82178     773.0448     624.3038
   1424.80652     772.8854     624.1674   1424.80652     772.8854     624.1674
   1424.79126     772.5354     624.4918   1424.79126     772.5354     624.4918
   1424.77600     772.8690     625.8650   1424.77600     772.8690     625.8650
   1424.76074     772.9084     626.4280   1424.76074     772.9084     626.4280
   1424.74548     772.7714     626.4607   1424.74548     772.7714     626.4607
   1424.73022     772.5367     627.4962   1424.73022     772.5367     627.4962
   1424.71497     773.0154     627.7372   1424.71497     773.0154     627.7372
   1424.69971     773.7820     629.6856   1424.69971     773.7820     629.6856
   1424.68445     772.0614     629.5001   1424.68445     772.0614     629.5001
   1424.66919     774.1649     629.2813   1424.66919     774.1649     629.2813
   1424.65393     772.4512     629.7443   1424.65393     772.4512     629.7443
   1424.63867     773.5963     630.0265   1424.63867     773.5963     630.0265
   1424.62341     773.1745     631.6889   1424.62341     773.1745     631.6889
   1424.60815     772.6844     632.6752   1424.60815     772.6844     632.6752
   1424.59290     773.1170     632.8502   1424.59290     773.1170     632.8502
   1424.57764     773.2393     633.0663   1424.57764     773.2393     633.0663
   1424.56238     772.4930     633.0358   1424.56238     772.4930     633.0358
   1424.54712     772.8602     634.6400   1424.54712     772.8602     634.6400
   1424.53186     773.3126     633.9015   1424.53186     773.3126     633.9015
   1424.51660     773.2644     634.9333   1424.51660     773.2644     634.9333
   1424.50134     772.1719     635.2161   1424.50134     772.1719     635.2161
   1424.48608     772.9348     634.9721   1424.48608     772.9348     634.9721
   1424.47083     772.3110     635.9358   1424.47083     772.3110     635.9358
   1424.45557     771.3365     635.7116   1424.45557     771.3365     635.7116
   1424.44031     771.3668     636.6306   1424.44031     771.3668     636.6306
   1424.42505     771.5618     637.9218   1424.42505     771.5618     637.9218
   1424.40979     771.2333     637.7946   1424.40979     771.2333     637.7946
   1424.39453     772.1414     638.0866   1424.39453     772.1414     638.0866
   1424.37927     770.7241     637.9525   1424.37927     770.7241     637.9525
   1424.36401     770.4949     637.9634   1424.36401     770.4949     637.9634
   1424.34875     770.0818     639.0593   1424.34875     770.0818     639.0593
   1424.33350     769.4055     639.0635   1424.33350     769.4055     639.0635
   1424.31824     770.8881     638.9996   1424.31824     770.8881     638.9996
   1424.30298     768.7391     639.0490   1424.30298     768.7391     639.0490
   1424.28772     769.7886     639.7485   1424.28772     769.7886     639.7485
   1424.27246     769.2558     640.1660   1424.27246     769.2558     640.1660
   1424.25720     768.9662     639.7839   1424.25720     768.9662     639.7839
   1424.24194     769.8055     641.1220   1424.24194     769.8055     641.1220
   1424.22668     768.8006     640.4426   1424.22668     768.8006     640.4426
   1424.21143     768.1412     640.7445   1424.21143     768.1412     640.7445
   1424.19617     768.3795     642.7322   1424.19617     768.3795     642.7322
   1424.18091     768.9944     641.7375   1424.18091     768.9944     641.7375
   1424.16565     767.7124     642.8804   1424.16565     767.7124     642.8804
   1424.15039     765.9209     643.4229   1424.15039     765.9209     643.4229
   1424.13513     766.7678     642.2698   1424.13513     766.7678     642.2698
   1424.11987     766.2636     642.2374   1424.11987     766.2636     642.2374
   1424.10461     766.5247     642.6988   1424.10461     766.5247     642.6988
   1424.08936     765.4439     642.1986   1424.08936     765.4439     642.1986
   1424.07410     765.6374     643.2280   1424.07410     765.6374     643.2280
   1424.05884     764.2720     643.4513   1424.05884     764.2720     643.4513
   1424.04358     763.9015     642.9438   1424.04358     763.9015     642.9438
   1424.02832     763.6579     642.9343   1424.02832     763.6579     642.9343
   1424.01306     763.7985     643.4487   1424.01306     763.7985     643.4487
   1423.99780     763.4471     641.4128   1423.99780     763.4471     641.4128
   1423.98254     764.3271     643.6329   1423.98254     764.3271     643.6329
   1423.96729     762.1808     643.4440   1423.96729     762.1808     643.4440
   1423.95203     761.6521     642.9219   1423.95203     761.6521     642.9219
   1423.93677     761.0469     642.7529   1423.93677     761.0469     642.7529
   1423.92151     761.8742     644.3043   1423.92151     761.8742     644.3043
   1423.90625     762.2111     643.6677   1423.90625     762.2111     643.6677
   1423.89099     760.9850     643.5127   1423.89099     760.9850     643.5127
   1423.87573     759.7830     642.8850   1423.87573     759.7830     642.8850
   1423.86047     760.6990     643.2382   1423.86047     760.6990     643.2382
   1423.84521     759.7803     643.0107   1423.84521     759.7803     643.0107
   1423.82996     757.8109     643.2872   1423.82996     757.8109     643.2872
   1423.81470     758.6418     643.2786   1423.81470     758.6418     643.2786
   1423.79944     758.3116     643.9227   1423.79944     758.3116     643.9227
   1423.78418     757.9671     643.6811   1423.78418     757.9671     643.6811
   1423.76892     758.1049     644.0356   1423.76892     758.1049     644.0356
   1423.75366     757.1931     643.7925   1423.75366     757.1931     643.7925
   1423.73840     756.1573     642.6215   1423.73840     756.1573     642.6215
   1423.72314     755.7291     643.0764   1423.72314     755.7291     643.0764
   1423.70789     757.0358     643.6093   1423.70789     757.0358     643.6093
   1423.69263     755.3900     644.0084   1423.69263     755.3900     644.0084
   1423.67737     756.6407     642.5641   1423.67737     756.6407     642.5641
   1423.66211     755.8531     642.7770   1423.66211     755.8531     642.7770
   1423.64685     754.9472     642.3544   1423.64685     754.9472     642.3544
   1423.63159     755.2535     642.4882   1423.63159     755.2535     642.4882
   1423.61633     752.9393     642.3383   1423.61633     752.9393     642.3383
   1423.60107     753.5256     642.4869   1423.60107     753.5256     642.4869
   1423.58582     753.3902     642.9493   1423.58582     753.3902     642.9493
   1423.57056     753.6242     642.2914   1423.57056     753.6242     642.2914
   1423.55530     751.8953     641.3638   1423.55530     751.8953     641.3638
   1423.54004     752.4882     641.1107   1423.54004     752.4882     641.1107
   1423.52478     751.7598     639.9880   1423.52478     751.7598     639.9880
   1423.50952     751.1830     640.5356   1423.50952     751.1830     640.5356
   1423.49426     749.7177     640.9242   1423.49426     749.7177     640.9242
   1423.47900     750.5173     640.9860   1423.47900     750.5173     640.9860
   1423.46375     750.6643     641.2722   1423.46375     750.6643     641.2722
   1423.44849     749.9961     640.6942   1423.44849     749.9961     640.6942
   1423.43323     750.2223     639.3844   1423.43323     750.2223     639.3844
   1423.41797     749.2857     640.6854   1423.41797     749.2857     640.6854
   1423.40271     748.5117     639.8286   1423.40271     748.5117     639.8286
   1423.38745     748.6812     638.2664   1423.38745     748.6812     638.2664
   1423.37219     749.0588     638.2146   1423.37219     749.0588     638.2146
   1423.35693     746.7938     637.9159   1423.35693     746.7938     637.9159
   1423.34167     748.2477     636.7313   1423.34167     748.2477     636.7313
   1423.32642     746.5920     636.8561   1423.32642     746.5920     636.8561
   1423.31116     746.4270     636.4355   1423.31116     746.4270     636.4355
   1423.29590     746.4941     635.2911   1423.29590     746.4941     635.2911
   1423.28064     745.8215     635.6804   1423.28064     745.8215     635.6804
   1423.26538     746.4066     636.0144   1423.26538     746.4066     636.0144
   1423.25012     747.2756     634.4454   1423.25012     747.2756     634.4454
   1423.23486     745.7101     635.2720   1423.23486     745.7101     635.2720
   1423.21960     744.3012     635.1152   1423.21960     744.3012     635.1152
   1423.20435     744.0806     633.8680   1423.20435     744.0806     633.8680
   1423.18909     744.9235     633.6136   1423.18909     744.9235     633.6136
   1423.17383     744.4689     632.8011   1423.17383     744.4689     632.8011
   1423.15857     743.5333     632.4308   1423.15857     743.5333     632.4308
   1423.14331     743.3314     632.7091   1423.14331     743.3314     632.7091
   1423.12805     742.3408     631.7138   1423.12805     742.3408     631.7138
   1423.11279     742.3350     630.8626   1423.11279     742.3350     630.8626
   1423.09753     741.6282     630.3343   1423.09753     741.6282     630.3343
   1423.08228     742.1935     629.7708   1423.08228     742.1935     629.7708
   1423.06702     742.3438     629.2305   1423.06702     742.3438     629.2305
   1423.05176     741.6312     627.9446   1423.05176     741.6312     627.9446
   1423.03650     741.6778     628.4475   1423.03650     741.6778     628.4475
   1423.02124     741.0216     627.6083   1423.02124     741.0216     627.6083
   1423.00598     740.3528     625.7738   1423.00598     740.3528     625.7738
   1422.99072     740.1048     626.6245   1422.99072     740.1048     626.6245
   1422.97546     739.5212     625.7863   1422.97546     739.5212     625.7863
   1422.96021     740.0594     625.3124   1422.96021     740.0594     625.3124
   1422.94495     738.8185     625.5759   1422.94495     738.8185     625.5759
   1422.92969     739.0460     623.7202   1422.92969     739.0460     623.7202
   1422.91443     738.8656     623.7579   1422.91443     738.8656     623.7579
   1422.89917     737.2486     622.8008   1422.89917     737.2486     622.8008
   1422.88391     738.0479     622.2735   1422.88391     738.0479     622.2735
   1422.86865     738.3538     620.6583   1422.86865     738.3538     620.6583
   1422.85339     738.7493     620.9709   1422.85339     738.7493     620.9709
   1422.83813     735.8223     620.2283   1422.83813     735.8223     620.2283
   1422.82288     736.4029     618.9417   1422.82288     736.4029     618.9417
   1422.80762     736.9235     618.2690   1422.80762     736.9235     618.2690
   1422.79236     736.1490     617.9213   1422.79236     736.1490     617.9213
   1422.77710     736.5792     617.2902   1422.77710     736.5792     617.2902
   1422.76184     736.2795     615.1452   1422.76184     736.2795     615.1452
   1422.74658     735.8503     615.7626   1422.74658     735.8503     615.7626
   1422.73132     734.1256     614.7217   1422.73132     734.1256     614.7217
   1422.71606     734.2019     613.9382   1422.71606     734.2019     613.9382
   1422.70081     734.5048     613.4205   1422.70081     734.5048     613.4205
   1422.68555     733.9778     611.9895   1422.68555     733.9778     611.9895
   1422.67029     734.2535     611.9336   1422.67029     734.2535     611.9336
   1422.65503     735.2841     609.6164   1422.65503     735.2841     609.6164
   1422.63977     735.2070     609.9355   1422.63977     735.2070     609.9355
   1422.62451     733.8804     608.7846   1422.62451     733.8804     608.7846
   1422.60925     733.2643     608.4009   1422.60925     733.2643     608.4009
   1422.59399     732.6499     606.8040   1422.59399     732.6499     606.8040
   1422.57874     733.4646     606.9951   1422.57874     733.4646     606.9951
   1422.56348     732.9454     605.6897   1422.56348     732.9454     605.6897
   1422.54822     732.4805     605.4357   1422.54822     732.4805     605.4357
   1422.53296     732.7717     604.1903   1422.53296     732.7717     604.1903
   1422.51770     732.3078     602.6244   1422.51770     732.3078     602.6244
   1422.50244     732.2991     601.6488   1422.50244     732.2991     601.6488
   1422.48718     731.9949     601.1965   1422.48718     731.9949     601.1965
   1422.47192     730.9989     600.5432   1422.47192     730.9989     600.5432
   1422.45667     731.6406     599.1864   1422.45667     731.6406     599.1864
   1422.44141     731.4731     599.0719   1422.44141     731.4731     599.0719
   1422.42615     731.7305     597.4636   1422.42615     731.7305     597.4636
   1422.41089     731.4941     596.7719   1422.41089     731.4941     596.7719
   1422.39563     730.6712     596.4796   1422.39563     730.6712     596.4796
   1422.38037     731.4949     594.7678   1422.38037     731.4949     594.7678
   1422.36511     729.9052     593.7218   1422.36511     729.9052     593.7218
   1422.34985     729.4078     594.0527   1422.34985     729.4078     594.0527
   1422.33459     730.4100     591.8536   1422.33459     730.4100     591.8536
   1422.31934     728.9693     590.8915   1422.31934     728.9693     590.8915
   1422.30408     729.7700     590.4665   1422.30408     729.7700     590.4665
   1422.28882     729.4120     588.9230   1422.28882     729.4120     588.9230
   1422.27356     729.3220     588.0710   1422.27356     729.3220     588.0710
   1422.25830     728.8478     587.6386   1422.25830     728.8478     587.6386
   1422.24304     728.8043     586.0124   1422.24304     728.8043     586.0124
   1422.22778     727.9556     585.3242   1422.22778     727.9556     585.3242
   1422.21252     728.2654     583.3035   1422.21252     728.2654     583.3035
   1422.19727     727.7586     582.7181   1422.19727     727.7586     582.7181
   1422.18201     728.1588     581.6050   1422.18201     728.1588     581.6050
   1422.16675     727.1818     580.5948   1422.16675     727.1818     580.5948
   1422.15149     727.9812     580.5789   1422.15149     727.9812     580.5789
   1422.13623     727.8214     579.0243   1422.13623     727.8214     579.0243
   1422.12097     727.2987     577.6307   1422.12097     727.2987     577.6307
   1422.10571     728.2638     576.7521   1422.10571     728.2638     576.7521
   1422.09045     726.4893     575.5093   1422.09045     726.4893     575.5093
   1422.07520     726.9728     574.3884   1422.07520     726.9728     574.3884
   1422.05994     726.6287     574.1606   1422.05994     726.6287     574.1606
   1422.04468     725.5557     572.3910   1422.04468     725.5557     572.3910
   1422.02942     726.1195     571.7835   1422.02942     726.1195     571.7835
   1422.01416     725.9131     570.0830   1422.01416     725.9131     570.0830
   1421.99890     725.5130     568.2277   1421.99890     725.5130     568.2277
   1421.98364     725.9127     567.9179   1421.98364     725.9127     567.9179
   1421.96838     726.2203     566.9388   1421.96838     726.2203     566.9388
   1421.95312     725.9155     564.6125   1421.95312     725.9155     564.6125
   1421.93787     724.5160     564.0231   1421.93787     724.5160     564.0231
   1421.92261     724.5707     563.5092   1421.92261     724.5707     563.5092
   1421.90735     724.9531     562.8893   1421.90735     724.9531     562.8893
   1421.89209     725.2028     562.0328   1421.89209     725.2028     562.0328
   1421.87683     724.6535     560.2913   1421.87683     724.6535     560.2913
   1421.86157     724.3145     557.9464   1421.86157     724.3145     557.9464
   1421.84631     724.0685     557.9519   1421.84631     724.0685     557.9519
   1421.83105     725.0184     556.2516   1421.83105     725.0184     556.2516
   1421.81580     725.0085     556.1988   1421.81580     725.0085     556.1988
   1421.80054     723.7946     554.9766   1421.80054     723.7946     554.9766
   1421.78528     722.9487     552.8217   1421.78528     722.9487     552.8217
   1421.77002     724.0062     551.8052   1421.77002     724.0062     551.8052
   1421.75476     721.6696     551.0336   1421.75476     721.6696     551.0336
   1421.73950     722.5349     550.3558   1421.73950     722.5349     550.3558
   1421.72424     723.3953     548.2419   1421.72424     723.3953     548.2419
   1421.70898     722.5256     547.1613   1421.70898     722.5256     547.1613
   1421.69373     722.2690     546.0614   1421.69373     722.2690     546.0614
   1421.67847     722.5114     546.0207   1421.67847     722.5114     546.0207
   1421.66321     722.0939     544.1656   1421.66321     722.0939     544.1656
   1421.64795     720.6852     543.2543   1421.64795     720.6852     543.2543
   1421.63269     720.0627     541.4425   1421.63269     720.0627     541.4425
   1421.61743     720.8800     540.3254   1421.61743     720.8800     540.3254
   1421.60217     720.2572     540.0812   1421.60217     720.2572     540.0812
   1421.58691     721.1038     537.6494   1421.58691     721.1038     537.6494
   1421.57166     720.9492     537.5725   1421.57166     720.9492     537.5725
   1421.55640     721.3749     534.8486   1421.55640     721.3749     534.8486
   1421.54114     720.9323     534.9231   1421.54114     720.9323     534.9231
   1421.52588     722.0463     533.0483   1421.52588     722.0463     533.0483
   1421.51062     720.0497     532.7361   1421.51062     720.0497     532.7361
   1421.49536     720.3975     530.8680   1421.49536     720.3975     530.8680
   1421.48010     719.2709     530.6301   1421.48010     719.2709     530.6301
   1421.46484     720.2298     528.9107   1421.46484     720.2298     528.9107
   1421.44958     720.4053     527.4012   1421.44958     720.4053     527.4012
   1421.43433     721.0813     527.0396   1421.43433     721.0813     527.0396
   1421.41907     720.2849     525.1946   1421.41907     720.2849     525.1946
   1421.40381     719.7611     525.2298   1421.40381     719.7611     525.2298
   1421.38855     720.0837     524.1913   1421.38855     720.0837     524.1913
   1421.37329     720.0316     521.7141   1421.37329     720.0316     521.7141
   1421.35803     720.0983     521.6907   1421.35803     720.0983     521.6907
   1421.34277     719.9091     520.6274   1421.34277     719.9091     520.6274
   1421.32751     719.9908     519.9579   1421.32751     719.9908     519.9579
   1421.31226     719.9158     518.4271   1421.31226     719.9158     518.4271
   1421.29700     719.4212     515.9607   1421.29700     719.4212     515.9607
   1421.28174     720.5629     516.4662   1421.28174     720.5629     516.4662
   1421.26648     720.3551     514.5525   1421.26648     720.3551     514.5525
   1421.25122     719.1680     513.8417   1421.25122     719.1680     513.8417
   1421.23596     718.9937     512.8803   1421.23596     718.9937     512.8803
   1421.22070     719.7360     511.3020   1421.22070     719.7360     511.3020
   1421.20544     719.8550     510.8961   1421.20544     719.8550     510.8961
   1421.19019     719.4611     510.1630   1421.19019     719.4611     510.1630
   1421.17493     719.0728     508.5325   1421.17493     719.0728     508.5325
   1421.15967     720.0422     507.9972   1421.15967     720.0422     507.9972
   1421.14441     719.7054     508.0368   1421.14441     719.7054     508.0368
   1421.12915     720.9006     506.5804   1421.12915     720.9006     506.5804
   1421.11389     722.4054     507.8359   1421.11389     722.4054     507.8359
   1421.09863     727.9795     509.1621   1421.09863     727.9795     509.1621
   1421.08337     734.8008     512.8809   1421.08337     734.8008     512.8809
   1421.06812     749.7914     522.4696   1421.06812     749.7914     522.4696
   1421.05286     780.1010     542.6161   1421.05286     780.1010     542.6161
   1421.03760     799.9379     554.1036   1421.03760     799.9379     554.1036
   1421.02234     816.8760     564.8969   1421.02234     816.8760     564.8969
   1421.00708     840.1674     580.7794   1421.00708     840.1674     580.7794
   1420.99182     854.3119     587.9421   1420.99182     854.3119     587.9421
   1420.97656     875.5851     601.8035   1420.97656     875.5851     601.8035
   1420.96130     897.1127     616.5773   1420.96130     897.1127     616.5773
   1420.94604     993.2021     678.0002   1420.94604     993.2021     678.0002
   1420.93079    1144.8859     780.0009   1420.93079    1144.8859     780.0009
   1420.91553    1048.8002     713.3209   1420.91553    1048.8002     713.3209
   1420.90027     931.3340     632.7143   1420.90027     931.3340     632.7143
   1420.88501     895.6647     608.9560   1420.88501     895.6647     608.9560
   1420.86975     838.9361     568.9583   1420.86975     838.9361     568.9583
   1420.85449     827.3847     560.2327   1420.85449     827.3847     560.2327
   1420.83923     859.2543     579.5176   1420.83923     859.2543     579.5176
   1420.82397     889.5400     599.2042   1420.82397     889.5400     599.2042
   1420.80872     935.8085     629.8472   1420.80872     935.8085     629.8472
   1420.79346    1093.9315     735.5385   1420.79346    1093.9315     735.5385
   1420.77820    1375.4594     919.2842   1420.77820    1375.4594     919.2842
   1420.76294    1567.9376    1040.5790   1420.76294    1567.9376    1040.5790
   1420.74768    1772.9773    1175.7347   1420.74768    1772.9773    1175.7347
   1420.73242    2066.7942    1365.1080   1420.73242    2066.7942    1365.1080
   1420.71716    2169.3938    1427.6805   1420.71716    2169.3938    1427.6805
   1420.70190    2264.8379    1490.1689   1420.70190    2264.8379    1490.1689
   1420.68665    2167.4568    1423.0258   1420.68665    2167.4568    1423.0258
   1420.67139    1826.1239    1200.8700   1420.67139    1826.1239    1200.8700
   1420.65613    1549.1595    1015.9080   1420.65613    1549.1595    1015.9080
   1420.64087    1431.7542     937.8798   1420.64087    1431.7542     937.8798
   1420.62561    1279.1097     835.5367   1420.62561    1279.1097     835.5367
   1420.61035    1210.0897     790.9073   1420.61035    1210.0897     790.9073
   1420.59509    1207.5210     790.2603   1420.59509    1207.5210     790.2603
   1420.57983    1263.0837     822.2983   1420.57983    1263.0837     822.2983
   1420.56458    1356.5873     883.1689   1420.56458    1356.5873     883.1689
   1420.54932    1431.3480     928.7430   1420.54932    1431.3480     928.7430
   1420.53406    1560.8158    1008.9724   1420.53406    1560.8158    1008.9724
   1420.51880    1595.2522    1029.7443   1420.51880    1595.2522    1029.7443
   1420.50354    1521.5789     979.7669   1420.50354    1521.5789     979.7669
   1420.48828    1407.5233     908.3953   1420.48828    1407.5233     908.3953
   1420.47302    1390.8564     894.1258   1420.47302    1390.8564     894.1258
   1420.45776    1631.9396    1046.1997   1420.45776    1631.9396    1046.1997
   1420.44250    1229.3909     788.2768   1420.44250    1229.3909     788.2768
   1420.42725     888.4271     571.1429   1420.42725     888.4271     571.1429
   1420.41199     793.3242     507.7118   1420.41199     793.3242     507.7118
   1420.39673     753.3508     484.0461   1420.39673     753.3508     484.0461
   1420.38147     734.8542     471.4925   1420.38147     734.8542     471.4925
   1420.36621     725.4553     464.6346   1420.36621     725.4553     464.6346
   1420.35095     720.1970     460.5085   1420.35095     720.1970     460.5085
   1420.33569     718.1223     458.1187   1420.33569     718.1223     458.1187
   1420.32043     715.4733     456.2805   1420.32043     715.4733     456.2805
   1420.30518     713.6061     454.4230   1420.30518     713.6061     454.4230
   1420.28992     713.6638     454.3396   1420.28992     713.6638     454.3396
   1420.27466     711.9175     452.7733   1420.27466     711.9175     452.7733
   1420.25940     711.0070     451.8487   1420.25940     711.0070     451.8487
   1420.24414     712.0148     450.6416   1420.24414     712.0148     450.6416
   1420.22888     712.1854     449.6616   1420.22888     712.1854     449.6616
   1420.21362     711.0631     448.6144   1420.21362     711.0631     448.6144
   1420.19836     709.4256     447.0959   1420.19836     709.4256     447.0959
   1420.18311     709.1939     446.1601   1420.18311     709.1939     446.1601
   1420.16785     708.2745     444.6916   1420.16785     708.2745     444.6916
   1420.15259     706.6666     444.0580   1420.15259     706.6666     444.0580
   1420.13733     708.0701     442.9270   1420.13733     708.0701     442.9270
   1420.12207     706.1892     442.0081   1420.12207     706.1892     442.0081
   1420.10681     706.2076     441.5898   1420.10681     706.2076     441.5898
   1420.09155     705.7549     440.6711   1420.09155     705.7549     440.6711
   1420.07629     704.4983     438.7551   1420.07629     704.4983     438.7551
   1420.06104     703.4030     438.4534   1420.06104     703.4030     438.4534
   1420.04578     703.9801     437.7799   1420.04578     703.9801     437.7799
   1420.03052     702.8376     437.5088   1420.03052     702.8376     437.5088
   1420.01526     704.6262     436.7209   1420.01526     704.6262     436.7209
   1420.00000     704.8853     437.5823   1420.00000     704.8853     437.5823
   1419.98474     705.1445     438.4440   1419.98474     705.1445     438.4440
   1419.96948     705.6840     436.2877   1419.96948     705.6840     436.2877
   1419.95422     702.9615     434.1877   1419.95422     702.9615     434.1877
   1419.93896     703.6249     433.4585   1419.93896     703.6249     433.4585
   1419.92371     702.9077     432.7529   1419.92371     702.9077     432.7529
   1419.90845     704.0827     432.8192   1419.90845     704.0827     432.8192
   1419.89319     703.9111     432.4858   1419.89319     703.9111     432.4858
   1419.87793     704.0146     431.3272   1419.87793     704.0146     431.3272
   1419.86267     702.5791     432.0264   1419.86267     702.5791     432.0264
   1419.84741     703.9847     429.7973   1419.84741     703.9847     429.7973
   1419.83215     702.9165     430.1083   1419.83215     702.9165     430.1083
   1419.81689     703.4843     429.7188   1419.81689     703.4843     429.7188
   1419.80164     703.0070     429.4612   1419.80164     703.0070     429.4612
   1419.78638     703.5490     429.0386   1419.78638     703.5490     429.0386
   1419.77112     702.6907     428.8223   1419.77112     702.6907     428.8223
   1419.75586     703.4082     428.8057   1419.75586     703.4082     428.8057
   1419.74060     703.1797     428.5944   1419.74060     703.1797     428.5944
   1419.72534     702.7803     427.5690   1419.72534     702.7803     427.5690
   1419.71008     704.8096     427.3629   1419.71008     704.8096     427.3629
   1419.69482     704.3124     427.4500   1419.69482     704.3124     427.4500
   1419.67957     703.8395     426.9612   1419.67957     703.8395     426.9612
   1419.66431     704.9385     426.5315   1419.66431     704.9385     426.5315
   1419.64905     703.7603     426.9446   1419.64905     703.7603     426.9446
   1419.63379     704.6309     426.7080   1419.63379     704.6309     426.7080
   1419.61853     704.3755     426.0678   1419.61853     704.3755     426.0678
   1419.60327     704.6249     426.6300   1419.60327     704.6249     426.6300
   1419.58801     705.9564     425.3637   1419.58801     705.9564     425.3637
   1419.57275     705.0923     425.6173   1419.57275     705.0923     425.6173
   1419.55750     705.4531     425.1053   1419.55750     705.4531     425.1053
   1419.54224     705.3043     425.5147   1419.54224     705.3043     425.5147
   1419.52698     705.4565     425.6026   1419.52698     705.4565     425.6026
   1419.51172     706.6288     425.4368   1419.51172     706.6288     425.4368
   1419.49646     705.9358     425.2319   1419.49646     705.9358     425.2319
   1419.48120     705.8268     425.0105   1419.48120     705.8268     425.0105
   1419.46594     706.6447     424.9701   1419.46594     706.6447     424.9701
   1419.45068     706.9957     424.7922   1419.45068     706.9957     424.7922
   1419.43542     707.3761     424.9561   1419.43542     707.3761     424.9561
   1419.42017     708.4290     424.8098   1419.42017     708.4290     424.8098
   1419.40491     708.9688     424.1980   1419.40491     708.9688     424.1980
   1419.38965     708.8708     424.4524   1419.38965     708.8708     424.4524
   1419.37439     709.0468     423.8705   1419.37439     709.0468     423.8705
   1419.35913     709.2048     424.3619   1419.35913     709.2048     424.3619
   1419.34387     708.7089     424.9995   1419.34387     708.7089     424.9995
   1419.32861     709.0483     424.7470   1419.32861     709.0483     424.7470
   1419.31335     709.8183     424.7812   1419.31335     709.8183     424.7812
   1419.29810     709.9277     425.0664   1419.29810     709.9277     425.0664
   1419.28284     710.7662     424.8427   1419.28284     710.7662     424.8427
   1419.26758     711.1069     424.7227   1419.26758     711.1069     424.7227
   1419.25232     711.8442     425.0620   1419.25232     711.8442     425.0620
   1419.23706     711.3650     425.1898   1419.23706     711.3650     425.1898
   1419.22180     712.9968     425.5757   1419.22180     712.9968     425.5757
   1419.20654     711.7378     425.5664   1419.20654     711.7378     425.5664
   1419.19128     713.3462     425.6745   1419.19128     713.3462     425.6745
   1419.17603     712.6715     425.8612   1419.17603     712.6715     425.8612
   1419.16077     715.6020     426.1711   1419.16077     715.6020     426.1711
   1419.14551     714.4898     426.6206   1419.14551     714.4898     426.6206
   1419.13025     714.4726     426.6934   1419.13025     714.4726     426.6934
   1419.11499     715.0331     426.1671   1419.11499     715.0331     426.1671
   1419.09973     714.6918     427.4464   1419.09973     714.6918     427.4464
   1419.08447     715.2636     427.7700   1419.08447     715.2636     427.7700
   1419.06921     716.0865     427.0172   1419.06921     716.0865     427.0172
   1419.05396     717.0328     427.8824   1419.05396     717.0328     427.8824
   1419.03870     716.1063     427.4913   1419.03870     716.1063     427.4913
   1419.02344     718.0315     428.5424   1419.02344     718.0315     428.5424
   1419.00818     717.6768     427.9357   1419.00818     717.6768     427.9357
   1418.99292     717.9814     428.9014   1418.99292     717.9814     428.9014
   1418.97766     718.5270     428.8501   1418.97766     718.5270     428.8501
   1418.96240     719.6607     429.6351   1418.96240     719.6607     429.6351
   1418.94714     720.3353     430.0461   1418.94714     720.3353     430.0461
   1418.93188     719.4755     430.2718   1418.93188     719.4755     430.2718
   1418.91663     720.7664     430.3611   1418.91663     720.7664     430.3611
   1418.90137     721.6318     430.6475   1418.90137     721.6318     430.6475
   1418.88611     722.5199     431.6189   1418.88611     722.5199     431.6189
   1418.87085     722.7275     431.4261   1418.87085     722.7275     431.4261
   1418.85559     722.8769     431.8584   1418.85559     722.8769     431.8584
   1418.84033     723.6983     432.6983   1418.84033     723.6983     432.6983
   1418.82507     724.7225     432.9885   1418.82507     724.7225     432.9885
   1418.80981     725.0120     433.7421   1418.80981     725.0120     433.7421
   1418.79456     724.3274     433.7584   1418.79456     724.3274     433.7584
   1418.77930     725.6009     434.7391   1418.77930     725.6009     434.7391
   1418.76404     726.9101     434.0999   1418.76404     726.9101     434.0999
   1418.74878     726.5071     435.6704   1418.74878     726.5071     435.6704
   1418.73352     727.2960     435.9565   1418.73352     727.2960     435.9565
   1418.71826     728.8441     436.9184   1418.71826     728.8441     436.9184
   1418.70300     729.4044     436.8209   1418.70300     729.4044     436.8209
   1418.68774     728.9302     437.4886   1418.68774     728.9302     437.4886
   1418.67249     730.5181     438.4754   1418.67249     730.5181     438.4754
   1418.65723     730.2533     438.4265   1418.65723     730.2533     438.4265
   1418.64197     731.4842     439.5119   1418.64197     731.4842     439.5119
   1418.62671     732.2274     439.9112   1418.62671     732.2274     439.9112
   1418.61145     733.2294     440.9488   1418.61145     733.2294     440.9488
   1418.59619     733.8993     440.5862   1418.59619     733.8993     440.5862
   1418.58093     734.0101     441.9819   1418.58093     734.0101     441.9819
   1418.56567     733.7889     442.9119   1418.56567     733.7889     442.9119
   1418.55042     736.4961     443.0214   1418.55042     736.4961     443.0214
   1418.53516     735.0007     443.4759   1418.53516     735.0007     443.4759
   1418.51990     736.6225     444.8288   1418.51990     736.6225     444.8288
   1418.50464     737.3986     444.8398   1418.50464     737.3986     444.8398
   1418.48938     738.0453     446.4346   1418.48938     738.0453     446.4346
   1418.47412     739.1073     447.0391   1418.47412     739.1073     447.0391
   1418.45886     739.3517     447.2773   1418.45886     739.3517     447.2773
   1418.44360     740.2676     448.2926   1418.44360     740.2676     448.2926
   1418.42834     741.2552     448.2501   1418.42834     741.2552     448.2501
   1418.41309     742.3676     449.0929   1418.41309     742.3676     449.0929
   1418.39783     743.1686     450.8982   1418.39783     743.1686     450.8982
   1418.38257     743.7812     451.1045   1418.38257     743.7812     451.1045
   1418.36731     744.2328     452.2892   1418.36731     744.2328     452.2892
   1418.35205     742.5334     452.5041   1418.35205     742.5334     452.5041
   1418.33679     746.3455     452.8114   1418.33679     746.3455     452.8114
   1418.32153     745.8668     454.0487   1418.32153     745.8668     454.0487
   1418.30627     746.7938     454.8780   1418.30627     746.7938     454.8780
   1418.29102     747.4803     456.5276   1418.29102     747.4803     456.5276
   1418.27576     748.8776     456.8872   1418.27576     748.8776     456.8872
   1418.26050     750.0713     458.0381   1418.26050     750.0713     458.0381
   1418.24524     749.7775     458.6213   1418.24524     749.7775     458.6213
   1418.22998     751.8972     459.1801   1418.22998     751.8972     459.1801
   1418.21472     752.5499     460.8365   1418.21472     752.5499     460.8365
   1418.19946     751.8662     460.6561   1418.19946     751.8662     460.6561
   1418.18420     753.8211     461.8141   1418.18420     753.8211     461.8141
   1418.16895     753.9934     462.6838   1418.16895     753.9934     462.6838
   1418.15369     754.6369     463.0710   1418.15369     754.6369     463.0710
   1418.13843     755.2462     465.0156   1418.13843     755.2462     465.0156
   1418.12317     758.0649     465.3432   1418.12317     758.0649     465.3432
   1418.10791     758.4130     466.6077   1418.10791     758.4130     466.6077
   1418.09265     758.9514     467.7231   1418.09265     758.9514     467.7231
   1418.07739     759.3795     469.1230   1418.07739     759.3795     469.1230
   1418.06213     761.0939     469.8241   1418.06213     761.0939     469.8241
   1418.04688     761.7180     470.2951   1418.04688     761.7180     470.2951
   1418.03162     762.3058     470.5435   1418.03162     762.3058     470.5435
   1418.01636     763.5895     472.4809   1418.01636     763.5895     472.4809
   1418.00110     763.5106     473.3198   1418.00110     763.5106     473.3198
   1417.98584     765.2808     474.9855   1417.98584     765.2808     474.9855
   1417.97058     766.5383     474.8769   1417.97058     766.5383     474.8769
   1417.95532     766.5596     476.1531   1417.95532     766.5596     476.1531
   1417.94006     768.7726     477.5857   1417.94006     768.7726     477.5857
   1417.92480     768.4646     478.3686   1417.92480     768.4646     478.3686
   1417.90955     770.0392     479.6783   1417.90955     770.0392     479.6783
   1417.89429     769.4322     480.0617   1417.89429     769.4322     480.0617
   1417.87903     772.3471     481.3239   1417.87903     772.3471     481.3239
   1417.86377     773.1351     482.3939   1417.86377     773.1351     482.3939
   1417.84851     773.3372     483.7885   1417.84851     773.3372     483.7885
   1417.83325     777.1115     483.8568   1417.83325     777.1115     483.8568
   1417.81799     776.7983     484.9453   1417.81799     776.7983     484.9453
   1417.80273     777.5425     486.3442   1417.80273     777.5425     486.3442
   1417.78748     777.3203     487.3048   1417.78748     777.3203     487.3048
   1417.77222     778.3471     488.2797   1417.77222     778.3471     488.2797
   1417.75696     779.6937     489.2628   1417.75696     779.6937     489.2628
   1417.74170     780.1189     490.3064   1417.74170     780.1189     490.3064
   1417.72644     781.1542     491.8143   1417.72644     781.1542     491.8143
   1417.71118     782.4496     492.3089   1417.71118     782.4496     492.3089
   1417.69592     783.0922     493.7000   1417.69592     783.0922     493.7000
   1417.68066     784.0889     494.1424   1417.68066     784.0889     494.1424
   1417.66541     785.0680     495.7165   1417.66541     785.0680     495.7165
   1417.65015     786.7274     496.5240   1417.65015     786.7274     496.5240
   1417.63489     786.6885     497.4720   1417.63489     786.6885     497.4720
   1417.61963     787.9476     498.4808   1417.61963     787.9476     498.4808
   1417.60437     789.4318     500.3052   1417.60437     789.4318     500.3052
   1417.58911     790.7596     501.6714   1417.58911     790.7596     501.6714
   1417.57385     792.2605     501.8954   1417.57385     792.2605     501.8954
   1417.55859     792.1924     502.9408   1417.55859     792.1924     502.9408
   1417.54333     792.5954     504.8123   1417.54333     792.5954     504.8123
   1417.52808     793.8800     504.8264   1417.52808     793.8800     504.8264
   1417.51282     794.9166     506.5197   1417.51282     794.9166     506.5197
   1417.49756     795.8134     507.4156   1417.49756     795.8134     507.4156
   1417.48230     796.6840     508.6223   1417.48230     796.6840     508.6223
   1417.46704     797.0277     508.9762   1417.46704     797.0277     508.9762
   1417.45178     798.2029     510.5452   1417.45178     798.2029     510.5452
   1417.43652     800.3257     511.3507   1417.43652     800.3257     511.3507
   1417.42126     799.9153     513.3175   1417.42126     799.9153     513.3175
   1417.40601     800.0717     514.3232   1417.40601     800.0717     514.3232
   1417.39075     801.3138     515.0300   1417.39075     801.3138     515.0300
   1417.37549     802.6371     515.3612   1417.37549     802.6371     515.3612
   1417.36023     803.7930     516.3792   1417.36023     803.7930     516.3792
   1417.34497     806.3741     518.0560   1417.34497     806.3741     518.0560
   1417.32971     805.5053     519.1390   1417.32971     805.5053     519.1390
   1417.31445     806.5286     519.6501   1417.31445     806.5286     519.6501
   1417.29919     808.6382     521.9808   1417.29919     808.6382     521.9808
   1417.28394     808.6368     522.3138   1417.28394     808.6368     522.3138
   1417.26868     808.5022     523.0707   1417.26868     808.5022     523.0707
   1417.25342     809.3849     524.1614   1417.25342     809.3849     524.1614
   1417.23816     811.3316     524.8409   1417.23816     811.3316     524.8409
   1417.22290     812.0537     525.2296   1417.22290     812.0537     525.2296
   1417.20764     811.9791     525.5460   1417.20764     811.9791     525.5460
   1417.19238     813.8937     527.1790   1417.19238     813.8937     527.1790
   1417.17712     816.2105     528.0117   1417.17712     816.2105     528.0117
   1417.16187     815.3224     529.2130   1417.16187     815.3224     529.2130
   1417.14661     817.0471     530.3978   1417.14661     817.0471     530.3978
   1417.13135     817.3499     530.8707   1417.13135     817.3499     530.8707
   1417.11609     818.2028     531.7831   1417.11609     818.2028     531.7831
   1417.10083     818.7623     533.2628   1417.10083     818.7623     533.2628
   1417.08557     820.4490     533.8040   1417.08557     820.4490     533.8040
   1417.07031     820.4151     534.2239   1417.07031     820.4151     534.2239
   1417.05505     821.7994     535.0569   1417.05505     821.7994     535.0569
   1417.03979     823.0504     535.7968   1417.03979     823.0504     535.7968
   1417.02454     822.8277     537.1894   1417.02454     822.8277     537.1894
   1417.00928     823.1649     537.3924   1417.00928     823.1649     537.3924
   1416.99402     823.3821     538.4225   1416.99402     823.3821     538.4225
   1416.97876     825.5995     540.1628   1416.97876     825.5995     540.1628
   1416.96350     824.9235     539.9196   1416.96350     824.9235     539.9196
   1416.94824     825.6741     540.9847   1416.94824     825.6741     540.9847
   1416.93298     824.6712     541.2167   1416.93298     824.6712     541.2167
   1416.91772     826.6627     542.1346   1416.91772     826.6627     542.1346
   1416.90247     827.1200     542.4772   1416.90247     827.1200     542.4772
   1416.88721     827.9418     542.4940   1416.88721     827.9418     542.4940
   1416.87195     828.0047     544.0897   1416.87195     828.0047     544.0897
   1416.85669     829.7913     545.0211   1416.85669     829.7913     545.0211
   1416.84143     831.2288     545.7145   1416.84143     831.2288     545.7145
   1416.82617     829.9909     545.1849   1416.82617     829.9909     545.1849
   1416.81091     830.7188     546.5387   1416.81091     830.7188     546.5387
   1416.79565     831.5050     546.9957   1416.79565     831.5050     546.9957
   1416.78040     831.2003     546.8194   1416.78040     831.2003     546.8194
   1416.76514     831.2773     547.9536   1416.76514     831.2773     547.9536
   1416.74988     831.9708     547.4404   1416.74988     831.9708     547.4404
   1416.73462     832.1784     549.1097   1416.73462     832.1784     549.1097
   1416.71936     832.8834     547.7257   1416.71936     832.8834     547.7257
   1416.70410     834.1525     548.7624   1416.70410     834.1525     548.7624
   1416.68884     833.3907     550.0092   1416.68884     833.3907     550.0092
   1416.67358     835.8530     549.0060   1416.67358     835.8530     549.0060
   1416.65833     835.3821     549.0126   1416.65833     835.3821     549.0126
   1416.64307     835.7424     550.4022   1416.64307     835.7424     550.4022
   1416.62781     835.3535     549.7428   1416.62781     835.3535     549.7428
   1416.61255     837.1891     549.7361   1416.61255     837.1891     549.7361
   1416.59729     836.0588     550.4121   1416.59729     836.0588     550.4121
   1416.58203     836.6373     551.1347   1416.58203     836.6373     551.1347
   1416.56677     836.6484     550.7429   1416.56677     836.6484     550.7429
   1416.55151     837.5156     549.9888   1416.55151     837.5156     549.9888
   1416.53625     836.6166     551.3054   1416.53625     836.6166     551.3054
   1416.52100     836.1926     549.9553   1416.52100     836.1926     549.9553
   1416.50574     836.0689     550.8738   1416.50574     836.0689     550.8738
   1416.49048     837.4386     551.4911   1416.49048     837.4386     551.4911
   1416.47522     836.7455     550.3874   1416.47522     836.7455     550.3874
   1416.45996     838.0300     550.6432   1416.45996     838.0300     550.6432
   1416.44470     838.2986     551.2677   1416.44470     838.2986     551.2677
   1416.42944     838.3999     551.2379   1416.42944     838.3999     551.2379
   1416.41418     838.1116     550.2507   1416.41418     838.1116     550.2507
   1416.39893     838.4780     549.9999   1416.39893     838.4780     549.9999
   1416.38367     837.3765     550.0294   1416.38367     837.3765     550.0294
   1416.36841     837.1931     549.8419   1416.36841     837.1931     549.8419
   1416.35315     839.1396     550.0024   1416.35315     839.1396     550.0024
   1416.33789     837.4136     548.6093   1416.33789     837.4136     548.6093
   1416.32263     838.0192     549.3406   1416.32263     838.0192     549.3406
   1416.30737     837.3826     548.0154   1416.30737     837.3826     548.0154
   1416.29211     837.1122     548.6001   1416.29211     837.1122     548.6001
   1416.27686     838.1077     549.7624   1416.27686     838.1077     549.7624
   1416.26160     837.2239     548.5888   1416.26160     837.2239     548.5888
   1416.24634     838.0893     547.0604   1416.24634     838.0893     547.0604
   1416.23108     835.7946     548.0334   1416.23108     835.7946     548.0334
   1416.21582     837.2188     547.9733   1416.21582     837.2188     547.9733
   1416.20056     836.0891     546.3330   1416.20056     836.0891     546.3330
   1416.18530     836.1546     545.4412   1416.18530     836.1546     545.4412
   1416.17004     836.2341     545.4456   1416.17004     836.2341     545.4456
   1416.15479     836.2194     545.6441   1416.15479     836.2194     545.6441
   1416.13953     835.2689     544.5692   1416.13953     835.2689     544.5692
   1416.12427     834.0519     542.9453   1416.12427     834.0519     542.9453
   1416.10901     835.1566     543.8908   1416.10901     835.1566     543.8908
   1416.09375     833.0728     543.0961   1416.09375     833.0728     543.0961
   1416.07849     833.1009     543.2242   1416.07849     833.1009     543.2242
   1416.06323     834.2035     542.5226   1416.06323     834.2035     542.5226
   1416.04797     834.3132     541.9042   1416.04797     834.3132     541.9042
   1416.03271     833.3787     541.7154   1416.03271     833.3787     541.7154
   1416.01746     833.4182     540.6090   1416.01746     833.4182     540.6090
   1416.00220     832.8458     539.7589   1416.00220     832.8458     539.7589
   1415.98694     831.4502     539.1503   1415.98694     831.4502     539.1503
   1415.97168     831.1126     538.2426   1415.97168     831.1126     538.2426
   1415.95642     830.9799     537.3799   1415.95642     830.9799     537.3799
   1415.94116     830.3506     537.5657   1415.94116     830.3506     537.5657
   1415.92590     829.6725     537.0395   1415.92590     829.6725     537.0395
   1415.91064     828.8800     536.1529   1415.91064     828.8800     536.1529
   1415.89539     829.6945     535.3463   1415.89539     829.6945     535.3463
   1415.88013     828.4206     535.1229   1415.88013     828.4206     535.1229
   1415.86487     827.3703     534.5070   1415.86487     827.3703     534.5070
   1415.84961     826.1577     533.2427   1415.84961     826.1577     533.2427
   1415.83435     826.7930     532.7062   1415.83435     826.7930     532.7062
   1415.81909     825.7050     531.9421   1415.81909     825.7050     531.9421
   1415.80383     825.9465     532.3661   1415.80383     825.9465     532.3661
   1415.78857     825.4630     530.7006   1415.78857     825.4630     530.7006
   1415.77332     824.8039     530.3206   1415.77332     824.8039     530.3206
   1415.75806     824.7850     529.1757   1415.75806     824.7850     529.1757
   1415.74280     824.0784     528.1787   1415.74280     824.0784     528.1787
   1415.72754     821.2924     527.9902   1415.72754     821.2924     527.9902
   1415.71228     820.4552     527.2114   1415.71228     820.4552     527.2114
   1415.69702     821.2453     527.3154   1415.69702     821.2453     527.3154
   1415.68176     820.7079     526.5673   1415.68176     820.7079     526.5673
   1415.66650     819.7132     524.5596   1415.66650     819.7132     524.5596
   1415.65125     819.0956     524.4802   1415.65125     819.0956     524.4802
   1415.63599     819.0853     522.7416   1415.63599     819.0853     522.7416
   1415.62073     817.4706     522.8203   1415.62073     817.4706     522.8203
   1415.60547     816.0518     522.3947   1415.60547     816.0518     522.3947
   1415.59021     815.2755     520.9554   1415.59021     815.2755     520.9554
   1415.57495     815.5697     520.6367   1415.57495     815.5697     520.6367
   1415.55969     813.7570     519.3390   1415.55969     813.7570     519.3390
   1415.54443     812.6915     518.0109   1415.54443     812.6915     518.0109
   1415.52917     811.8875     517.7909   1415.52917     811.8875     517.7909
   1415.51392     812.0380     517.0735   1415.51392     812.0380     517.0735
   1415.49866     811.6996     515.6159   1415.49866     811.6996     515.6159
   1415.48340     808.7435     514.9615   1415.48340     808.7435     514.9615
   1415.46814     808.4493     514.5363   1415.46814     808.4493     514.5363
   1415.45288     807.1373     513.3251   1415.45288     807.1373     513.3251
   1415.43762     807.4728     512.6169   1415.43762     807.4728     512.6169
   1415.42236     805.7579     512.1364   1415.42236     805.7579     512.1364
   1415.40710     804.0070     510.5410   1415.40710     804.0070     510.5410
   1415.39185     803.8279     510.0335   1415.39185     803.8279     510.0335
   1415.37659     802.3102     509.9069   1415.37659     802.3102     509.9069
   1415.36133     801.8940     507.9406   1415.36133     801.8940     507.9406
   1415.34607     801.3814     507.2574   1415.34607     801.3814     507.2574
   1415.33081     798.6417     506.8973   1415.33081     798.6417     506.8973
   1415.31555     798.6284     504.7422   1415.31555     798.6284     504.7422
   1415.30029     797.2073     504.1328   1415.30029     797.2073     504.1328
   1415.28503     796.8273     503.6581   1415.28503     796.8273     503.6581
   1415.26978     794.6897     502.9729   1415.26978     794.6897     502.9729
   1415.25452     793.4196     502.4126   1415.25452     793.4196     502.4126
   1415.23926     792.5257     501.1241   1415.23926     792.5257     501.1241
   1415.22400     789.0594     499.6743   1415.22400     789.0594     499.6743
   1415.20874     788.1596     498.5366   1415.20874     788.1596     498.5366
   1415.19348     788.1092     497.7278   1415.19348     788.1092     497.7278
   1415.17822     786.1166     496.2937   1415.17822     786.1166     496.2937
   1415.16296     784.5919     496.4858   1415.16296     784.5919     496.4858
   1415.14771     784.1300     495.0345   1415.14771     784.1300     495.0345
   1415.13245     782.8716     493.5048   1415.13245     782.8716     493.5048
   1415.11719     781.3174     492.8871   1415.11719     781.3174     492.8871
   1415.10193     778.7764     491.8211   1415.10193     778.7764     491.8211
   1415.08667     776.8210     490.7325   1415.08667     776.8210     490.7325
   1415.07141     777.0543     489.4208   1415.07141     777.0543     489.4208
   1415.05615     774.2041     487.8195   1415.05615     774.2041     487.8195
   1415.04089     773.6797     487.2861   1415.04089     773.6797     487.2861
   1415.02563     771.5699     486.2749   1415.02563     771.5699     486.2749
   1415.01038     770.5521     485.5799   1415.01038     770.5521     485.5799
   1414.99512     769.1213     484.0361   1414.99512     769.1213     484.0361
   1414.97986     766.5853     483.4262   1414.97986     766.5853     483.4262
   1414.96460     766.0804     482.3951   1414.96460     766.0804     482.3951
   1414.94934     764.2413     481.0606   1414.94934     764.2413     481.0606
   1414.93408     763.0845     479.6936   1414.93408     763.0845     479.6936
   1414.91882     759.9380     478.2612   1414.91882     759.9380     478.2612
   1414.90356     757.9000     477.1961   1414.90356     757.9000     477.1961
   1414.88831     756.6639     475.4547   1414.88831     756.6639     475.4547
   1414.87305     754.1577     475.1516   1414.87305     754.1577     475.1516
   1414.85779     755.0731     473.9652   1414.85779     755.0731     473.9652
   1414.84253     752.3835     473.4029   1414.84253     752.3835     473.4029
   1414.82727     748.9352     471.5581   1414.82727     748.9352     471.5581
   1414.81201     747.1059     470.1560   1414.81201     747.1059     470.1560
   1414.79675     746.0856     468.5485   1414.79675     746.0856     468.5485
   1414.78149     742.7818     468.2623   1414.78149     742.7818     468.2623
   1414.76624     742.1304     466.9627   1414.76624     742.1304     466.9627
   1414.75098     739.1293     465.4666   1414.75098     739.1293     465.4666
   1414.73572     737.9671     463.8602   1414.73572     737.9671     463.8602
   1414.72046     736.1524     462.6405   1414.72046     736.1524     462.6405
   1414.70520     733.9377     461.2224   1414.70520     733.9377     461.2224
   1414.68994     731.8153     460.3022   1414.68994     731.8153     460.3022
   1414.67468     729.5125     459.2869   1414.67468     729.5125     459.2869
   1414.65942     727.1580     457.4034   1414.65942     727.1580     457.4034
   1414.64417     723.7064     456.7413   1414.64417     723.7064     456.7413
   1414.62891     721.9624     455.6283   1414.62891     721.9624     455.6283
   1414.61365     720.7826     453.9451   1414.61365     720.7826     453.9451
   1414.59839     717.3516     452.4001   1414.59839     717.3516     452.4001
   1414.58313     716.0052     451.0047   1414.58313     716.0052     451.0047
   1414.56787     715.1694     448.9937   1414.56787     715.1694     448.9937
   1414.55261     712.7236     448.9223   1414.55261     712.7236     448.9223
   1414.53735     709.4288     446.4140   1414.53735     709.4288     446.4140
   1414.52209     706.9509     444.5890   1414.52209     706.9509     444.5890
   1414.50684     703.7468     443.8203   1414.50684     703.7468     443.8203
   1414.49158     701.8142     442.8802   1414.49158     701.8142     442.8802
   1414.47632     699.6179     441.2361   1414.47632     699.6179     441.2361
   1414.46106     696.4088     438.4793   1414.46106     696.4088     438.4793
   1414.44580     694.8638     438.4896   1414.44580     694.8638     438.4896
   1414.43054     692.3698     436.9934   1414.43054     692.3698     436.9934
   1414.41528     690.0187     435.4348   1414.41528     690.0187     435.4348
   1414.40002     686.5138     433.9307   1414.40002     686.5138     433.9307
   1414.38477     684.5927     431.7579   1414.38477     684.5927     431.7579
   1414.36951     681.7355     430.4043   1414.36951     681.7355     430.4043
   1414.35425     678.4664     429.4013   1414.35425     678.4664     429.4013
   1414.33899     676.4803     427.7265   1414.33899     676.4803     427.7265
   1414.32373     674.4744     426.1244   1414.32373     674.4744     426.1244
   1414.30847     672.1255     424.9876   1414.30847     672.1255     424.9876
   1414.29321     668.6674     423.0974   1414.29321     668.6674     423.0974
   1414.27795     668.6624     421.5315   1414.27795     668.6624     421.5315
   1414.26270     663.4802     419.7530   1414.26270     663.4802     419.7530
   1414.24744     660.3180     418.3362   1414.24744     660.3180     418.3362
   1414.23218     657.5247     415.7677   1414.23218     657.5247     415.7677
   1414.21692     655.5179     415.2780   1414.21692     655.5179     415.2780
   1414.20166     652.1009     413.6738   1414.20166     652.1009     413.6738
   1414.18640     650.0906     411.8814   1414.18640     650.0906     411.8814
   1414.17114     646.5619     410.9170   1414.17114     646.5619     410.9170
   1414.15588     644.3761     408.8303   1414.15588     644.3761     408.8303
   1414.14062     640.7693     406.9892   1414.14062     640.7693     406.9892
   1414.12537     638.0139     405.8077   1414.12537     638.0139     405.8077
   1414.11011     635.5928     404.0368   1414.11011     635.5928     404.0368
   1414.09485     633.9673     401.7203   1414.09485     633.9673     401.7203
   1414.07959     628.9399     400.9542   1414.07959     628.9399     400.9542
   1414.06433     626.1688     399.2139   1414.06433     626.1688     399.2139
   1414.04907     623.9471     397.3627   1414.04907     623.9471     397.3627
   1414.03381     620.9495     395.7569   1414.03381     620.9495     395.7569
   1414.01855     618.7692     393.9789   1414.01855     618.7692     393.9789
   1414.00330     641.8071     401.8692   1414.00330     641.8071     401.8692
   1413.98804     613.4300     391.8549   1413.98804     613.4300     391.8549
   1413.97278     609.2736     389.0227   1413.97278     609.2736     389.0227
   1413.95752     606.7706     386.9388   1413.95752     606.7706     386.9388
   1413.94226     603.4611     385.5025   1413.94226     603.4611     385.5025
   1413.92700     600.0776     383.7826   1413.92700     600.0776     383.7826
   1413.91174     597.2448     381.6308   1413.91174     597.2448     381.6308
   1413.89648     594.0154     380.1600   1413.89648     594.0154     380.1600
   1413.88123     590.7708     379.0496   1413.88123     590.7708     379.0496
   1413.86597     587.3059     377.7352   1413.86597     587.3059     377.7352
   1413.85071     584.1809     375.1081   1413.85071     584.1809     375.1081
   1413.83545     581.5696     373.8973   1413.83545     581.5696     373.8973
   1413.82019     576.9455     371.9923   1413.82019     576.9455     371.9923
   1413.80493     575.0266     370.6483   1413.80493     575.0266     370.6483
   1413.78967     572.6362     368.5121   1413.78967     572.6362     368.5121
   1413.77441     569.5124     367.4680   1413.77441     569.5124     367.4680
   1413.75916     566.3404     364.4569   1413.75916     566.3404     364.4569
   1413.74390     562.8077     363.3177   1413.74390     562.8077     363.3177
   1413.72864     560.3387     361.5153   1413.72864     560.3387     361.5153
   1413.71338     556.8387     359.6683   1413.71338     556.8387     359.6683
   1413.69812     553.4991     357.9944   1413.69812     553.4991     357.9944
   1413.68286     549.4139     357.1067   1413.68286     549.4139     357.1067
   1413.66760     547.4474     354.9897   1413.66760     547.4474     354.9897
   1413.65234     544.3340     352.9042   1413.65234     544.3340     352.9042
   1413.63708     541.4304     351.7585   1413.63708     541.4304     351.7585
   1413.62183     537.7646     348.8429   1413.62183     537.7646     348.8429
   1413.60657     535.0200     348.2077   1413.60657     535.0200     348.2077
   1413.59131     531.9274     345.8025   1413.59131     531.9274     345.8025
   1413.57605     529.3240     344.0344   1413.57605     529.3240     344.0344
   1413.56079     526.6547     342.9365   1413.56079     526.6547     342.9365
   1413.54553     522.9190     340.9783   1413.54553     522.9190     340.9783
   1413.53027     519.7712     339.5814   1413.53027     519.7712     339.5814
   1413.51501     516.8831     337.9029   1413.51501     516.8831     337.9029
   1413.49976     513.1006     335.9427   1413.49976     513.1006     335.9427
   1413.48450     509.8410     334.8832   1413.48450     509.8410     334.8832
   1413.46924     507.0907     333.3683   1413.46924     507.0907     333.3683
   1413.45398     505.3556     330.9883   1413.45398     505.3556     330.9883
   1413.43872     501.9414     329.6500   1413.43872     501.9414     329.6500
   1413.42346     499.3281     328.4658   1413.42346     499.3281     328.4658
   1413.40820     495.6223     326.7977   1413.40820     495.6223     326.7977
   1413.39294     492.9993     324.9266   1413.39294     492.9993     324.9266
   1413.37769     489.7909     322.6473   1413.37769     489.7909     322.6473
   1413.36243     487.5594     322.0898   1413.36243     487.5594     322.0898
   1413.34717     483.6094     319.5514   1413.34717     483.6094     319.5514
   1413.33191     481.1176     319.0477   1413.33191     481.1176     319.0477
   1413.31665     478.7091     316.9490   1413.31665     478.7091     316.9490
   1413.30139     476.0099     315.5892   1413.30139     476.0099     315.5892
   1413.28613     472.8337     314.2747   1413.28613     472.8337     314.2747
   1413.27087     469.6027     312.6201   1413.27087     469.6027     312.6201
   1413.25562     468.0437     312.0257   1413.25562     468.0437     312.0257
   1413.24036     464.7450     310.0781   1413.24036     464.7450     310.0781
   1413.22510     461.1298     308.5614   1413.22510     461.1298     308.5614
   1413.20984     459.4629     306.4749   1413.20984     459.4629     306.4749
   1413.19458     456.6385     305.4528   1413.19458     456.6385     305.4528
   1413.17932     454.4532     303.7287   1413.17932     454.4532     303.7287
   1413.16406     451.7548     303.0559   1413.16406     451.7548     303.0559
   1413.14880     449.1880     301.5415   1413.14880     449.1880     301.5415
   1413.13354     446.7639     300.0515   1413.13354     446.7639     300.0515
   1413.11829     444.9177     298.6821   1413.11829     444.9177     298.6821
   1413.10303     441.4847     297.3916   1413.10303     441.4847     297.3916
   1413.08777     439.2575     295.6493   1413.08777     439.2575     295.6493
   1413.07251     437.4825     294.9076   1413.07251     437.4825     294.9076
   1413.05725     434.2691     293.9295   1413.05725     434.2691     293.9295
   1413.04199     431.8439     292.5571   1413.04199     431.8439     292.5571
   1413.02673     428.8875     291.4973   1413.02673     428.8875     291.4973
   1413.01147     427.4936     289.9536   1413.01147     427.4936     289.9536
   1412.99622     425.3246     289.5047   1412.99622     425.3246     289.5047
   1412.98096     423.3853     287.8239   1412.98096     423.3853     287.8239
   1412.96570     420.2415     286.8157   1412.96570     420.2415     286.8157
   1412.95044     419.0548     286.0679   1412.95044     419.0548     286.0679
   1412.93518     417.1592     284.7796   1412.93518     417.1592     284.7796
   1412.91992     415.2637     283.5199   1412.91992     415.2637     283.5199
   1412.90466     413.3315     283.0091   1412.90466     413.3315     283.0091
   1412.88940     411.4487     282.3804   1412.88940     411.4487     282.3804
   1412.87415     409.5627     280.9031   1412.87415     409.5627     280.9031
   1412.85889     407.3734     280.8990   1412.85889     407.3734     280.8990
   1412.84363     405.9900     279.4530   1412.84363     405.9900     279.4530
   1412.82837     403.6095     278.8020   1412.82837     403.6095     278.8020
   1412.81311     402.2153     277.8492   1412.81311     402.2153     277.8492
   1412.79785     401.2094     277.0683   1412.79785     401.2094     277.0683
   1412.78259     399.3253     276.0825   1412.78259     399.3253     276.0825
   1412.76733     397.5208     275.6289   1412.76733     397.5208     275.6289
   1412.75208     395.9968     274.9909   1412.75208     395.9968     274.9909
   1412.73682     395.1945     274.0148   1412.73682     395.1945     274.0148
   1412.72156     393.0395     273.7027   1412.72156     393.0395     273.7027
   1412.70630     391.8428     273.6298   1412.70630     391.8428     273.6298
   1412.69104     390.2848     272.5649   1412.69104     390.2848     272.5649
   1412.67578     390.1964     271.8637   1412.67578     390.1964     271.8637
   1412.66052     388.2031     272.1522   1412.66052     388.2031     272.1522
   1412.64526     387.2165     271.3600   1412.64526     387.2165     271.3600
   1412.63000     386.0616     270.6499   1412.63000     386.0616     270.6499
   1412.61475     384.3934     270.1798   1412.61475     384.3934     270.1798
   1412.59949     383.6122     270.2210   1412.59949     383.6122     270.2210
   1412.58423     382.8982     269.4733   1412.58423     382.8982     269.4733
   1412.56897     381.7895     269.1958   1412.56897     381.7895     269.1958
   1412.55371     381.3631     269.4276   1412.55371     381.3631     269.4276
   1412.53845     380.3342     269.6247   1412.53845     380.3342     269.6247
   1412.52319     379.9909     269.4577   1412.52319     379.9909     269.4577
   1412.50793     379.0017     269.1833   1412.50793     379.0017     269.1833
   1412.49268     378.1444     268.7468   1412.49268     378.1444     268.7468
   1412.47742     378.3599     268.6369   1412.47742     378.3599     268.6369
   1412.46216     377.7956     268.8340   1412.46216     377.7956     268.8340
   1412.44690     377.0099     268.7373   1412.44690     377.0099     268.7373
   1412.43164     377.3395     269.7699   1412.43164     377.3395     269.7699
   1412.41638     376.7375     269.4825   1412.41638     376.7375     269.4825
   1412.40112     376.4863     269.4951   1412.40112     376.4863     269.4951
   1412.38586     375.8621     270.1379   1412.38586     375.8621     270.1379
   1412.37061     376.1924     270.1379   1412.37061     376.1924     270.1379
   1412.35535     376.3672     270.3078   1412.35535     376.3672     270.3078
   1412.34009     375.9776     270.3390   1412.34009     375.9776     270.3390
   1412.32483     376.0728     271.0214   1412.32483     376.0728     271.0214
   1412.30957     376.1455     271.3253   1412.30957     376.1455     271.3253
   1412.29431     377.0240     271.4968   1412.29431     377.0240     271.4968
   1412.27905     376.6199     272.2062   1412.27905     376.6199     272.2062
   1412.26379     376.8358     272.3718   1412.26379     376.8358     272.3718
   1412.24854     377.4195     273.0504   1412.24854     377.4195     273.0504
   1412.23328     378.1176     273.7615   1412.23328     378.1176     273.7615
   1412.21802     378.0830     274.2980   1412.21802     378.0830     274.2980
   1412.20276     377.9677     275.2516   1412.20276     377.9677     275.2516