#     FILENAME=!Skynet_57528_lach-hhg-147_20487_20971.cyb.fits
#     BASENAME=Skynet_57528_lach-hhg-147_20487_20971
#     SRC_NAME=lach-hhg-147
#     OBSERVER=hhgmadison16_9500
#     DATE_OBS=2016-05-20T17:31:36.000
#        OBSID=20487
#      SCANNUM=20971
#          MJD=57528.7313
#          UTC=63185
#     SCANTYPE=track
#     DATAMODE=HIRES
#     TUNEFREQ=1420.0000
# Actual_FREQ1=1420.0000
# Actual_FREQ2=1420.0000
#    LO1Tuning=6870.000
#     RFFILTER=1355_1435
#        OBSBW=-15.6250
#        NCHAN=1024 
#        FOCUS=37.0489
#           RA=03:49:03.89
#          DEC=54:21:07.35
#      RA(hrs)=3.817700
#     DEC(deg)=54.352000
#    AZIM(deg)=350.555
#    ELEV(deg)=73.692
#     IFattens=10.00, 9.00
#      WARNING=None
#    TCAL_XL1=7.9635
#    TCAL_YR1=9.1340
#    TCAL_XL2=7.9635
#    TCAL_YR2=9.1340
#     TRX_XL1=11.7060
#     TRX_YR1=11.7060
#     TRX_XL2=11.7060
#     TRX_YR2=11.7060
#        TAVE=1.0000
#Freq1(MHz)          XL1          YR1  Freq2(MHz)          XL2          YR2 

   1427.81250     376.4614     329.1957   1427.81250     376.4614     329.1957
   1427.79724     377.2549     331.0787   1427.79724     377.2549     331.0787
   1427.78198     378.2828     332.0256   1427.78198     378.2828     332.0256
   1427.76672     379.0798     333.8299   1427.76672     379.0798     333.8299
   1427.75146     379.8449     335.0764   1427.75146     379.8449     335.0764
   1427.73621     380.8706     336.2351   1427.73621     380.8706     336.2351
   1427.72095     382.0548     337.7064   1427.72095     382.0548     337.7064
   1427.70569     382.8614     339.3892   1427.70569     382.8614     339.3892
   1427.69043     384.3501     340.2466   1427.69043     384.3501     340.2466
   1427.67517     384.5367     342.1776   1427.67517     384.5367     342.1776
   1427.65991     385.9317     343.2867   1427.65991     385.9317     343.2867
   1427.64465     387.0196     345.4208   1427.64465     387.0196     345.4208
   1427.62939     388.7636     347.0999   1427.62939     388.7636     347.0999
   1427.61414     390.3106     348.8998   1427.61414     390.3106     348.8998
   1427.59888     391.0280     350.3874   1427.59888     391.0280     350.3874
   1427.58362     392.5582     352.0312   1427.58362     392.5582     352.0312
   1427.56836     393.9238     353.6924   1427.56836     393.9238     353.6924
   1427.55310     395.4086     355.1603   1427.55310     395.4086     355.1603
   1427.53784     397.3386     357.0646   1427.53784     397.3386     357.0646
   1427.52258     398.8641     359.1726   1427.52258     398.8641     359.1726
   1427.50732     399.5738     361.2570   1427.50732     399.5738     361.2570
   1427.49207     401.1155     363.1530   1427.49207     401.1155     363.1530
   1427.47681     404.2427     364.8102   1427.47681     404.2427     364.8102
   1427.46155     405.9316     366.6273   1427.46155     405.9316     366.6273
   1427.44629     407.5789     368.6776   1427.44629     407.5789     368.6776
   1427.43103     409.2783     370.7456   1427.43103     409.2783     370.7456
   1427.41577     411.2900     372.3729   1427.41577     411.2900     372.3729
   1427.40051     413.6386     374.7475   1427.40051     413.6386     374.7475
   1427.38525     415.8942     376.1438   1427.38525     415.8942     376.1438
   1427.37000     416.9107     378.2018   1427.37000     416.9107     378.2018
   1427.35474     418.7094     380.0098   1427.35474     418.7094     380.0098
   1427.33948     422.0827     382.9310   1427.33948     422.0827     382.9310
   1427.32422     423.3560     384.6129   1427.32422     423.3560     384.6129
   1427.30896     425.6852     386.0904   1427.30896     425.6852     386.0904
   1427.29370     427.7770     388.5525   1427.29370     427.7770     388.5525
   1427.27844     430.5602     391.1436   1427.27844     430.5602     391.1436
   1427.26318     433.3484     392.9739   1427.26318     433.3484     392.9739
   1427.24792     434.6696     394.8361   1427.24792     434.6696     394.8361
   1427.23267     437.4382     396.7849   1427.23267     437.4382     396.7849
   1427.21741     439.4369     399.0297   1427.21741     439.4369     399.0297
   1427.20215     442.6029     402.1677   1427.20215     442.6029     402.1677
   1427.18689     444.9277     404.0411   1427.18689     444.9277     404.0411
   1427.17163     447.4649     405.9714   1427.17163     447.4649     405.9714
   1427.15637     450.6344     407.5209   1427.15637     450.6344     407.5209
   1427.14111     452.9727     410.4846   1427.14111     452.9727     410.4846
   1427.12585     456.2639     412.6853   1427.12585     456.2639     412.6853
   1427.11060     458.3986     414.7951   1427.11060     458.3986     414.7951
   1427.09534     460.2879     416.3645   1427.09534     460.2879     416.3645
   1427.08008     463.8458     418.8458   1427.08008     463.8458     418.8458
   1427.06482     465.7355     420.8021   1427.06482     465.7355     420.8021
   1427.04956     469.6708     423.6294   1427.04956     469.6708     423.6294
   1427.03430     472.1487     425.2353   1427.03430     472.1487     425.2353
   1427.01904     473.9471     427.7643   1427.01904     473.9471     427.7643
   1427.00378     476.7700     429.8264   1427.00378     476.7700     429.8264
   1426.98853     480.9109     431.7529   1426.98853     480.9109     431.7529
   1426.97327     483.5293     433.9496   1426.97327     483.5293     433.9496
   1426.95801     486.2104     436.0873   1426.95801     486.2104     436.0873
   1426.94275     489.0748     438.3495   1426.94275     489.0748     438.3495
   1426.92749     491.9035     440.2547   1426.92749     491.9035     440.2547
   1426.91223     494.7756     442.5883   1426.91223     494.7756     442.5883
   1426.89697     497.9223     445.0173   1426.89697     497.9223     445.0173
   1426.88171     501.4118     446.2646   1426.88171     501.4118     446.2646
   1426.86646     503.4284     449.0659   1426.86646     503.4284     449.0659
   1426.85120     507.1737     450.9077   1426.85120     507.1737     450.9077
   1426.83594     509.9481     451.6951   1426.83594     509.9481     451.6951
   1426.82068     513.4902     455.1053   1426.82068     513.4902     455.1053
   1426.80542     515.7310     457.0747   1426.80542     515.7310     457.0747
   1426.79016     519.6210     459.2105   1426.79016     519.6210     459.2105
   1426.77490     522.1810     461.5463   1426.77490     522.1810     461.5463
   1426.75964     525.1140     463.6666   1426.75964     525.1140     463.6666
   1426.74438     528.7653     465.8921   1426.74438     528.7653     465.8921
   1426.72913     531.2873     467.3340   1426.72913     531.2873     467.3340
   1426.71387     534.7324     469.4785   1426.71387     534.7324     469.4785
   1426.69861     538.3076     472.1389   1426.69861     538.3076     472.1389
   1426.68335     540.4423     473.7972   1426.68335     540.4423     473.7972
   1426.66809     544.2167     476.9703   1426.66809     544.2167     476.9703
   1426.65283     547.6815     477.4710   1426.65283     547.6815     477.4710
   1426.63757     551.4870     478.7763   1426.63757     551.4870     478.7763
   1426.62231     556.6184     482.0865   1426.62231     556.6184     482.0865
   1426.60706     557.5136     484.0765   1426.60706     557.5136     484.0765
   1426.59180     559.8586     485.2119   1426.59180     559.8586     485.2119
   1426.57654     563.1217     487.3432   1426.57654     563.1217     487.3432
   1426.56128     567.2430     489.0359   1426.56128     567.2430     489.0359
   1426.54602     570.0391     490.5187   1426.54602     570.0391     490.5187
   1426.53076     573.7257     492.2329   1426.53076     573.7257     492.2329
   1426.51550     576.1854     495.0267   1426.51550     576.1854     495.0267
   1426.50024     578.7084     496.5784   1426.50024     578.7084     496.5784
   1426.48499     581.7496     498.7599   1426.48499     581.7496     498.7599
   1426.46973     584.5306     500.0554   1426.46973     584.5306     500.0554
   1426.45447     588.0731     502.4533   1426.45447     588.0731     502.4533
   1426.43921     592.3154     503.4644   1426.43921     592.3154     503.4644
   1426.42395     594.2700     505.4926   1426.42395     594.2700     505.4926
   1426.40869     597.1209     507.6067   1426.40869     597.1209     507.6067
   1426.39343     600.9900     510.0131   1426.39343     600.9900     510.0131
   1426.37817     604.3105     510.7986   1426.37817     604.3105     510.7986
   1426.36292     607.1512     512.6956   1426.36292     607.1512     512.6956
   1426.34766     609.6721     513.5928   1426.34766     609.6721     513.5928
   1426.33240     612.2298     516.0581   1426.33240     612.2298     516.0581
   1426.31714     615.8277     517.7256   1426.31714     615.8277     517.7256
   1426.30188     619.3375     519.3284   1426.30188     619.3375     519.3284
   1426.28662     622.2493     520.9583   1426.28662     622.2493     520.9583
   1426.27136     624.1653     522.7125   1426.27136     624.1653     522.7125
   1426.25610     628.1952     523.8511   1426.25610     628.1952     523.8511
   1426.24084     630.5331     526.1961   1426.24084     630.5331     526.1961
   1426.22559     634.7415     527.1768   1426.22559     634.7415     527.1768
   1426.21033     636.3568     528.9434   1426.21033     636.3568     528.9434
   1426.19507     640.1440     530.3167   1426.19507     640.1440     530.3167
   1426.17981     641.7819     531.2335   1426.17981     641.7819     531.2335
   1426.16455     645.4039     533.5589   1426.16455     645.4039     533.5589
   1426.14929     648.1391     534.5502   1426.14929     648.1391     534.5502
   1426.13403     651.6212     536.7211   1426.13403     651.6212     536.7211
   1426.11877     653.4907     537.9709   1426.11877     653.4907     537.9709
   1426.10352     655.8503     540.0314   1426.10352     655.8503     540.0314
   1426.08826     658.5435     541.4807   1426.08826     658.5435     541.4807
   1426.07300     662.1129     542.8690   1426.07300     662.1129     542.8690
   1426.05774     664.0071     543.9926   1426.05774     664.0071     543.9926
   1426.04248     666.6080     545.2470   1426.04248     666.6080     545.2470
   1426.02722     669.4288     546.6625   1426.02722     669.4288     546.6625
   1426.01196     672.0319     547.7310   1426.01196     672.0319     547.7310
   1425.99670     674.5091     548.7598   1425.99670     674.5091     548.7598
   1425.98145     677.1307     550.3035   1425.98145     677.1307     550.3035
   1425.96619     680.3052     552.3491   1425.96619     680.3052     552.3491
   1425.95093     683.1631     552.8891   1425.95093     683.1631     552.8891
   1425.93567     684.2369     553.9565   1425.93567     684.2369     553.9565
   1425.92041     685.2195     556.6527   1425.92041     685.2195     556.6527
   1425.90515     688.4692     556.5851   1425.90515     688.4692     556.5851
   1425.88989     690.6990     557.8011   1425.88989     690.6990     557.8011
   1425.87463     693.7973     559.4817   1425.87463     693.7973     559.4817
   1425.85938     696.7242     560.2036   1425.85938     696.7242     560.2036
   1425.84412     698.2031     561.9473   1425.84412     698.2031     561.9473
   1425.82886     701.5604     562.8814   1425.82886     701.5604     562.8814
   1425.81360     701.8338     563.4076   1425.81360     701.8338     563.4076
   1425.79834     704.0967     565.0134   1425.79834     704.0967     565.0134
   1425.78308     706.6368     566.0448   1425.78308     706.6368     566.0448
   1425.76782     708.8872     567.0905   1425.76782     708.8872     567.0905
   1425.75256     711.0561     568.6368   1425.75256     711.0561     568.6368
   1425.73730     714.2303     569.0303   1425.73730     714.2303     569.0303
   1425.72205     714.0731     570.7543   1425.72205     714.0731     570.7543
   1425.70679     717.0704     571.0927   1425.70679     717.0704     571.0927
   1425.69153     720.2856     572.3251   1425.69153     720.2856     572.3251
   1425.67627     720.9208     572.9984   1425.67627     720.9208     572.9984
   1425.66101     722.6028     574.5356   1425.66101     722.6028     574.5356
   1425.64575     725.0173     575.5572   1425.64575     725.0173     575.5572
   1425.63049     727.7822     576.2747   1425.63049     727.7822     576.2747
   1425.61523     728.3622     577.8941   1425.61523     728.3622     577.8941
   1425.59998     729.7770     577.9231   1425.59998     729.7770     577.9231
   1425.58472     732.0686     579.8456   1425.58472     732.0686     579.8456
   1425.56946     732.7967     579.8032   1425.56946     732.7967     579.8032
   1425.55420     735.1804     581.3060   1425.55420     735.1804     581.3060
   1425.53894     737.3543     581.2275   1425.53894     737.3543     581.2275
   1425.52368     739.2362     582.5589   1425.52368     739.2362     582.5589
   1425.50842     739.0281     583.5559   1425.50842     739.0281     583.5559
   1425.49316     741.2229     585.1913   1425.49316     741.2229     585.1913
   1425.47791     743.8687     585.5276   1425.47791     743.8687     585.5276
   1425.46265     744.3324     585.0276   1425.46265     744.3324     585.0276
   1425.44739     745.5466     586.3525   1425.44739     745.5466     586.3525
   1425.43213     748.2184     586.6282   1425.43213     748.2184     586.6282
   1425.41687     749.7371     587.9396   1425.41687     749.7371     587.9396
   1425.40161     750.1752     588.9202   1425.40161     750.1752     588.9202
   1425.38635     750.9784     589.6255   1425.38635     750.9784     589.6255
   1425.37109     751.9115     590.8109   1425.37109     751.9115     590.8109
   1425.35583     752.7557     590.4373   1425.35583     752.7557     590.4373
   1425.34058     754.7129     591.8583   1425.34058     754.7129     591.8583
   1425.32532     755.5802     592.4813   1425.32532     755.5802     592.4813
   1425.31006     757.1944     593.5712   1425.31006     757.1944     593.5712
   1425.29480     757.7266     594.3669   1425.29480     757.7266     594.3669
   1425.27954     759.2084     592.9276   1425.27954     759.2084     592.9276
   1425.26428     760.2754     594.9949   1425.26428     760.2754     594.9949
   1425.24902     761.6105     595.7189   1425.24902     761.6105     595.7189
   1425.23376     761.9016     596.1989   1425.23376     761.9016     596.1989
   1425.21851     762.6959     596.3936   1425.21851     762.6959     596.3936
   1425.20325     764.1649     597.0659   1425.20325     764.1649     597.0659
   1425.18799     765.4523     598.1222   1425.18799     765.4523     598.1222
   1425.17273     765.8771     597.7767   1425.17273     765.8771     597.7767
   1425.15747     766.3000     598.9395   1425.15747     766.3000     598.9395
   1425.14221     767.5811     599.2464   1425.14221     767.5811     599.2464
   1425.12695     768.1746     600.1981   1425.12695     768.1746     600.1981
   1425.11169     768.4901     600.3134   1425.11169     768.4901     600.3134
   1425.09644     768.6585     601.9206   1425.09644     768.6585     601.9206
   1425.08118     769.9616     601.6817   1425.08118     769.9616     601.6817
   1425.06592     770.6608     601.7832   1425.06592     770.6608     601.7832
   1425.05066     771.4133     602.1516   1425.05066     771.4133     602.1516
   1425.03540     771.8300     602.9904   1425.03540     771.8300     602.9904
   1425.02014     771.2488     603.2073   1425.02014     771.2488     603.2073
   1425.00488     773.0682     604.1667   1425.00488     773.0682     604.1667
   1424.98962     772.8414     604.8943   1424.98962     772.8414     604.8943
   1424.97437     773.5561     603.6351   1424.97437     773.5561     603.6351
   1424.95911     774.9957     605.2130   1424.95911     774.9957     605.2130
   1424.94385     774.4295     605.1386   1424.94385     774.4295     605.1386
   1424.92859     774.3876     606.3999   1424.92859     774.3876     606.3999
   1424.91333     776.0220     605.7802   1424.91333     776.0220     605.7802
   1424.89807     775.6717     605.8016   1424.89807     775.6717     605.8016
   1424.88281     776.2852     607.3333   1424.88281     776.2852     607.3333
   1424.86755     777.0010     606.6813   1424.86755     777.0010     606.6813
   1424.85229     775.1174     607.5873   1424.85229     775.1174     607.5873
   1424.83704     775.7206     607.7020   1424.83704     775.7206     607.7020
   1424.82178     777.2589     607.1677   1424.82178     777.2589     607.1677
   1424.80652     777.1202     608.5739   1424.80652     777.1202     608.5739
   1424.79126     778.4221     608.4297   1424.79126     778.4221     608.4297
   1424.77600     777.2365     608.0083   1424.77600     777.2365     608.0083
   1424.76074     777.5726     608.8879   1424.76074     777.5726     608.8879
   1424.74548     777.4048     608.7343   1424.74548     777.4048     608.7343
   1424.73022     776.7753     609.5605   1424.73022     776.7753     609.5605
   1424.71497     777.7557     609.9146   1424.71497     777.7557     609.9146
   1424.69971     778.8060     610.4272   1424.69971     778.8060     610.4272
   1424.68445     777.4404     609.2932   1424.68445     777.4404     609.2932
   1424.66919     777.7610     609.6912   1424.66919     777.7610     609.6912
   1424.65393     778.5215     610.4805   1424.65393     778.5215     610.4805
   1424.63867     778.3098     610.1251   1424.63867     778.3098     610.1251
   1424.62341     778.3877     611.2634   1424.62341     778.3877     611.2634
   1424.60815     778.2380     610.1310   1424.60815     778.2380     610.1310
   1424.59290     776.2029     610.6710   1424.59290     776.2029     610.6710
   1424.57764     776.2091     610.8118   1424.57764     776.2091     610.8118
   1424.56238     776.7535     611.5665   1424.56238     776.7535     611.5665
   1424.54712     776.6408     611.1420   1424.54712     776.6408     611.1420
   1424.53186     777.6714     611.9325   1424.53186     777.6714     611.9325
   1424.51660     776.5054     612.2317   1424.51660     776.5054     612.2317
   1424.50134     775.4166     612.7587   1424.50134     775.4166     612.7587
   1424.48608     776.8243     611.9302   1424.48608     776.8243     611.9302
   1424.47083     775.1917     611.0082   1424.47083     775.1917     611.0082
   1424.45557     775.0009     611.5457   1424.45557     775.0009     611.5457
   1424.44031     776.7561     611.1063   1424.44031     776.7561     611.1063
   1424.42505     774.0483     611.0680   1424.42505     774.0483     611.0680
   1424.40979     774.0235     611.8658   1424.40979     774.0235     611.8658
   1424.39453     773.4073     611.4736   1424.39453     773.4073     611.4736
   1424.37927     774.7872     612.4267   1424.37927     774.7872     612.4267
   1424.36401     773.4003     611.7062   1424.36401     773.4003     611.7062
   1424.34875     773.3497     611.9321   1424.34875     773.3497     611.9321
   1424.33350     772.2249     612.1928   1424.33350     772.2249     612.1928
   1424.31824     772.3558     611.6705   1424.31824     772.3558     611.6705
   1424.30298     772.0518     611.7730   1424.30298     772.0518     611.7730
   1424.28772     771.4377     612.3097   1424.28772     771.4377     612.3097
   1424.27246     770.7164     611.2135   1424.27246     770.7164     611.2135
   1424.25720     769.8552     612.1843   1424.25720     769.8552     612.1843
   1424.24194     769.2336     612.0184   1424.24194     769.2336     612.0184
   1424.22668     768.4550     612.1044   1424.22668     768.4550     612.1044
   1424.21143     768.4105     612.6952   1424.21143     768.4105     612.6952
   1424.19617     768.8182     611.3954   1424.19617     768.8182     611.3954
   1424.18091     768.3090     611.2820   1424.18091     768.3090     611.2820
   1424.16565     769.0522     611.7527   1424.16565     769.0522     611.7527
   1424.15039     767.7515     611.4573   1424.15039     767.7515     611.4573
   1424.13513     768.6448     611.0820   1424.13513     768.6448     611.0820
   1424.11987     766.1909     611.3136   1424.11987     766.1909     611.3136
   1424.10461     765.9688     610.5434   1424.10461     765.9688     610.5434
   1424.08936     767.0015     610.3201   1424.08936     767.0015     610.3201
   1424.07410     764.7954     611.4477   1424.07410     764.7954     611.4477
   1424.05884     764.4258     611.2219   1424.05884     764.4258     611.2219
   1424.04358     764.1776     610.4677   1424.04358     764.1776     610.4677
   1424.02832     762.8380     610.1009   1424.02832     762.8380     610.1009
   1424.01306     762.7991     610.7031   1424.01306     762.7991     610.7031
   1423.99780     762.2189     609.6174   1423.99780     762.2189     609.6174
   1423.98254     761.6100     609.2361   1423.98254     761.6100     609.2361
   1423.96729     761.1540     610.3416   1423.96729     761.1540     610.3416
   1423.95203     761.4391     609.0729   1423.95203     761.4391     609.0729
   1423.93677     760.6567     608.9194   1423.93677     760.6567     608.9194
   1423.92151     759.0171     609.3314   1423.92151     759.0171     609.3314
   1423.90625     761.2082     608.9828   1423.90625     761.2082     608.9828
   1423.89099     759.1385     607.9609   1423.89099     759.1385     607.9609
   1423.87573     757.3180     607.9343   1423.87573     757.3180     607.9343
   1423.86047     756.9954     608.0737   1423.86047     756.9954     608.0737
   1423.84521     757.7491     607.1784   1423.84521     757.7491     607.1784
   1423.82996     755.5038     607.0162   1423.82996     755.5038     607.0162
   1423.81470     755.4958     606.2534   1423.81470     755.4958     606.2534
   1423.79944     755.3940     606.5864   1423.79944     755.3940     606.5864
   1423.78418     753.3828     606.3640   1423.78418     753.3828     606.3640
   1423.76892     753.0695     606.1908   1423.76892     753.0695     606.1908
   1423.75366     753.1376     606.4329   1423.75366     753.1376     606.4329
   1423.73840     752.2344     605.6398   1423.73840     752.2344     605.6398
   1423.72314     751.9196     605.1229   1423.72314     751.9196     605.1229
   1423.70789     751.2852     604.3538   1423.70789     751.2852     604.3538
   1423.69263     750.8258     604.2305   1423.69263     750.8258     604.2305
   1423.67737     750.7119     603.4662   1423.67737     750.7119     603.4662
   1423.66211     750.2259     603.4871   1423.66211     750.2259     603.4871
   1423.64685     749.9536     603.7568   1423.64685     749.9536     603.7568
   1423.63159     748.6290     603.9028   1423.63159     748.6290     603.9028
   1423.61633     748.3930     602.7946   1423.61633     748.3930     602.7946
   1423.60107     747.6731     601.2223   1423.60107     747.6731     601.2223
   1423.58582     747.1786     601.1122   1423.58582     747.1786     601.1122
   1423.57056     746.1086     602.3920   1423.57056     746.1086     602.3920
   1423.55530     745.2517     601.4332   1423.55530     745.2517     601.4332
   1423.54004     745.6705     600.4730   1423.54004     745.6705     600.4730
   1423.52478     745.1718     600.0241   1423.52478     745.1718     600.0241
   1423.50952     745.0363     600.3331   1423.50952     745.0363     600.3331
   1423.49426     743.8207     599.4457   1423.49426     743.8207     599.4457
   1423.47900     742.4501     598.6929   1423.47900     742.4501     598.6929
   1423.46375     742.5147     599.0477   1423.46375     742.5147     599.0477
   1423.44849     742.5065     598.1070   1423.44849     742.5065     598.1070
   1423.43323     741.7477     598.6600   1423.43323     741.7477     598.6600
   1423.41797     740.4644     596.7071   1423.41797     740.4644     596.7071
   1423.40271     740.8484     596.5123   1423.40271     740.8484     596.5123
   1423.38745     739.9653     595.3885   1423.38745     739.9653     595.3885
   1423.37219     739.0241     596.5846   1423.37219     739.0241     596.5846
   1423.35693     738.2198     595.4157   1423.35693     738.2198     595.4157
   1423.34167     737.6333     594.7185   1423.34167     737.6333     594.7185
   1423.32642     738.1594     593.7816   1423.32642     738.1594     593.7816
   1423.31116     737.6808     592.6955   1423.31116     737.6808     592.6955
   1423.29590     736.6510     592.4620   1423.29590     736.6510     592.4620
   1423.28064     736.0222     592.6126   1423.28064     736.0222     592.6126
   1423.26538     736.0367     592.7679   1423.26538     736.0367     592.7679
   1423.25012     734.0858     591.0247   1423.25012     734.0858     591.0247
   1423.23486     734.8810     590.1500   1423.23486     734.8810     590.1500
   1423.21960     734.3563     590.6136   1423.21960     734.3563     590.6136
   1423.20435     734.8074     589.0667   1423.20435     734.8074     589.0667
   1423.18909     732.3974     589.8453   1423.18909     732.3974     589.8453
   1423.17383     734.2259     589.1422   1423.17383     734.2259     589.1422
   1423.15857     732.3995     587.7093   1423.15857     732.3995     587.7093
   1423.14331     731.7050     587.8101   1423.14331     731.7050     587.8101
   1423.12805     729.9470     586.8067   1423.12805     729.9470     586.8067
   1423.11279     731.3903     586.7064   1423.11279     731.3903     586.7064
   1423.09753     730.2082     585.4523   1423.09753     730.2082     585.4523
   1423.08228     729.6374     585.2091   1423.08228     729.6374     585.2091
   1423.06702     730.5015     584.7759   1423.06702     730.5015     584.7759
   1423.05176     729.7553     582.7234   1423.05176     729.7553     582.7234
   1423.03650     729.6138     582.5026   1423.03650     729.6138     582.5026
   1423.02124     728.2242     582.0019   1423.02124     728.2242     582.0019
   1423.00598     728.3452     582.6625   1423.00598     728.3452     582.6625
   1422.99072     728.1815     580.6482   1422.99072     728.1815     580.6482
   1422.97546     727.3465     579.7841   1422.97546     727.3465     579.7841
   1422.96021     727.4496     580.0125   1422.96021     727.4496     580.0125
   1422.94495     726.2669     578.6019   1422.94495     726.2669     578.6019
   1422.92969     726.2509     578.0266   1422.92969     726.2509     578.0266
   1422.91443     726.0727     577.0040   1422.91443     726.0727     577.0040
   1422.89917     725.7974     576.9352   1422.89917     725.7974     576.9352
   1422.88391     724.9927     575.6946   1422.88391     724.9927     575.6946
   1422.86865     724.9742     574.8651   1422.86865     724.9742     574.8651
   1422.85339     723.8032     573.7446   1422.85339     723.8032     573.7446
   1422.83813     724.0675     573.7098   1422.83813     724.0675     573.7098
   1422.82288     724.1546     572.9229   1422.82288     724.1546     572.9229
   1422.80762     723.4683     570.7717   1422.80762     723.4683     570.7717
   1422.79236     721.9855     571.7265   1422.79236     721.9855     571.7265
   1422.77710     722.2489     569.9587   1422.77710     722.2489     569.9587
   1422.76184     722.2659     569.5983   1422.76184     722.2659     569.5983
   1422.74658     722.2683     569.4569   1422.74658     722.2683     569.4569
   1422.73132     721.5695     568.6490   1422.73132     721.5695     568.6490
   1422.71606     721.1159     567.5598   1422.71606     721.1159     567.5598
   1422.70081     721.4757     566.9253   1422.70081     721.4757     566.9253
   1422.68555     722.3688     565.6327   1422.68555     722.3688     565.6327
   1422.67029     720.0524     565.1022   1422.67029     720.0524     565.1022
   1422.65503     719.6481     564.7903   1422.65503     719.6481     564.7903
   1422.63977     720.7576     562.7554   1422.63977     720.7576     562.7554
   1422.62451     720.5597     561.7777   1422.62451     720.5597     561.7777
   1422.60925     719.3516     561.6884   1422.60925     719.3516     561.6884
   1422.59399     719.2244     560.2991   1422.59399     719.2244     560.2991
   1422.57874     718.7990     560.0848   1422.57874     718.7990     560.0848
   1422.56348     718.3403     559.0013   1422.56348     718.3403     559.0013
   1422.54822     717.5172     558.1443   1422.54822     717.5172     558.1443
   1422.53296     716.8657     557.0541   1422.53296     716.8657     557.0541
   1422.51770     717.9773     556.0339   1422.51770     717.9773     556.0339
   1422.50244     718.2559     556.0500   1422.50244     718.2559     556.0500
   1422.48718     717.4913     554.5134   1422.48718     717.4913     554.5134
   1422.47192     716.6127     553.1495   1422.47192     716.6127     553.1495
   1422.45667     717.9190     552.4531   1422.45667     717.9190     552.4531
   1422.44141     717.7890     552.0113   1422.44141     717.7890     552.0113
   1422.42615     717.6000     551.0276   1422.42615     717.6000     551.0276
   1422.41089     714.8257     549.2902   1422.41089     714.8257     549.2902
   1422.39563     717.1405     549.5649   1422.39563     717.1405     549.5649
   1422.38037     715.8600     547.9807   1422.38037     715.8600     547.9807
   1422.36511     716.2216     547.7965   1422.36511     716.2216     547.7965
   1422.34985     716.6936     545.9831   1422.34985     716.6936     545.9831
   1422.33459     715.4507     545.4269   1422.33459     715.4507     545.4269
   1422.31934     716.1324     544.2619   1422.31934     716.1324     544.2619
   1422.30408     715.6077     544.3867   1422.30408     715.6077     544.3867
   1422.28882     714.4573     542.0121   1422.28882     714.4573     542.0121
   1422.27356     714.0302     541.3370   1422.27356     714.0302     541.3370
   1422.25830     715.5110     541.0172   1422.25830     715.5110     541.0172
   1422.24304     714.7283     540.4695   1422.24304     714.7283     540.4695
   1422.22778     715.0950     539.6927   1422.22778     715.0950     539.6927
   1422.21252     713.7383     538.2073   1422.21252     713.7383     538.2073
   1422.19727     714.4302     536.7618   1422.19727     714.4302     536.7618
   1422.18201     712.9577     535.7346   1422.18201     712.9577     535.7346
   1422.16675     714.1710     534.1151   1422.16675     714.1710     534.1151
   1422.15149     713.2026     533.4962   1422.15149     713.2026     533.4962
   1422.13623     712.9636     533.1801   1422.13623     712.9636     533.1801
   1422.12097     714.1262     531.5263   1422.12097     714.1262     531.5263
   1422.10571     712.8667     530.9321   1422.10571     712.8667     530.9321
   1422.09045     713.2810     529.4378   1422.09045     713.2810     529.4378
   1422.07520     711.6889     528.2314   1422.07520     711.6889     528.2314
   1422.05994     713.2727     528.1481   1422.05994     713.2727     528.1481
   1422.04468     712.3694     526.1246   1422.04468     712.3694     526.1246
   1422.02942     713.8039     525.3174   1422.02942     713.8039     525.3174
   1422.01416     711.6405     524.2836   1422.01416     711.6405     524.2836
   1421.99890     713.6992     523.2991   1421.99890     713.6992     523.2991
   1421.98364     713.4244     523.2849   1421.98364     713.4244     523.2849
   1421.96838     712.9462     521.4358   1421.96838     712.9462     521.4358
   1421.95312     712.1758     519.7538   1421.95312     712.1758     519.7538
   1421.93787     710.8342     519.6458   1421.93787     710.8342     519.6458
   1421.92261     711.8015     518.6865   1421.92261     711.8015     518.6865
   1421.90735     711.1278     517.1871   1421.90735     711.1278     517.1871
   1421.89209     711.8321     515.7740   1421.89209     711.8321     515.7740
   1421.87683     712.0428     514.9157   1421.87683     712.0428     514.9157
   1421.86157     711.6562     514.4760   1421.86157     711.6562     514.4760
   1421.84631     711.6111     512.9260   1421.84631     711.6111     512.9260
   1421.83105     709.4268     512.5868   1421.83105     709.4268     512.5868
   1421.81580     712.0855     511.0402   1421.81580     712.0855     511.0402
   1421.80054     711.1122     509.6467   1421.80054     711.1122     509.6467
   1421.78528     711.2351     509.2539   1421.78528     711.2351     509.2539
   1421.77002     711.2574     508.0056   1421.77002     711.2574     508.0056
   1421.75476     710.5896     507.1611   1421.75476     710.5896     507.1611
   1421.73950     710.1398     505.8291   1421.73950     710.1398     505.8291
   1421.72424     710.7001     504.6080   1421.72424     710.7001     504.6080
   1421.70898     711.1686     503.4526   1421.70898     711.1686     503.4526
   1421.69373     709.8652     501.9431   1421.69373     709.8652     501.9431
   1421.67847     709.4538     501.0399   1421.67847     709.4538     501.0399
   1421.66321     710.6738     499.9251   1421.66321     710.6738     499.9251
   1421.64795     710.8591     498.2018   1421.64795     710.8591     498.2018
   1421.63269     710.9481     498.3080   1421.63269     710.9481     498.3080
   1421.61743     709.7811     496.6488   1421.61743     709.7811     496.6488
   1421.60217     709.8871     495.3442   1421.60217     709.8871     495.3442
   1421.58691     709.8899     494.5346   1421.58691     709.8899     494.5346
   1421.57166     710.5341     493.5442   1421.57166     710.5341     493.5442
   1421.55640     708.4431     492.0515   1421.55640     708.4431     492.0515
   1421.54114     709.1741     490.5200   1421.54114     709.1741     490.5200
   1421.52588     710.1430     490.1065   1421.52588     710.1430     490.1065
   1421.51062     709.3230     488.6402   1421.51062     709.3230     488.6402
   1421.49536     708.6965     488.4392   1421.49536     708.6965     488.4392
   1421.48010     708.0463     486.9059   1421.48010     708.0463     486.9059
   1421.46484     708.4960     485.3181   1421.46484     708.4960     485.3181
   1421.44958     708.0032     484.8006   1421.44958     708.0032     484.8006
   1421.43433     707.8043     483.0252   1421.43433     707.8043     483.0252
   1421.41907     708.1331     482.3820   1421.41907     708.1331     482.3820
   1421.40381     707.4661     481.0470   1421.40381     707.4661     481.0470
   1421.38855     707.7491     480.6521   1421.38855     707.7491     480.6521
   1421.37329     706.8453     479.5714   1421.37329     706.8453     479.5714
   1421.35803     707.2307     477.8973   1421.35803     707.2307     477.8973
   1421.34277     708.3542     476.7479   1421.34277     708.3542     476.7479
   1421.32751     707.0587     476.8264   1421.32751     707.0587     476.8264
   1421.31226     707.3554     475.8954   1421.31226     707.3554     475.8954
   1421.29700     707.6532     473.4680   1421.29700     707.6532     473.4680
   1421.28174     706.1845     472.9966   1421.28174     706.1845     472.9966
   1421.26648     706.4485     471.7008   1421.26648     706.4485     471.7008
   1421.25122     707.6818     470.4928   1421.25122     707.6818     470.4928
   1421.23596     705.6489     469.6423   1421.23596     705.6489     469.6423
   1421.22070     706.8431     469.0101   1421.22070     706.8431     469.0101
   1421.20544     706.0070     467.3981   1421.20544     706.0070     467.3981
   1421.19019     705.5708     466.2918   1421.19019     705.5708     466.2918
   1421.17493     705.0114     465.8032   1421.17493     705.0114     465.8032
   1421.15967     705.2939     463.7029   1421.15967     705.2939     463.7029
   1421.14441     705.8990     462.8831   1421.14441     705.8990     462.8831
   1421.12915     704.8239     461.8846   1421.12915     704.8239     461.8846
   1421.11389     705.5408     461.2023   1421.11389     705.5408     461.2023
   1421.09863     704.4190     460.9750   1421.09863     704.4190     460.9750
   1421.08337     706.0626     459.2330   1421.08337     706.0626     459.2330
   1421.06812     705.4736     458.0941   1421.06812     705.4736     458.0941
   1421.05286     705.8186     457.3833   1421.05286     705.8186     457.3833
   1421.03760     705.0444     456.2851   1421.03760     705.0444     456.2851
   1421.02234     706.7112     456.6552   1421.02234     706.7112     456.6552
   1421.00708     706.7988     456.2488   1421.00708     706.7988     456.2488
   1420.99182     708.6824     455.0203   1420.99182     708.6824     455.0203
   1420.97656     709.3635     455.5285   1420.97656     709.3635     455.5285
   1420.96130     711.3549     455.4319   1420.96130     711.3549     455.4319
   1420.94604     713.8638     456.5674   1420.94604     713.8638     456.5674
   1420.93079     715.8503     455.8212   1420.93079     715.8503     455.8212
   1420.91553     717.9786     457.3744   1420.91553     717.9786     457.3744
   1420.90027     722.9564     458.2904   1420.90027     722.9564     458.2904
   1420.88501     725.6495     459.8276   1420.88501     725.6495     459.8276
   1420.86975     729.7678     460.8558   1420.86975     729.7678     460.8558
   1420.85449     735.6645     464.2034   1420.85449     735.6645     464.2034
   1420.83923     740.6296     465.8057   1420.83923     740.6296     465.8057
   1420.82397     745.7402     467.8678   1420.82397     745.7402     467.8678
   1420.80872     750.2729     470.1649   1420.80872     750.2729     470.1649
   1420.79346     762.3289     476.0356   1420.79346     762.3289     476.0356
   1420.77820     780.9255     488.2075   1420.77820     780.9255     488.2075
   1420.76294     823.2175     512.3121   1420.76294     823.2175     512.3121
   1420.74768     909.3621     563.4297   1420.74768     909.3621     563.4297
   1420.73242     965.0167     594.6239   1420.73242     965.0167     594.6239
   1420.71716    1027.8807     631.4067   1420.71716    1027.8807     631.4067
   1420.70190    1145.1462     702.6797   1420.70190    1145.1462     702.6797
   1420.68665    1221.3768     747.0391   1420.68665    1221.3768     747.0391
   1420.67139    1302.9385     793.1129   1420.67139    1302.9385     793.1129
   1420.65613    1381.0765     837.8507   1420.65613    1381.0765     837.8507
   1420.64087    1380.2615     835.0790   1420.64087    1380.2615     835.0790
   1420.62561    1411.8954     858.0381   1420.62561    1411.8954     858.0381
   1420.61035    1397.7185     844.7931   1420.61035    1397.7185     844.7931
   1420.59509    1443.1188     868.3106   1420.59509    1443.1188     868.3106
   1420.57983    1641.3453     986.2353   1420.57983    1641.3453     986.2353
   1420.56458    2150.6794    1286.3795   1420.56458    2150.6794    1286.3795
   1420.54932    2547.0342    1516.4058   1420.54932    2547.0342    1516.4058
   1420.53406    2503.1377    1487.7301   1420.53406    2503.1377    1487.7301
   1420.51880    2192.5869    1299.9700   1420.51880    2192.5869    1299.9700
   1420.50354    1833.4463    1086.9164   1420.50354    1833.4463    1086.9164
   1420.48828    1570.8041     933.9520   1420.48828    1570.8041     933.9520
   1420.47302    1547.1090     919.5912   1420.47302    1547.1090     919.5912
   1420.45776    1742.8491    1030.0719   1420.45776    1742.8491    1030.0719
   1420.44250    1679.2206     993.3669   1420.44250    1679.2206     993.3669
   1420.42725    1698.4906     999.6177   1420.42725    1698.4906     999.6177
   1420.41199    1871.3096    1096.1549   1420.41199    1871.3096    1096.1549
   1420.39673    1878.6161    1100.8240   1420.39673    1878.6161    1100.8240
   1420.38147    1825.5447    1068.7081   1420.38147    1825.5447    1068.7081
   1420.36621    1447.6559     848.6861   1420.36621    1447.6559     848.6861
   1420.35095     998.7663     587.7862   1420.35095     998.7663     587.7862
   1420.33569     850.7239     502.8336   1420.33569     850.7239     502.8336
   1420.32043     790.6020     468.1302   1420.32043     790.6020     468.1302
   1420.30518     756.1727     447.5045   1420.30518     756.1727     447.5045
   1420.28992     735.2601     434.2254   1420.28992     735.2601     434.2254
   1420.27466     720.8655     426.2244   1420.27466     720.8655     426.2244
   1420.25940     714.1800     420.6746   1420.25940     714.1800     420.6746
   1420.24414     707.9351     417.4879   1420.24414     707.9351     417.4879
   1420.22888     704.2589     415.3208   1420.22888     704.2589     415.3208
   1420.21362     702.8168     412.5825   1420.21362     702.8168     412.5825
   1420.19836     700.5366     411.3745   1420.19836     700.5366     411.3745
   1420.18311     699.8191     409.6932   1420.18311     699.8191     409.6932
   1420.16785     698.7417     408.8049   1420.16785     698.7417     408.8049
   1420.15259     697.9700     407.9557   1420.15259     697.9700     407.9557
   1420.13733     697.5513     406.1289   1420.13733     697.5513     406.1289
   1420.12207     696.8695     405.6904   1420.12207     696.8695     405.6904
   1420.10681     694.6529     404.1728   1420.10681     694.6529     404.1728
   1420.09155     694.1694     403.3802   1420.09155     694.1694     403.3802
   1420.07629     694.7532     402.8821   1420.07629     694.7532     402.8821
   1420.06104     694.1448     402.2437   1420.06104     694.1448     402.2437
   1420.04578     694.1321     401.0030   1420.04578     694.1321     401.0030
   1420.03052     692.7827     400.9136   1420.03052     692.7827     400.9136
   1420.01526     693.5674     401.4552   1420.01526     693.5674     401.4552
   1420.00000     694.4497     402.1593   1420.00000     694.4497     402.1593
   1419.98474     695.3320     402.8632   1419.98474     695.3320     402.8632
   1419.96948     695.8157     400.3341   1419.96948     695.8157     400.3341
   1419.95422     692.8231     398.0869   1419.95422     692.8231     398.0869
   1419.93896     693.3999     397.4679   1419.93896     693.3999     397.4679
   1419.92371     692.9106     396.5603   1419.92371     692.9106     396.5603
   1419.90845     693.0255     396.3543   1419.90845     693.0255     396.3543
   1419.89319     693.3984     395.6915   1419.89319     693.3984     395.6915
   1419.87793     692.8157     394.7740   1419.87793     692.8157     394.7740
   1419.86267     692.9537     394.4986   1419.86267     692.9537     394.4986
   1419.84741     692.3745     394.2117   1419.84741     692.3745     394.2117
   1419.83215     691.8649     394.1201   1419.83215     691.8649     394.1201
   1419.81689     693.2383     393.3408   1419.81689     693.2383     393.3408
   1419.80164     692.9762     393.2205   1419.80164     692.9762     393.2205
   1419.78638     692.8444     393.0932   1419.78638     692.8444     393.0932
   1419.77112     693.2408     392.7217   1419.77112     693.2408     392.7217
   1419.75586     692.9485     391.6940   1419.75586     692.9485     391.6940
   1419.74060     693.6516     391.9871   1419.74060     693.6516     391.9871
   1419.72534     694.3973     391.3238   1419.72534     694.3973     391.3238
   1419.71008     693.4288     391.6028   1419.71008     693.4288     391.6028
   1419.69482     693.7262     391.1367   1419.69482     693.7262     391.1367
   1419.67957     692.9120     390.5662   1419.67957     692.9120     390.5662
   1419.66431     694.9762     390.2659   1419.66431     694.9762     390.2659
   1419.64905     695.0739     390.3904   1419.64905     695.0739     390.3904
   1419.63379     695.0018     390.4296   1419.63379     695.0018     390.4296
   1419.61853     695.7346     389.5768   1419.61853     695.7346     389.5768
   1419.60327     695.5040     388.8156   1419.60327     695.5040     388.8156
   1419.58801     694.4746     389.8158   1419.58801     694.4746     389.8158
   1419.57275     696.2440     389.3040   1419.57275     696.2440     389.3040
   1419.55750     696.0487     388.4438   1419.55750     696.0487     388.4438
   1419.54224     696.0521     389.0901   1419.54224     696.0521     389.0901
   1419.52698     696.0384     388.0328   1419.52698     696.0384     388.0328
   1419.51172     697.1649     389.1676   1419.51172     697.1649     389.1676
   1419.49646     697.8337     388.4013   1419.49646     697.8337     388.4013
   1419.48120     697.7097     388.4043   1419.48120     697.7097     388.4043
   1419.46594     697.1355     387.8516   1419.46594     697.1355     387.8516
   1419.45068     698.1815     388.2527   1419.45068     698.1815     388.2527
   1419.43542     698.8515     388.0593   1419.43542     698.8515     388.0593
   1419.42017     698.7437     388.2322   1419.42017     698.7437     388.2322
   1419.40491     699.0167     387.6828   1419.40491     699.0167     387.6828
   1419.38965     699.2892     387.9422   1419.38965     699.2892     387.9422
   1419.37439     698.6013     387.9315   1419.37439     698.6013     387.9315
   1419.35913     699.8588     387.7367   1419.35913     699.8588     387.7367
   1419.34387     700.3989     387.3757   1419.34387     700.3989     387.3757
   1419.32861     701.3073     387.2351   1419.32861     701.3073     387.2351
   1419.31335     699.7600     387.0783   1419.31335     699.7600     387.0783
   1419.29810     701.6520     387.4616   1419.29810     701.6520     387.4616
   1419.28284     701.4002     387.4452   1419.28284     701.4002     387.4452
   1419.26758     703.7549     388.1314   1419.26758     703.7549     388.1314
   1419.25232     702.0315     387.6248   1419.25232     702.0315     387.6248
   1419.23706     703.1999     387.5296   1419.23706     703.1999     387.5296
   1419.22180     702.1337     387.7898   1419.22180     702.1337     387.7898
   1419.20654     703.0326     387.6653   1419.20654     703.0326     387.6653
   1419.19128     704.0430     388.0759   1419.19128     704.0430     388.0759
   1419.17603     704.5444     388.2539   1419.17603     704.5444     388.2539
   1419.16077     704.8984     387.4927   1419.16077     704.8984     387.4927
   1419.14551     705.3190     388.3605   1419.14551     705.3190     388.3605
   1419.13025     705.8360     388.5680   1419.13025     705.8360     388.5680
   1419.11499     705.9962     387.9438   1419.11499     705.9962     387.9438
   1419.09973     706.8171     388.1712   1419.09973     706.8171     388.1712
   1419.08447     707.1121     388.5941   1419.08447     707.1121     388.5941
   1419.06921     708.2059     388.9217   1419.06921     708.2059     388.9217
   1419.05396     708.2014     388.7262   1419.05396     708.2014     388.7262
   1419.03870     708.5522     389.1253   1419.03870     708.5522     389.1253
   1419.02344     708.3715     389.8070   1419.02344     708.3715     389.8070
   1419.00818     709.9359     389.3598   1419.00818     709.9359     389.3598
   1418.99292     710.3157     389.8664   1418.99292     710.3157     389.8664
   1418.97766     709.9191     389.9644   1418.97766     709.9191     389.9644
   1418.96240     711.6046     391.2321   1418.96240     711.6046     391.2321
   1418.94714     712.4591     391.1101   1418.94714     712.4591     391.1101
   1418.93188     712.2476     391.3513   1418.93188     712.2476     391.3513
   1418.91663     713.4371     390.8307   1418.91663     713.4371     390.8307
   1418.90137     712.8780     391.2469   1418.90137     712.8780     391.2469
   1418.88611     714.9156     391.2747   1418.88611     714.9156     391.2747
   1418.87085     714.0458     391.4227   1418.87085     714.0458     391.4227
   1418.85559     714.5515     392.5958   1418.85559     714.5515     392.5958
   1418.84033     715.5904     392.5197   1418.84033     715.5904     392.5197
   1418.82507     716.5204     392.4582   1418.82507     716.5204     392.4582
   1418.80981     717.5814     393.5768   1418.80981     717.5814     393.5768
   1418.79456     717.9108     394.3296   1418.79456     717.9108     394.3296
   1418.77930     719.4155     393.4201   1418.77930     719.4155     393.4201
   1418.76404     719.4529     394.8148   1418.76404     719.4529     394.8148
   1418.74878     720.7347     395.1060   1418.74878     720.7347     395.1060
   1418.73352     720.5564     395.4685   1418.73352     720.5564     395.4685
   1418.71826     721.6907     396.3781   1418.71826     721.6907     396.3781
   1418.70300     720.9814     396.0576   1418.70300     720.9814     396.0576
   1418.68774     723.9316     396.7273   1418.68774     723.9316     396.7273
   1418.67249     723.2335     397.2082   1418.67249     723.2335     397.2082
   1418.65723     724.2616     397.8617   1418.65723     724.2616     397.8617
   1418.64197     723.9510     398.1615   1418.64197     723.9510     398.1615
   1418.62671     725.3212     399.0915   1418.62671     725.3212     399.0915
   1418.61145     725.1351     398.9108   1418.61145     725.1351     398.9108
   1418.59619     726.0867     399.6078   1418.59619     726.0867     399.6078
   1418.58093     728.6276     400.0868   1418.58093     728.6276     400.0868
   1418.56567     728.1913     400.8097   1418.56567     728.1913     400.8097
   1418.55042     728.8351     401.8764   1418.55042     728.8351     401.8764
   1418.53516     729.2667     402.3274   1418.53516     729.2667     402.3274
   1418.51990     730.9688     402.8247   1418.51990     730.9688     402.8247
   1418.50464     730.8123     403.1455   1418.50464     730.8123     403.1455
   1418.48938     732.0396     404.0209   1418.48938     732.0396     404.0209
   1418.47412     733.1307     404.6872   1418.47412     733.1307     404.6872
   1418.45886     732.8140     405.2258   1418.45886     732.8140     405.2258
   1418.44360     733.6843     405.8585   1418.44360     733.6843     405.8585
   1418.42834     735.1944     406.2748   1418.42834     735.1944     406.2748
   1418.41309     735.3508     406.7373   1418.41309     735.3508     406.7373
   1418.39783     737.1151     407.7348   1418.39783     737.1151     407.7348
   1418.38257     736.5718     408.3517   1418.38257     736.5718     408.3517
   1418.36731     737.6626     408.7390   1418.36731     737.6626     408.7390
   1418.35205     739.1132     409.9490   1418.35205     739.1132     409.9490
   1418.33679     740.7960     410.2795   1418.33679     740.7960     410.2795
   1418.32153     740.1793     411.1762   1418.32153     740.1793     411.1762
   1418.30627     740.5652     412.0871   1418.30627     740.5652     412.0871
   1418.29102     743.2922     412.8690   1418.29102     743.2922     412.8690
   1418.27576     743.6185     413.2872   1418.27576     743.6185     413.2872
   1418.26050     743.5718     414.0701   1418.26050     743.5718     414.0701
   1418.24524     743.9531     415.2788   1418.24524     743.9531     415.2788
   1418.22998     746.2876     416.4769   1418.22998     746.2876     416.4769
   1418.21472     746.6907     417.0561   1418.21472     746.6907     417.0561
   1418.19946     748.5812     418.3180   1418.19946     748.5812     418.3180
   1418.18420     748.6295     418.7344   1418.18420     748.6295     418.7344
   1418.16895     748.4813     419.5947   1418.16895     748.4813     419.5947
   1418.15369     749.2414     420.4504   1418.15369     749.2414     420.4504
   1418.13843     750.3985     421.1294   1418.13843     750.3985     421.1294
   1418.12317     751.3347     420.9221   1418.12317     751.3347     420.9221
   1418.10791     753.3929     422.4240   1418.10791     753.3929     422.4240
   1418.09265     753.5915     423.1333   1418.09265     753.5915     423.1333
   1418.07739     755.5756     424.4042   1418.07739     755.5756     424.4042
   1418.06213     756.3581     425.2434   1418.06213     756.3581     425.2434
   1418.04688     756.5024     426.2404   1418.04688     756.5024     426.2404
   1418.03162     757.3223     427.0263   1418.03162     757.3223     427.0263
   1418.01636     757.4052     427.7833   1418.01636     757.4052     427.7833
   1418.00110     757.6533     428.9133   1418.00110     757.6533     428.9133
   1417.98584     761.0681     430.2537   1417.98584     761.0681     430.2537
   1417.97058     760.4832     431.7616   1417.97058     760.4832     431.7616
   1417.95532     760.8387     432.0085   1417.95532     760.8387     432.0085
   1417.94006     763.5115     433.1148   1417.94006     763.5115     433.1148
   1417.92480     764.2542     433.7388   1417.92480     764.2542     433.7388
   1417.90955     764.8727     435.1655   1417.90955     764.8727     435.1655
   1417.89429     765.0557     435.8454   1417.89429     765.0557     435.8454
   1417.87903     765.9091     436.8134   1417.87903     765.9091     436.8134
   1417.86377     767.6915     437.5618   1417.86377     767.6915     437.5618
   1417.84851     769.4841     438.9955   1417.84851     769.4841     438.9955
   1417.83325     768.8541     439.4746   1417.83325     768.8541     439.4746
   1417.81799     768.5344     440.6366   1417.81799     768.5344     440.6366
   1417.80273     770.7084     441.8980   1417.80273     770.7084     441.8980
   1417.78748     772.0798     442.9088   1417.78748     772.0798     442.9088
   1417.77222     773.0431     443.9590   1417.77222     773.0431     443.9590
   1417.75696     775.0034     444.6497   1417.75696     775.0034     444.6497
   1417.74170     774.7540     445.4189   1417.74170     774.7540     445.4189
   1417.72644     775.9522     447.2631   1417.72644     775.9522     447.2631
   1417.71118     776.5786     448.3932   1417.71118     776.5786     448.3932
   1417.69592     777.0064     449.7016   1417.69592     777.0064     449.7016
   1417.68066     778.0992     450.2656   1417.68066     778.0992     450.2656
   1417.66541     778.7650     451.7339   1417.66541     778.7650     451.7339
   1417.65015     780.9216     452.9284   1417.65015     780.9216     452.9284
   1417.63489     781.5631     453.2829   1417.63489     781.5631     453.2829
   1417.61963     781.7033     455.7264   1417.61963     781.7033     455.7264
   1417.60437     782.9584     456.3740   1417.60437     782.9584     456.3740
   1417.58911     784.3149     457.1176   1417.58911     784.3149     457.1176
   1417.57385     784.8704     458.4228   1417.57385     784.8704     458.4228
   1417.55859     786.2764     459.0109   1417.55859     786.2764     459.0109
   1417.54333     785.9411     460.6668   1417.54333     785.9411     460.6668
   1417.52808     786.3638     461.3463   1417.52808     786.3638     461.3463
   1417.51282     789.1267     462.8900   1417.51282     789.1267     462.8900
   1417.49756     790.8513     464.3449   1417.49756     790.8513     464.3449
   1417.48230     791.0215     465.6295   1417.48230     791.0215     465.6295
   1417.46704     789.8488     466.2740   1417.46704     789.8488     466.2740
   1417.45178     791.2532     467.1332   1417.45178     791.2532     467.1332
   1417.43652     792.0673     468.3826   1417.43652     792.0673     468.3826
   1417.42126     792.6650     469.5831   1417.42126     792.6650     469.5831
   1417.40601     793.7405     470.8885   1417.40601     793.7405     470.8885
   1417.39075     795.1799     472.6100   1417.39075     795.1799     472.6100
   1417.37549     795.2149     473.2173   1417.37549     795.2149     473.2173
   1417.36023     797.5691     474.4793   1417.36023     797.5691     474.4793
   1417.34497     796.9871     475.3068   1417.34497     796.9871     475.3068
   1417.32971     798.1210     476.8896   1417.32971     798.1210     476.8896
   1417.31445     797.9689     478.0653   1417.31445     797.9689     478.0653
   1417.29919     800.3659     478.5205   1417.29919     800.3659     478.5205
   1417.28394     800.7965     480.9402   1417.28394     800.7965     480.9402
   1417.26868     800.5285     482.1982   1417.26868     800.5285     482.1982
   1417.25342     802.6320     482.7632   1417.25342     802.6320     482.7632
   1417.23816     802.9481     483.2989   1417.23816     802.9481     483.2989
   1417.22290     803.4662     485.3955   1417.22290     803.4662     485.3955
   1417.20764     804.1478     485.5367   1417.20764     804.1478     485.5367
   1417.19238     803.8119     486.9623   1417.19238     803.8119     486.9623
   1417.17712     805.9641     488.0673   1417.17712     805.9641     488.0673
   1417.16187     806.3486     490.1143   1417.16187     806.3486     490.1143
   1417.14661     805.6270     491.1514   1417.14661     805.6270     491.1514
   1417.13135     807.1064     491.9190   1417.13135     807.1064     491.9190
   1417.11609     808.4831     493.7312   1417.11609     808.4831     493.7312
   1417.10083     807.8690     493.7967   1417.10083     807.8690     493.7967
   1417.08557     810.0505     495.0782   1417.08557     810.0505     495.0782
   1417.07031     810.1784     496.0051   1417.07031     810.1784     496.0051
   1417.05505     810.1128     496.9512   1417.05505     810.1128     496.9512
   1417.03979     811.2682     498.4901   1417.03979     811.2682     498.4901
   1417.02454     811.1013     500.6505   1417.02454     811.1013     500.6505
   1417.00928     812.3265     500.8927   1417.00928     812.3265     500.8927
   1416.99402     812.2402     502.0396   1416.99402     812.2402     502.0396
   1416.97876     814.0836     503.8809   1416.97876     814.0836     503.8809
   1416.96350     813.1151     503.3203   1416.96350     813.1151     503.3203
   1416.94824     815.5921     504.4020   1416.94824     815.5921     504.4020
   1416.93298     815.1301     505.9620   1416.93298     815.1301     505.9620
   1416.91772     815.8690     505.9693   1416.91772     815.8690     505.9693
   1416.90247     815.5714     508.4553   1416.90247     815.5714     508.4553
   1416.88721     814.5811     509.2428   1416.88721     814.5811     509.2428
   1416.87195     815.8768     509.7151   1416.87195     815.8768     509.7151
   1416.85669     815.9971     510.3614   1416.85669     815.9971     510.3614
   1416.84143     817.4274     511.9044   1416.84143     817.4274     511.9044
   1416.82617     817.6968     513.1851   1416.82617     817.6968     513.1851
   1416.81091     817.6980     513.5492   1416.81091     817.6980     513.5492
   1416.79565     818.7462     515.0688   1416.79565     818.7462     515.0688
   1416.78040     817.7999     515.2660   1416.78040     817.7999     515.2660
   1416.76514     818.2376     517.0909   1416.76514     818.2376     517.0909
   1416.74988     819.6227     516.7303   1416.74988     819.6227     516.7303
   1416.73462     819.4776     518.2983   1416.73462     819.4776     518.2983
   1416.71936     818.5475     519.8074   1416.71936     818.5475     519.8074
   1416.70410     820.3814     519.6868   1416.70410     820.3814     519.6868
   1416.68884     819.9563     519.5618   1416.68884     819.9563     519.5618
   1416.67358     819.9263     521.7927   1416.67358     819.9263     521.7927
   1416.65833     819.6965     522.5634   1416.65833     819.6965     522.5634
   1416.64307     820.5707     522.0129   1416.64307     820.5707     522.0129
   1416.62781     819.8816     523.7968   1416.62781     819.8816     523.7968
   1416.61255     819.8304     523.8966   1416.61255     819.8304     523.8966
   1416.59729     819.8732     524.6155   1416.59729     819.8732     524.6155
   1416.58203     819.7473     525.5762   1416.58203     819.7473     525.5762
   1416.56677     818.3665     526.1667   1416.56677     818.3665     526.1667
   1416.55151     819.4547     526.8894   1416.55151     819.4547     526.8894
   1416.53625     820.5576     527.6581   1416.53625     820.5576     527.6581
   1416.52100     818.5471     527.8833   1416.52100     818.5471     527.8833
   1416.50574     818.9172     528.2948   1416.50574     818.9172     528.2948
   1416.49048     819.3773     529.3064   1416.49048     819.3773     529.3064
   1416.47522     819.5101     529.3821   1416.47522     819.5101     529.3821
   1416.45996     820.5270     529.7660   1416.45996     820.5270     529.7660
   1416.44470     818.6374     530.6696   1416.44470     818.6374     530.6696
   1416.42944     819.5572     531.3642   1416.42944     819.5572     531.3642
   1416.41418     818.5692     531.4752   1416.41418     818.5692     531.4752
   1416.39893     819.0125     532.0397   1416.39893     819.0125     532.0397
   1416.38367     817.8051     531.6996   1416.38367     817.8051     531.6996
   1416.36841     818.2868     532.9623   1416.36841     818.2868     532.9623
   1416.35315     816.8853     532.8337   1416.35315     816.8853     532.8337
   1416.33789     816.9752     532.9723   1416.33789     816.9752     532.9723
   1416.32263     816.3936     533.6443   1416.32263     816.3936     533.6443
   1416.30737     815.6235     533.2949   1416.30737     815.6235     533.2949
   1416.29211     815.3036     534.2633   1416.29211     815.3036     534.2633
   1416.27686     815.7500     534.0247   1416.27686     815.7500     534.0247
   1416.26160     815.4705     534.3669   1416.26160     815.4705     534.3669
   1416.24634     814.4164     534.9183   1416.24634     814.4164     534.9183
   1416.23108     815.3324     534.8638   1416.23108     815.3324     534.8638
   1416.21582     814.6167     534.3409   1416.21582     814.6167     534.3409
   1416.20056     812.8759     534.9594   1416.20056     812.8759     534.9594
   1416.18530     811.4930     533.9377   1416.18530     811.4930     533.9377
   1416.17004     812.3098     534.6371   1416.17004     812.3098     534.6371
   1416.15479     812.0298     534.9919   1416.15479     812.0298     534.9919
   1416.13953     811.3832     535.4869   1416.13953     811.3832     535.4869
   1416.12427     810.6326     534.6500   1416.12427     810.6326     534.6500
   1416.10901     810.0483     534.6825   1416.10901     810.0483     534.6825
   1416.09375     808.3229     535.8541   1416.09375     808.3229     535.8541
   1416.07849     808.4614     534.9683   1416.07849     808.4614     534.9683
   1416.06323     807.4031     535.2034   1416.06323     807.4031     535.2034
   1416.04797     807.2819     534.5219   1416.04797     807.2819     534.5219
   1416.03271     806.8732     535.0561   1416.03271     806.8732     535.0561
   1416.01746     804.9604     534.8584   1416.01746     804.9604     534.8584
   1416.00220     805.1006     534.4215   1416.00220     805.1006     534.4215
   1415.98694     804.4221     534.8567   1415.98694     804.4221     534.8567
   1415.97168     804.0822     533.6886   1415.97168     804.0822     533.6886
   1415.95642     802.6875     533.4961   1415.95642     802.6875     533.4961
   1415.94116     801.3331     533.0504   1415.94116     801.3331     533.0504
   1415.92590     799.0590     533.6863   1415.92590     799.0590     533.6863
   1415.91064     799.3359     534.3389   1415.91064     799.3359     534.3389
   1415.89539     800.2836     533.3176   1415.89539     800.2836     533.3176
   1415.88013     799.7287     533.0192   1415.88013     799.7287     533.0192
   1415.86487     797.4563     533.2192   1415.86487     797.4563     533.2192
   1415.84961     797.0740     532.8246   1415.84961     797.0740     532.8246
   1415.83435     795.1751     532.0144   1415.83435     795.1751     532.0144
   1415.81909     794.5208     531.4628   1415.81909     794.5208     531.4628
   1415.80383     793.4937     531.3679   1415.80383     793.4937     531.3679
   1415.78857     792.9988     530.8516   1415.78857     792.9988     530.8516
   1415.77332     792.7766     530.1407   1415.77332     792.7766     530.1407
   1415.75806     792.0118     530.5106   1415.75806     792.0118     530.5106
   1415.74280     789.0098     529.5306   1415.74280     789.0098     529.5306
   1415.72754     789.8506     529.5270   1415.72754     789.8506     529.5270
   1415.71228     787.9730     528.9867   1415.71228     787.9730     528.9867
   1415.69702     787.8959     529.4408   1415.69702     787.8959     529.4408
   1415.68176     787.2534     529.0596   1415.68176     787.2534     529.0596
   1415.66650     785.9750     528.6791   1415.66650     785.9750     528.6791
   1415.65125     784.7852     528.0157   1415.65125     784.7852     528.0157
   1415.63599     782.9523     527.9453   1415.63599     782.9523     527.9453
   1415.62073     782.3982     526.7636   1415.62073     782.3982     526.7636
   1415.60547     781.5571     526.9339   1415.60547     781.5571     526.9339
   1415.59021     780.0292     526.1008   1415.59021     780.0292     526.1008
   1415.57495     779.6873     525.6569   1415.57495     779.6873     525.6569
   1415.55969     778.0760     524.8488   1415.55969     778.0760     524.8488
   1415.54443     776.4775     525.4839   1415.54443     776.4775     525.4839
   1415.52917     775.0746     524.6000   1415.52917     775.0746     524.6000
   1415.51392     775.0976     523.9298   1415.51392     775.0976     523.9298
   1415.49866     774.4515     523.2584   1415.49866     774.4515     523.2584
   1415.48340     772.7566     523.1366   1415.48340     772.7566     523.1366
   1415.46814     770.6105     521.9012   1415.46814     770.6105     521.9012
   1415.45288     770.4899     522.1987   1415.45288     770.4899     522.1987
   1415.43762     769.4117     521.1254   1415.43762     769.4117     521.1254
   1415.42236     767.7250     520.8444   1415.42236     767.7250     520.8444
   1415.40710     766.7040     519.2894   1415.40710     766.7040     519.2894
   1415.39185     765.0160     519.5494   1415.39185     765.0160     519.5494
   1415.37659     765.5767     517.4790   1415.37659     765.5767     517.4790
   1415.36133     763.1227     518.7727   1415.36133     763.1227     518.7727
   1415.34607     761.7063     517.9613   1415.34607     761.7063     517.9613
   1415.33081     761.4206     518.1637   1415.33081     761.4206     518.1637
   1415.31555     759.7188     516.2366   1415.31555     759.7188     516.2366
   1415.30029     759.2052     516.1067   1415.30029     759.2052     516.1067
   1415.28503     756.3632     515.5657   1415.28503     756.3632     515.5657
   1415.26978     754.8948     515.6808   1415.26978     754.8948     515.6808
   1415.25452     754.1089     514.2990   1415.25452     754.1089     514.2990
   1415.23926     751.7606     513.4426   1415.23926     751.7606     513.4426
   1415.22400     752.5148     513.2668   1415.22400     752.5148     513.2668
   1415.20874     749.6839     512.7751   1415.20874     749.6839     512.7751
   1415.19348     748.5108     510.6998   1415.19348     748.5108     510.6998
   1415.17822     746.9783     511.6065   1415.17822     746.9783     511.6065
   1415.16296     745.9950     510.2170   1415.16296     745.9950     510.2170
   1415.14771     745.0402     509.1929   1415.14771     745.0402     509.1929
   1415.13245     743.6539     508.8030   1415.13245     743.6539     508.8030
   1415.11719     741.7939     507.9990   1415.11719     741.7939     507.9990
   1415.10193     740.3203     507.3588   1415.10193     740.3203     507.3588
   1415.08667     737.6039     506.7052   1415.08667     737.6039     506.7052
   1415.07141     737.2809     506.9092   1415.07141     737.2809     506.9092
   1415.05615     734.8981     504.9388   1415.05615     734.8981     504.9388
   1415.04089     733.1932     503.8474   1415.04089     733.1932     503.8474
   1415.02563     733.0117     503.7902   1415.02563     733.0117     503.7902
   1415.01038     730.4550     502.3991   1415.01038     730.4550     502.3991
   1414.99512     728.8484     501.8065   1414.99512     728.8484     501.8065
   1414.97986     726.9465     501.0699   1414.97986     726.9465     501.0699
   1414.96460     725.8626     500.3587   1414.96460     725.8626     500.3587
   1414.94934     723.5781     499.5211   1414.94934     723.5781     499.5211
   1414.93408     721.6392     499.3800   1414.93408     721.6392     499.3800
   1414.91882     722.1089     498.4675   1414.91882     722.1089     498.4675
   1414.90356     718.4602     496.3270   1414.90356     718.4602     496.3270
   1414.88831     716.2493     495.8182   1414.88831     716.2493     495.8182
   1414.87305     715.6871     495.0306   1414.87305     715.6871     495.0306
   1414.85779     714.8169     493.9889   1414.85779     714.8169     493.9889
   1414.84253     712.4464     493.7630   1414.84253     712.4464     493.7630
   1414.82727     709.0959     492.5189   1414.82727     709.0959     492.5189
   1414.81201     708.9753     490.7974   1414.81201     708.9753     490.7974
   1414.79675     706.7408     491.2031   1414.79675     706.7408     491.2031
   1414.78149     705.5244     488.7440   1414.78149     705.5244     488.7440
   1414.76624     704.2202     488.9041   1414.76624     704.2202     488.9041
   1414.75098     700.9530     487.3769   1414.75098     700.9530     487.3769
   1414.73572     698.6849     486.7391   1414.73572     698.6849     486.7391
   1414.72046     697.3665     484.7500   1414.72046     697.3665     484.7500
   1414.70520     695.9343     483.6152   1414.70520     695.9343     483.6152
   1414.68994     692.9797     482.5774   1414.68994     692.9797     482.5774
   1414.67468     692.4349     482.8744   1414.67468     692.4349     482.8744
   1414.65942     689.1606     481.0080   1414.65942     689.1606     481.0080
   1414.64417     687.1295     480.7557   1414.64417     687.1295     480.7557
   1414.62891     685.1304     479.1055   1414.62891     685.1304     479.1055
   1414.61365     683.1464     477.5769   1414.61365     683.1464     477.5769
   1414.59839     680.8375     476.6391   1414.59839     680.8375     476.6391
   1414.58313     677.5878     475.7351   1414.58313     677.5878     475.7351
   1414.56787     677.1559     473.9187   1414.56787     677.1559     473.9187
   1414.55261     675.0039     473.1251   1414.55261     675.0039     473.1251
   1414.53735     671.6583     472.6191   1414.53735     671.6583     472.6191
   1414.52209     670.3251     470.6305   1414.52209     670.3251     470.6305
   1414.50684     668.6356     469.2950   1414.50684     668.6356     469.2950
   1414.49158     665.2980     468.0470   1414.49158     665.2980     468.0470
   1414.47632     663.7941     466.8292   1414.47632     663.7941     466.8292
   1414.46106     661.5693     466.4337   1414.46106     661.5693     466.4337
   1414.44580     659.3786     464.8089   1414.44580     659.3786     464.8089
   1414.43054     657.1411     464.0669   1414.43054     657.1411     464.0669
   1414.41528     655.2535     461.8131   1414.41528     655.2535     461.8131
   1414.40002     652.6859     460.0879   1414.40002     652.6859     460.0879
   1414.38477     650.2391     459.2290   1414.38477     650.2391     459.2290
   1414.36951     648.0823     457.5700   1414.36951     648.0823     457.5700
   1414.35425     645.2441     457.5782   1414.35425     645.2441     457.5782
   1414.33899     643.3576     455.2275   1414.33899     643.3576     455.2275
   1414.32373     640.1017     454.1200   1414.32373     640.1017     454.1200
   1414.30847     637.8230     452.2719   1414.30847     637.8230     452.2719
   1414.29321     634.8242     451.0069   1414.29321     634.8242     451.0069
   1414.27795     633.0704     450.1320   1414.27795     633.0704     450.1320
   1414.26270     630.4584     447.8109   1414.26270     630.4584     447.8109
   1414.24744     628.8710     446.8205   1414.24744     628.8710     446.8205
   1414.23218     625.8479     445.2572   1414.23218     625.8479     445.2572
   1414.21692     622.7668     443.4231   1414.21692     622.7668     443.4231
   1414.20166     620.7773     442.3497   1414.20166     620.7773     442.3497
   1414.18640     618.2344     440.1204   1414.18640     618.2344     440.1204
   1414.17114     615.7222     439.1321   1414.17114     615.7222     439.1321
   1414.15588     613.5538     438.0215   1414.15588     613.5538     438.0215
   1414.14062     610.6480     435.4910   1414.14062     610.6480     435.4910
   1414.12537     608.2699     434.5550   1414.12537     608.2699     434.5550
   1414.11011     605.4953     433.7578   1414.11011     605.4953     433.7578
   1414.09485     602.4593     431.5361   1414.09485     602.4593     431.5361
   1414.07959     599.4067     429.4659   1414.07959     599.4067     429.4659
   1414.06433     597.3834     428.8463   1414.06433     597.3834     428.8463
   1414.04907     595.0175     426.2551   1414.04907     595.0175     426.2551
   1414.03381     593.4094     425.0734   1414.03381     593.4094     425.0734
   1414.01855     590.5776     423.2542   1414.01855     590.5776     423.2542
   1414.00330     616.4617     430.9423   1414.00330     616.4617     430.9423
   1413.98804     586.5779     420.9279   1413.98804     586.5779     420.9279
   1413.97278     582.2751     418.3895   1413.97278     582.2751     418.3895
   1413.95752     579.0402     417.6927   1413.95752     579.0402     417.6927
   1413.94226     576.2892     415.3036   1413.94226     576.2892     415.3036
   1413.92700     573.3103     413.2815   1413.92700     573.3103     413.2815
   1413.91174     571.6423     411.3324   1413.91174     571.6423     411.3324
   1413.89648     566.6016     410.4658   1413.89648     566.6016     410.4658
   1413.88123     565.2506     408.7008   1413.88123     565.2506     408.7008
   1413.86597     561.6731     407.0095   1413.86597     561.6731     407.0095
   1413.85071     559.9247     405.6536   1413.85071     559.9247     405.6536
   1413.83545     556.4247     403.8129   1413.83545     556.4247     403.8129
   1413.82019     554.2398     401.9207   1413.82019     554.2398     401.9207
   1413.80493     550.1449     400.4415   1413.80493     550.1449     400.4415
   1413.78967     548.6060     398.6071   1413.78967     548.6060     398.6071
   1413.77441     545.8243     397.5726   1413.77441     545.8243     397.5726
   1413.75916     542.4791     395.3799   1413.75916     542.4791     395.3799
   1413.74390     539.6958     393.9571   1413.74390     539.6958     393.9571
   1413.72864     537.2822     392.1147   1413.72864     537.2822     392.1147
   1413.71338     534.4619     390.0344   1413.71338     534.4619     390.0344
   1413.69812     532.1034     388.6608   1413.69812     532.1034     388.6608
   1413.68286     528.4626     386.4555   1413.68286     528.4626     386.4555
   1413.66760     525.4046     384.8757   1413.66760     525.4046     384.8757
   1413.65234     523.7703     382.8842   1413.65234     523.7703     382.8842
   1413.63708     520.4570     381.7614   1413.63708     520.4570     381.7614
   1413.62183     517.8901     380.4260   1413.62183     517.8901     380.4260
   1413.60657     515.0772     379.3127   1413.60657     515.0772     379.3127
   1413.59131     512.2681     376.8734   1413.59131     512.2681     376.8734
   1413.57605     509.4687     374.9308   1413.57605     509.4687     374.9308
   1413.56079     506.8170     373.5383   1413.56079     506.8170     373.5383
   1413.54553     503.8347     372.3488   1413.54553     503.8347     372.3488
   1413.53027     501.2914     370.3384   1413.53027     501.2914     370.3384
   1413.51501     497.9960     369.0927   1413.51501     497.9960     369.0927
   1413.49976     495.4656     366.8913   1413.49976     495.4656     366.8913
   1413.48450     493.3452     365.8521   1413.48450     493.3452     365.8521
   1413.46924     490.2077     363.3976   1413.46924     490.2077     363.3976
   1413.45398     487.5456     362.1319   1413.45398     487.5456     362.1319
   1413.43872     485.2144     360.6705   1413.43872     485.2144     360.6705
   1413.42346     482.2586     358.7953   1413.42346     482.2586     358.7953
   1413.40820     479.8048     357.7675   1413.40820     479.8048     357.7675
   1413.39294     476.2893     355.9131   1413.39294     476.2893     355.9131
   1413.37769     474.6441     354.7363   1413.37769     474.6441     354.7363
   1413.36243     471.6002     352.8007   1413.36243     471.6002     352.8007
   1413.34717     469.3839     351.2854   1413.34717     469.3839     351.2854
   1413.33191     467.4523     349.9165   1413.33191     467.4523     349.9165
   1413.31665     463.4922     348.5216   1413.31665     463.4922     348.5216
   1413.30139     461.9141     346.9003   1413.30139     461.9141     346.9003
   1413.28613     458.6271     345.6920   1413.28613     458.6271     345.6920
   1413.27087     456.2688     344.1781   1413.27087     456.2688     344.1781
   1413.25562     453.5891     343.2803   1413.25562     453.5891     343.2803
   1413.24036     452.0209     341.0430   1413.24036     452.0209     341.0430
   1413.22510     450.4358     340.3291   1413.22510     450.4358     340.3291
   1413.20984     446.7113     338.7325   1413.20984     446.7113     338.7325
   1413.19458     444.9759     337.6699   1413.19458     444.9759     337.6699
   1413.17932     442.2031     336.1900   1413.17932     442.2031     336.1900
   1413.16406     439.0370     334.8807   1413.16406     439.0370     334.8807
   1413.14880     436.7967     334.0527   1413.14880     436.7967     334.0527
   1413.13354     434.9160     332.7108   1413.13354     434.9160     332.7108
   1413.11829     432.6940     331.5001   1413.11829     432.6940     331.5001
   1413.10303     430.8953     330.4644   1413.10303     430.8953     330.4644
   1413.08777     427.7232     329.4624   1413.08777     427.7232     329.4624
   1413.07251     426.1082     327.6854   1413.07251     426.1082     327.6854
   1413.05725     424.4358     326.6681   1413.05725     424.4358     326.6681
   1413.04199     422.0386     325.7527   1413.04199     422.0386     325.7527
   1413.02673     419.8517     324.4953   1413.02673     419.8517     324.4953
   1413.01147     417.6972     323.7825   1413.01147     417.6972     323.7825
   1412.99622     416.0345     322.9757   1412.99622     416.0345     322.9757
   1412.98096     414.0974     321.6328   1412.98096     414.0974     321.6328
   1412.96570     411.9401     321.2728   1412.96570     411.9401     321.2728
   1412.95044     409.8890     320.2332   1412.95044     409.8890     320.2332
   1412.93518     408.6354     319.3005   1412.93518     408.6354     319.3005
   1412.91992     406.9110     318.5508   1412.91992     406.9110     318.5508
   1412.90466     405.5474     317.8924   1412.90466     405.5474     317.8924
   1412.88940     403.6555     317.5360   1412.88940     403.6555     317.5360
   1412.87415     401.3838     316.2867   1412.87415     401.3838     316.2867
   1412.85889     400.5150     316.4308   1412.85889     400.5150     316.4308
   1412.84363     398.5601     315.3275   1412.84363     398.5601     315.3275
   1412.82837     396.7314     314.9377   1412.82837     396.7314     314.9377
   1412.81311     395.2549     314.0967   1412.81311     395.2549     314.0967
   1412.79785     393.6015     313.2869   1412.79785     393.6015     313.2869
   1412.78259     392.5336     312.8698   1412.78259     392.5336     312.8698
   1412.76733     391.0581     312.9844   1412.76733     391.0581     312.9844
   1412.75208     389.6526     312.5140   1412.75208     389.6526     312.5140
   1412.73682     388.5176     311.9013   1412.73682     388.5176     311.9013
   1412.72156     387.3169     312.1462   1412.72156     387.3169     312.1462
   1412.70630     385.3814     311.4954   1412.70630     385.3814     311.4954
   1412.69104     385.1008     311.2378   1412.69104     385.1008     311.2378
   1412.67578     384.2719     311.2320   1412.67578     384.2719     311.2320
   1412.66052     381.9619     311.5458   1412.66052     381.9619     311.5458
   1412.64526     381.3610     311.0979   1412.64526     381.3610     311.0979
   1412.63000     380.4967     310.8946   1412.63000     380.4967     310.8946
   1412.61475     380.1746     311.1672   1412.61475     380.1746     311.1672
   1412.59949     379.3737     311.8874   1412.59949     379.3737     311.8874
   1412.58423     377.9197     310.8708   1412.58423     377.9197     310.8708
   1412.56897     377.5961     312.1328   1412.56897     377.5961     312.1328
   1412.55371     376.3829     311.7489   1412.55371     376.3829     311.7489
   1412.53845     376.6945     311.9602   1412.53845     376.6945     311.9602
   1412.52319     376.1637     312.2354   1412.52319     376.1637     312.2354
   1412.50793     375.0384     312.4530   1412.50793     375.0384     312.4530
   1412.49268     374.4743     313.1047   1412.49268     374.4743     313.1047
   1412.47742     374.5378     313.7528   1412.47742     374.5378     313.7528
   1412.46216     373.9227     313.9623   1412.46216     373.9227     313.9623
   1412.44690     373.5263     314.1961   1412.44690     373.5263     314.1961
   1412.43164     373.2634     314.8362   1412.43164     373.2634     314.8362
   1412.41638     373.3247     315.4437   1412.41638     373.3247     315.4437
   1412.40112     372.7162     316.4025   1412.40112     372.7162     316.4025
   1412.38586     372.5871     316.7235   1412.38586     372.5871     316.7235
   1412.37061     373.3140     317.3872   1412.37061     373.3140     317.3872
   1412.35535     373.6835     318.3648   1412.35535     373.6835     318.3648
   1412.34009     372.5227     318.8623   1412.34009     372.5227     318.8623
   1412.32483     373.3496     320.3336   1412.32483     373.3496     320.3336
   1412.30957     373.9262     321.1700   1412.30957     373.9262     321.1700
   1412.29431     373.6165     321.7373   1412.29431     373.6165     321.7373
   1412.27905     373.7545     322.5239   1412.27905     373.7545     322.5239
   1412.26379     374.1640     323.9002   1412.26379     374.1640     323.9002
   1412.24854     374.3116     324.8559   1412.24854     374.3116     324.8559
   1412.23328     374.8123     326.1959   1412.23328     374.8123     326.1959
   1412.21802     375.2957     326.7986   1412.21802     375.2957     326.7986
   1412.20276     376.0016     328.3625   1412.20276     376.0016     328.3625