#     FILENAME=!Skynet_57528_lach-hhg-143_20469_20967.cyb.fits
#     BASENAME=Skynet_57528_lach-hhg-143_20469_20967
#     SRC_NAME=lach-hhg-143
#     OBSERVER=hhgmadison16_9500
#     DATE_OBS=2016-05-20T17:23:33.370
#        OBSID=20469
#      SCANNUM=20967
#          MJD=57528.7257
#          UTC=62702
#     SCANTYPE=track
#     DATAMODE=HIRES
#     TUNEFREQ=1420.0000
# Actual_FREQ1=1420.0000
# Actual_FREQ2=1420.0000
#    LO1Tuning=6870.000
#     RFFILTER=1355_1435
#        OBSBW=-15.6250
#        NCHAN=1024 
#        FOCUS=37.0709
#           RA=03:26:14.69
#          DEC=56:42:55.00
#      RA(hrs)=3.437400
#     DEC(deg)=56.715300
#    AZIM(deg)=346.048
#    ELEV(deg)=70.838
#     IFattens=10.00, 9.00
#      WARNING=None
#    TCAL_XL1=7.9635
#    TCAL_YR1=9.1340
#    TCAL_XL2=7.9635
#    TCAL_YR2=9.1340
#     TRX_XL1=11.7060
#     TRX_YR1=11.7060
#     TRX_XL2=11.7060
#     TRX_YR2=11.7060
#        TAVE=1.0000
#Freq1(MHz)          XL1          YR1  Freq2(MHz)          XL2          YR2 

   1427.81250     379.9427     319.3725   1427.81250     379.9427     319.3725
   1427.79724     380.7235     320.9835   1427.79724     380.7235     320.9835
   1427.78198     381.7776     321.9583   1427.78198     381.7776     321.9583
   1427.76672     382.5457     323.0262   1427.76672     382.5457     323.0262
   1427.75146     383.5394     324.3992   1427.75146     383.5394     324.3992
   1427.73621     384.1384     325.8551   1427.73621     384.1384     325.8551
   1427.72095     384.8911     326.9784   1427.72095     384.8911     326.9784
   1427.70569     386.0420     328.5904   1427.70569     386.0420     328.5904
   1427.69043     387.1539     329.3408   1427.69043     387.1539     329.3408
   1427.67517     387.4984     331.1015   1427.67517     387.4984     331.1015
   1427.65991     389.1918     332.3216   1427.65991     389.1918     332.3216
   1427.64465     390.4601     334.2219   1427.64465     390.4601     334.2219
   1427.62939     391.3565     335.7027   1427.62939     391.3565     335.7027
   1427.61414     392.8788     337.7524   1427.61414     392.8788     337.7524
   1427.59888     394.1541     339.0737   1427.59888     394.1541     339.0737
   1427.58362     395.3446     341.1290   1427.58362     395.3446     341.1290
   1427.56836     397.0517     342.6170   1427.56836     397.0517     342.6170
   1427.55310     398.5711     344.0861   1427.55310     398.5711     344.0861
   1427.53784     400.9294     345.1279   1427.53784     400.9294     345.1279
   1427.52258     401.6924     347.5489   1427.52258     401.6924     347.5489
   1427.50732     403.2503     349.5716   1427.50732     403.2503     349.5716
   1427.49207     404.7224     351.3815   1427.49207     404.7224     351.3815
   1427.47681     407.0326     353.1624   1427.47681     407.0326     353.1624
   1427.46155     408.7255     356.0012   1427.46155     408.7255     356.0012
   1427.44629     410.5910     357.3244   1427.44629     410.5910     357.3244
   1427.43103     412.9831     359.2336   1427.43103     412.9831     359.2336
   1427.41577     414.3789     362.0246   1427.41577     414.3789     362.0246
   1427.40051     416.5183     362.5589   1427.40051     416.5183     362.5589
   1427.38525     418.4521     365.6387   1427.38525     418.4521     365.6387
   1427.37000     421.0259     367.7506   1427.37000     421.0259     367.7506
   1427.35474     423.0566     369.6809   1427.35474     423.0566     369.6809
   1427.33948     424.8716     371.9418   1427.33948     424.8716     371.9418
   1427.32422     427.4993     374.2275   1427.32422     427.4993     374.2275
   1427.30896     429.8257     376.2034   1427.30896     429.8257     376.2034
   1427.29370     432.2395     378.5828   1427.29370     432.2395     378.5828
   1427.27844     434.1646     381.1679   1427.27844     434.1646     381.1679
   1427.26318     436.4510     383.3947   1427.26318     436.4510     383.3947
   1427.24792     438.5436     385.5029   1427.24792     438.5436     385.5029
   1427.23267     441.2421     387.5487   1427.23267     441.2421     387.5487
   1427.21741     443.8293     390.7683   1427.21741     443.8293     390.7683
   1427.20215     447.3013     392.7336   1427.20215     447.3013     392.7336
   1427.18689     448.8306     394.7566   1427.18689     448.8306     394.7566
   1427.17163     451.5396     397.5197   1427.17163     451.5396     397.5197
   1427.15637     453.8998     399.4470   1427.15637     453.8998     399.4470
   1427.14111     456.8951     401.4496   1427.14111     456.8951     401.4496
   1427.12585     459.6196     405.0277   1427.12585     459.6196     405.0277
   1427.11060     462.3647     407.2844   1427.11060     462.3647     407.2844
   1427.09534     464.9241     409.4870   1427.09534     464.9241     409.4870
   1427.08008     467.7626     412.1437   1427.08008     467.7626     412.1437
   1427.06482     471.0108     414.3539   1427.06482     471.0108     414.3539
   1427.04956     472.9019     417.2061   1427.04956     472.9019     417.2061
   1427.03430     476.5033     419.9735   1427.03430     476.5033     419.9735
   1427.01904     478.8702     421.9227   1427.01904     478.8702     421.9227
   1427.00378     482.3863     424.4897   1427.00378     482.3863     424.4897
   1426.98853     484.6407     426.8952   1426.98853     484.6407     426.8952
   1426.97327     487.4399     429.5381   1426.97327     487.4399     429.5381
   1426.95801     491.7525     431.8134   1426.95801     491.7525     431.8134
   1426.94275     494.4475     434.7381   1426.94275     494.4475     434.7381
   1426.92749     497.0353     436.9481   1426.92749     497.0353     436.9481
   1426.91223     499.3273     438.7715   1426.91223     499.3273     438.7715
   1426.89697     503.3627     442.7442   1426.89697     503.3627     442.7442
   1426.88171     505.1299     445.1217   1426.88171     505.1299     445.1217
   1426.86646     509.2113     447.6901   1426.86646     509.2113     447.6901
   1426.85120     512.4107     449.0154   1426.85120     512.4107     449.0154
   1426.83594     514.7890     452.3191   1426.83594     514.7890     452.3191
   1426.82068     518.5792     453.9173   1426.82068     518.5792     453.9173
   1426.80542     521.6866     456.8837   1426.80542     521.6866     456.8837
   1426.79016     525.4231     459.8333   1426.79016     525.4231     459.8333
   1426.77490     528.4394     462.3051   1426.77490     528.4394     462.3051
   1426.75964     531.1657     464.3606   1426.75964     531.1657     464.3606
   1426.74438     534.4708     466.8504   1426.74438     534.4708     466.8504
   1426.72913     537.7597     469.3174   1426.72913     537.7597     469.3174
   1426.71387     540.1315     472.3286   1426.71387     540.1315     472.3286
   1426.69861     544.5604     474.3900   1426.69861     544.5604     474.3900
   1426.68335     548.1063     476.5134   1426.68335     548.1063     476.5134
   1426.66809     550.0279     479.5298   1426.66809     550.0279     479.5298
   1426.65283     553.7725     480.9745   1426.65283     553.7725     480.9745
   1426.63757     556.7885     484.5983   1426.63757     556.7885     484.5983
   1426.62231     563.5295     502.7593   1426.62231     563.5295     502.7593
   1426.60706     564.3817     491.1328   1426.60706     564.3817     491.1328
   1426.59180     566.8888     491.4233   1426.59180     566.8888     491.4233
   1426.57654     570.7402     494.0704   1426.57654     570.7402     494.0704
   1426.56128     573.6184     495.7184   1426.56128     573.6184     495.7184
   1426.54602     577.2264     498.2895   1426.54602     577.2264     498.2895
   1426.53076     579.4823     501.0285   1426.53076     579.4823     501.0285
   1426.51550     582.6436     502.8758   1426.51550     582.6436     502.8758
   1426.50024     585.6501     505.4695   1426.50024     585.6501     505.4695
   1426.48499     589.6658     507.8445   1426.48499     589.6658     507.8445
   1426.46973     592.5007     509.5385   1426.46973     592.5007     509.5385
   1426.45447     595.2981     512.3575   1426.45447     595.2981     512.3575
   1426.43921     599.4365     514.7438   1426.43921     599.4365     514.7438
   1426.42395     602.4713     515.8628   1426.42395     602.4713     515.8628
   1426.40869     605.4364     517.8751   1426.40869     605.4364     517.8751
   1426.39343     607.6064     520.0641   1426.39343     607.6064     520.0641
   1426.37817     612.1465     523.0712   1426.37817     612.1465     523.0712
   1426.36292     615.3365     525.2868   1426.36292     615.3365     525.2868
   1426.34766     616.8780     526.7930   1426.34766     616.8780     526.7930
   1426.33240     621.0552     528.6719   1426.33240     621.0552     528.6719
   1426.31714     623.6152     531.4768   1426.31714     623.6152     531.4768
   1426.30188     627.7391     533.5587   1426.30188     627.7391     533.5587
   1426.28662     630.2029     535.2576   1426.28662     630.2029     535.2576
   1426.27136     633.9345     537.9864   1426.27136     633.9345     537.9864
   1426.25610     636.8110     540.0068   1426.25610     636.8110     540.0068
   1426.24084     640.0156     541.0404   1426.24084     640.0156     541.0404
   1426.22559     641.6910     543.4251   1426.22559     641.6910     543.4251
   1426.21033     645.2704     545.9951   1426.21033     645.2704     545.9951
   1426.19507     647.9824     546.8060   1426.19507     647.9824     546.8060
   1426.17981     652.7075     548.5512   1426.17981     652.7075     548.5512
   1426.16455     654.8976     551.3340   1426.16455     654.8976     551.3340
   1426.14929     656.5930     552.2803   1426.14929     656.5930     552.2803
   1426.13403     660.5465     554.5483   1426.13403     660.5465     554.5483
   1426.11877     661.7684     556.3016   1426.11877     661.7684     556.3016
   1426.10352     665.2055     558.1634   1426.10352     665.2055     558.1634
   1426.08826     668.8599     560.3312   1426.08826     668.8599     560.3312
   1426.07300     671.5706     561.9594   1426.07300     671.5706     561.9594
   1426.05774     674.1830     563.1497   1426.05774     674.1830     563.1497
   1426.04248     677.2083     565.2101   1426.04248     677.2083     565.2101
   1426.02722     679.1282     567.4324   1426.02722     679.1282     567.4324
   1426.01196     682.9327     569.0690   1426.01196     682.9327     569.0690
   1425.99670     684.5285     570.1449   1425.99670     684.5285     570.1449
   1425.98145     687.0904     571.3541   1425.98145     687.0904     571.3541
   1425.96619     689.7154     573.9840   1425.96619     689.7154     573.9840
   1425.95093     692.3404     574.9473   1425.95093     692.3404     574.9473
   1425.93567     695.2299     577.6129   1425.93567     695.2299     577.6129
   1425.92041     698.0126     577.8276   1425.92041     698.0126     577.8276
   1425.90515     699.6434     579.3072   1425.90515     699.6434     579.3072
   1425.88989     703.2084     580.7103   1425.88989     703.2084     580.7103
   1425.87463     705.0642     581.7197   1425.87463     705.0642     581.7197
   1425.85938     707.2299     583.2369   1425.85938     707.2299     583.2369
   1425.84412     708.7531     585.7779   1425.84412     708.7531     585.7779
   1425.82886     711.3322     586.7849   1425.82886     711.3322     586.7849
   1425.81360     713.6453     587.2139   1425.81360     713.6453     587.2139
   1425.79834     717.8517     589.7384   1425.79834     717.8517     589.7384
   1425.78308     719.6415     590.0367   1425.78308     719.6415     590.0367
   1425.76782     720.1607     590.9825   1425.76782     720.1607     590.9825
   1425.75256     721.8771     593.5784   1425.75256     721.8771     593.5784
   1425.73730     725.2618     593.8732   1425.73730     725.2618     593.8732
   1425.72205     726.9726     594.7666   1425.72205     726.9726     594.7666
   1425.70679     728.3181     596.3981   1425.70679     728.3181     596.3981
   1425.69153     729.8415     598.3832   1425.69153     729.8415     598.3832
   1425.67627     732.7297     598.9233   1425.67627     732.7297     598.9233
   1425.66101     734.5068     600.9014   1425.66101     734.5068     600.9014
   1425.64575     735.4163     601.4874   1425.64575     735.4163     601.4874
   1425.63049     737.7142     602.6885   1425.63049     737.7142     602.6885
   1425.61523     741.7761     603.5684   1425.61523     741.7761     603.5684
   1425.59998     742.1398     604.0068   1425.59998     742.1398     604.0068
   1425.58472     743.0312     604.7770   1425.58472     743.0312     604.7770
   1425.56946     744.7141     605.6449   1425.56946     744.7141     605.6449
   1425.55420     746.6152     607.8551   1425.55420     746.6152     607.8551
   1425.53894     748.4554     607.8127   1425.53894     748.4554     607.8127
   1425.52368     750.8561     607.7919   1425.52368     750.8561     607.7919
   1425.50842     751.3353     610.2058   1425.50842     751.3353     610.2058
   1425.49316     754.5551     609.8416   1425.49316     754.5551     609.8416
   1425.47791     755.8791     610.9230   1425.47791     755.8791     610.9230
   1425.46265     756.2485     612.3128   1425.46265     756.2485     612.3128
   1425.44739     757.1601     612.8528   1425.44739     757.1601     612.8528
   1425.43213     757.7280     614.0110   1425.43213     757.7280     614.0110
   1425.41687     760.9008     615.8666   1425.41687     760.9008     615.8666
   1425.40161     762.1823     616.4567   1425.40161     762.1823     616.4567
   1425.38635     763.8207     617.2054   1425.38635     763.8207     617.2054
   1425.37109     764.8742     617.7479   1425.37109     764.8742     617.7479
   1425.35583     766.0402     617.8702   1425.35583     766.0402     617.8702
   1425.34058     766.5348     617.8192   1425.34058     766.5348     617.8192
   1425.32532     767.2828     619.0573   1425.32532     767.2828     619.0573
   1425.31006     769.5763     619.6422   1425.31006     769.5763     619.6422
   1425.29480     769.1686     619.8952   1425.29480     769.1686     619.8952
   1425.27954     771.5929     621.9015   1425.27954     771.5929     621.9015
   1425.26428     772.8687     622.2277   1425.26428     772.8687     622.2277
   1425.24902     774.2021     623.0147   1425.24902     774.2021     623.0147
   1425.23376     775.5850     622.9807   1425.23376     775.5850     622.9807
   1425.21851     776.6141     624.7253   1425.21851     776.6141     624.7253
   1425.20325     777.2839     623.7700   1425.20325     777.2839     623.7700
   1425.18799     777.6008     623.7089   1425.18799     777.6008     623.7089
   1425.17273     778.0908     624.7317   1425.17273     778.0908     624.7317
   1425.15747     778.4120     625.2634   1425.15747     778.4120     625.2634
   1425.14221     778.7997     627.3630   1425.14221     778.7997     627.3630
   1425.12695     780.8703     627.2391   1425.12695     780.8703     627.2391
   1425.11169     781.8444     627.3564   1425.11169     781.8444     627.3564
   1425.09644     781.5312     627.3195   1425.09644     781.5312     627.3195
   1425.08118     782.9086     627.8423   1425.08118     782.9086     627.8423
   1425.06592     784.0537     627.9364   1425.06592     784.0537     627.9364
   1425.05066     783.5049     628.8663   1425.05066     783.5049     628.8663
   1425.03540     785.0501     630.5505   1425.03540     785.0501     630.5505
   1425.02014     785.4475     629.4417   1425.02014     785.4475     629.4417
   1425.00488     786.1645     630.5463   1425.00488     786.1645     630.5463
   1424.98962     787.6760     630.0059   1424.98962     787.6760     630.0059
   1424.97437     785.9577     630.4753   1424.97437     785.9577     630.4753
   1424.95911     786.7938     631.6014   1424.95911     786.7938     631.6014
   1424.94385     788.1684     630.0724   1424.94385     788.1684     630.0724
   1424.92859     788.0842     630.9130   1424.92859     788.0842     630.9130
   1424.91333     788.2496     631.6886   1424.91333     788.2496     631.6886
   1424.89807     788.8174     630.8782   1424.89807     788.8174     630.8782
   1424.88281     788.3324     631.8334   1424.88281     788.3324     631.8334
   1424.86755     789.4174     631.7476   1424.86755     789.4174     631.7476
   1424.85229     790.3378     631.9196   1424.85229     790.3378     631.9196
   1424.83704     788.6978     632.4786   1424.83704     788.6978     632.4786
   1424.82178     789.7461     632.4612   1424.82178     789.7461     632.4612
   1424.80652     789.6215     633.0938   1424.80652     789.6215     633.0938
   1424.79126     790.3275     632.6375   1424.79126     790.3275     632.6375
   1424.77600     790.1675     633.1021   1424.77600     790.1675     633.1021
   1424.76074     791.1915     632.4741   1424.76074     791.1915     632.4741
   1424.74548     790.5131     633.2767   1424.74548     790.5131     633.2767
   1424.73022     791.9698     632.7341   1424.73022     791.9698     632.7341
   1424.71497     790.9945     633.7206   1424.71497     790.9945     633.7206
   1424.69971     789.7190     633.2838   1424.69971     789.7190     633.2838
   1424.68445     790.5650     632.8278   1424.68445     790.5650     632.8278
   1424.66919     791.3499     633.3389   1424.66919     791.3499     633.3389
   1424.65393     791.0504     633.6909   1424.65393     791.0504     633.6909
   1424.63867     791.2486     633.7620   1424.63867     791.2486     633.7620
   1424.62341     791.0911     634.0785   1424.62341     791.0911     634.0785
   1424.60815     790.1688     634.2582   1424.60815     790.1688     634.2582
   1424.59290     790.5425     633.4359   1424.59290     790.5425     633.4359
   1424.57764     789.7786     633.2855   1424.57764     789.7786     633.2855
   1424.56238     790.5068     633.7993   1424.56238     790.5068     633.7993
   1424.54712     788.7083     633.9675   1424.54712     788.7083     633.9675
   1424.53186     789.2498     635.4816   1424.53186     789.2498     635.4816
   1424.51660     789.0625     633.6588   1424.51660     789.0625     633.6588
   1424.50134     789.7144     633.3006   1424.50134     789.7144     633.3006
   1424.48608     789.0161     633.1741   1424.48608     789.0161     633.1741
   1424.47083     790.1780     632.7902   1424.47083     790.1780     632.7902
   1424.45557     788.7435     634.7199   1424.45557     788.7435     634.7199
   1424.44031     789.1763     633.5087   1424.44031     789.1763     633.5087
   1424.42505     787.8640     633.0105   1424.42505     787.8640     633.0105
   1424.40979     787.4440     633.2380   1424.40979     787.4440     633.2380
   1424.39453     788.4517     633.5647   1424.39453     788.4517     633.5647
   1424.37927     786.7288     632.6738   1424.37927     786.7288     632.6738
   1424.36401     787.5576     632.5335   1424.36401     787.5576     632.5335
   1424.34875     785.8931     633.5456   1424.34875     785.8931     633.5456
   1424.33350     786.7920     632.3889   1424.33350     786.7920     632.3889
   1424.31824     785.8943     632.7933   1424.31824     785.8943     632.7933
   1424.30298     785.5898     631.6942   1424.30298     785.5898     631.6942
   1424.28772     785.3499     632.1699   1424.28772     785.3499     632.1699
   1424.27246     784.3314     631.9398   1424.27246     784.3314     631.9398
   1424.25720     783.4616     631.5794   1424.25720     783.4616     631.5794
   1424.24194     783.4652     632.6508   1424.24194     783.4652     632.6508
   1424.22668     783.4022     631.3960   1424.22668     783.4022     631.3960
   1424.21143     784.0191     630.9692   1424.21143     784.0191     630.9692
   1424.19617     783.4634     631.4638   1424.19617     783.4634     631.4638
   1424.18091     781.3530     631.3537   1424.18091     781.3530     631.3537
   1424.16565     781.7687     630.4158   1424.16565     781.7687     630.4158
   1424.15039     781.4836     630.5994   1424.15039     781.4836     630.5994
   1424.13513     781.4128     629.9669   1424.13513     781.4128     629.9669
   1424.11987     780.3605     628.4485   1424.11987     780.3605     628.4485
   1424.10461     779.8039     629.5831   1424.10461     779.8039     629.5831
   1424.08936     780.6061     629.6677   1424.08936     780.6061     629.6677
   1424.07410     779.8590     628.9301   1424.07410     779.8590     628.9301
   1424.05884     778.6528     628.9135   1424.05884     778.6528     628.9135
   1424.04358     778.1829     628.8429   1424.04358     778.1829     628.8429
   1424.02832     777.5684     627.9788   1424.02832     777.5684     627.9788
   1424.01306     777.1569     627.2281   1424.01306     777.1569     627.2281
   1423.99780     776.5255     627.6959   1423.99780     776.5255     627.6959
   1423.98254     775.8419     627.1536   1423.98254     775.8419     627.1536
   1423.96729     775.1544     626.9694   1423.96729     775.1544     626.9694
   1423.95203     775.0456     626.4475   1423.95203     775.0456     626.4475
   1423.93677     773.6138     626.0368   1423.93677     773.6138     626.0368
   1423.92151     773.1943     626.7574   1423.92151     773.1943     626.7574
   1423.90625     771.5635     625.0598   1423.90625     771.5635     625.0598
   1423.89099     772.5668     624.7502   1423.89099     772.5668     624.7502
   1423.87573     770.8045     624.9091   1423.87573     770.8045     624.9091
   1423.86047     769.2436     624.1487   1423.86047     769.2436     624.1487
   1423.84521     770.5853     623.6257   1423.84521     770.5853     623.6257
   1423.82996     770.3370     622.9027   1423.82996     770.3370     622.9027
   1423.81470     769.7511     622.2004   1423.81470     769.7511     622.2004
   1423.79944     769.3185     621.8443   1423.79944     769.3185     621.8443
   1423.78418     767.3443     622.3402   1423.78418     767.3443     622.3402
   1423.76892     766.9235     620.9437   1423.76892     766.9235     620.9437
   1423.75366     766.9591     621.5717   1423.75366     766.9591     621.5717
   1423.73840     767.6281     620.0683   1423.73840     767.6281     620.0683
   1423.72314     765.4092     619.0014   1423.72314     765.4092     619.0014
   1423.70789     765.5409     620.9343   1423.70789     765.5409     620.9343
   1423.69263     764.6417     619.1608   1423.69263     764.6417     619.1608
   1423.67737     766.1947     618.5508   1423.67737     766.1947     618.5508
   1423.66211     762.5597     618.0615   1423.66211     762.5597     618.0615
   1423.64685     762.7603     618.5867   1423.64685     762.7603     618.5867
   1423.63159     762.5656     617.4877   1423.63159     762.5656     617.4877
   1423.61633     762.0891     616.2722   1423.61633     762.0891     616.2722
   1423.60107     760.8246     616.2761   1423.60107     760.8246     616.2761
   1423.58582     760.8249     616.4535   1423.58582     760.8249     616.4535
   1423.57056     760.4309     615.8257   1423.57056     760.4309     615.8257
   1423.55530     759.1365     615.9974   1423.55530     759.1365     615.9974
   1423.54004     758.5377     613.5417   1423.54004     758.5377     613.5417
   1423.52478     759.1136     613.4340   1423.52478     759.1136     613.4340
   1423.50952     758.5286     613.4371   1423.50952     758.5286     613.4371
   1423.49426     757.2118     612.1437   1423.49426     757.2118     612.1437
   1423.47900     758.0608     612.0249   1423.47900     758.0608     612.0249
   1423.46375     754.8303     611.1186   1423.46375     754.8303     611.1186
   1423.44849     755.4695     611.6317   1423.44849     755.4695     611.6317
   1423.43323     754.6077     610.4949   1423.43323     754.6077     610.4949
   1423.41797     755.4241     609.9134   1423.41797     755.4241     609.9134
   1423.40271     752.8560     608.8360   1423.40271     752.8560     608.8360
   1423.38745     752.9675     608.4445   1423.38745     752.9675     608.4445
   1423.37219     753.0057     608.6823   1423.37219     753.0057     608.6823
   1423.35693     751.0701     607.1454   1423.35693     751.0701     607.1454
   1423.34167     752.3055     607.3005   1423.34167     752.3055     607.3005
   1423.32642     751.4984     606.7453   1423.32642     751.4984     606.7453
   1423.31116     750.0364     604.8940   1423.31116     750.0364     604.8940
   1423.29590     750.2534     603.6993   1423.29590     750.2534     603.6993
   1423.28064     748.5770     604.2542   1423.28064     748.5770     604.2542
   1423.26538     749.4610     603.5529   1423.26538     749.4610     603.5529
   1423.25012     748.9523     603.2421   1423.25012     748.9523     603.2421
   1423.23486     748.0225     603.3110   1423.23486     748.0225     603.3110
   1423.21960     747.4392     600.8596   1423.21960     747.4392     600.8596
   1423.20435     745.8038     600.6904   1423.20435     745.8038     600.6904
   1423.18909     745.9763     600.1438   1423.18909     745.9763     600.1438
   1423.17383     747.1201     598.5411   1423.17383     747.1201     598.5411
   1423.15857     745.7498     599.5109   1423.15857     745.7498     599.5109
   1423.14331     744.9203     597.2379   1423.14331     744.9203     597.2379
   1423.12805     744.0618     597.7474   1423.12805     744.0618     597.7474
   1423.11279     744.3635     596.6422   1423.11279     744.3635     596.6422
   1423.09753     742.9418     595.0408   1423.09753     742.9418     595.0408
   1423.08228     742.4969     595.7985   1423.08228     742.4969     595.7985
   1423.06702     743.1900     593.7783   1423.06702     743.1900     593.7783
   1423.05176     740.5261     594.0408   1423.05176     740.5261     594.0408
   1423.03650     741.6636     592.5565   1423.03650     741.6636     592.5565
   1423.02124     740.9078     591.1652   1423.02124     740.9078     591.1652
   1423.00598     740.3674     591.0082   1423.00598     740.3674     591.0082
   1422.99072     740.2256     590.2062   1422.99072     740.2256     590.2062
   1422.97546     740.0867     588.9792   1422.97546     740.0867     588.9792
   1422.96021     739.3441     587.9554   1422.96021     739.3441     587.9554
   1422.94495     738.9186     588.5620   1422.94495     738.9186     588.5620
   1422.92969     737.6406     587.4428   1422.92969     737.6406     587.4428
   1422.91443     737.9486     586.4388   1422.91443     737.9486     586.4388
   1422.89917     736.2491     584.7673   1422.89917     736.2491     584.7673
   1422.88391     737.0950     586.1163   1422.88391     737.0950     586.1163
   1422.86865     737.1277     584.3256   1422.86865     737.1277     584.3256
   1422.85339     736.8307     582.6463   1422.85339     736.8307     582.6463
   1422.83813     736.3311     582.0145   1422.83813     736.3311     582.0145
   1422.82288     736.3323     581.6261   1422.82288     736.3323     581.6261
   1422.80762     735.8510     581.0579   1422.80762     735.8510     581.0579
   1422.79236     735.2122     580.1501   1422.79236     735.2122     580.1501
   1422.77710     734.5923     579.7809   1422.77710     734.5923     579.7809
   1422.76184     734.2866     578.4620   1422.76184     734.2866     578.4620
   1422.74658     734.4980     577.1347   1422.74658     734.4980     577.1347
   1422.73132     733.8514     575.8661   1422.73132     733.8514     575.8661
   1422.71606     733.5988     575.0441   1422.71606     733.5988     575.0441
   1422.70081     732.9565     574.2639   1422.70081     732.9565     574.2639
   1422.68555     732.8419     574.2925   1422.68555     732.8419     574.2925
   1422.67029     732.9850     572.5488   1422.67029     732.9850     572.5488
   1422.65503     731.7952     572.3263   1422.65503     731.7952     572.3263
   1422.63977     731.3078     570.8133   1422.63977     731.3078     570.8133
   1422.62451     731.3567     569.7686   1422.62451     731.3567     569.7686
   1422.60925     730.2990     569.2745   1422.60925     730.2990     569.2745
   1422.59399     730.6339     568.0910   1422.59399     730.6339     568.0910
   1422.57874     730.2657     567.0699   1422.57874     730.2657     567.0699
   1422.56348     729.8558     566.9802   1422.56348     729.8558     566.9802
   1422.54822     728.6655     566.4565   1422.54822     728.6655     566.4565
   1422.53296     728.9207     564.9939   1422.53296     728.9207     564.9939
   1422.51770     728.5985     563.8360   1422.51770     728.5985     563.8360
   1422.50244     728.4214     563.2745   1422.50244     728.4214     563.2745
   1422.48718     728.3437     562.2349   1422.48718     728.3437     562.2349
   1422.47192     726.9835     561.1542   1422.47192     726.9835     561.1542
   1422.45667     729.5821     559.7687   1422.45667     729.5821     559.7687
   1422.44141     727.9304     558.7739   1422.44141     727.9304     558.7739
   1422.42615     727.3958     558.1826   1422.42615     727.3958     558.1826
   1422.41089     727.2714     556.8594   1422.41089     727.2714     556.8594
   1422.39563     726.7599     556.0125   1422.39563     726.7599     556.0125
   1422.38037     726.3305     555.4503   1422.38037     726.3305     555.4503
   1422.36511     726.0462     554.2491   1422.36511     726.0462     554.2491
   1422.34985     725.6528     553.6099   1422.34985     725.6528     553.6099
   1422.33459     726.0916     551.9777   1422.33459     726.0916     551.9777
   1422.31934     726.1404     551.8134   1422.31934     726.1404     551.8134
   1422.30408     725.3945     550.2653   1422.30408     725.3945     550.2653
   1422.28882     724.6433     549.8441   1422.28882     724.6433     549.8441
   1422.27356     724.8229     548.7564   1422.27356     724.8229     548.7564
   1422.25830     724.8340     548.2411   1422.25830     724.8340     548.2411
   1422.24304     728.4439     549.3491   1422.24304     728.4439     549.3491
   1422.22778     725.8610     546.5843   1422.22778     725.8610     546.5843
   1422.21252     724.2913     544.6807   1422.21252     724.2913     544.6807
   1422.19727     724.6155     543.0494   1422.19727     724.6155     543.0494
   1422.18201     725.0890     541.8064   1422.18201     725.0890     541.8064
   1422.16675     724.3005     541.7548   1422.16675     724.3005     541.7548
   1422.15149     722.7731     540.6198   1422.15149     722.7731     540.6198
   1422.13623     723.3494     539.4822   1422.13623     723.3494     539.4822
   1422.12097     721.7815     538.5513   1422.12097     721.7815     538.5513
   1422.10571     722.4614     537.6458   1422.10571     722.4614     537.6458
   1422.09045     722.3533     536.4735   1422.09045     722.3533     536.4735
   1422.07520     722.3855     536.4317   1422.07520     722.3855     536.4317
   1422.05994     723.5469     534.5753   1422.05994     723.5469     534.5753
   1422.04468     722.5551     534.1112   1422.04468     722.5551     534.1112
   1422.02942     722.9338     532.3458   1422.02942     722.9338     532.3458
   1422.01416     721.9164     531.3712   1422.01416     721.9164     531.3712
   1421.99890     721.6218     529.3542   1421.99890     721.6218     529.3542
   1421.98364     720.9760     530.3425   1421.98364     720.9760     530.3425
   1421.96838     721.6003     527.9341   1421.96838     721.6003     527.9341
   1421.95312     720.6295     527.4175   1421.95312     720.6295     527.4175
   1421.93787     721.6472     526.8005   1421.93787     721.6472     526.8005
   1421.92261     721.5709     525.0413   1421.92261     721.5709     525.0413
   1421.90735     720.0829     524.1904   1421.90735     720.0829     524.1904
   1421.89209     720.6406     522.4610   1421.89209     720.6406     522.4610
   1421.87683     719.5651     522.2155   1421.87683     719.5651     522.2155
   1421.86157     720.9457     521.4241   1421.86157     720.9457     521.4241
   1421.84631     720.5038     519.2979   1421.84631     720.5038     519.2979
   1421.83105     720.0492     519.0348   1421.83105     720.0492     519.0348
   1421.81580     720.2426     517.4515   1421.81580     720.2426     517.4515
   1421.80054     720.5678     516.5167   1421.80054     720.5678     516.5167
   1421.78528     719.5564     515.7372   1421.78528     719.5564     515.7372
   1421.77002     719.0751     514.7305   1421.77002     719.0751     514.7305
   1421.75476     719.5859     514.2705   1421.75476     719.5859     514.2705
   1421.73950     719.0993     512.8031   1421.73950     719.0993     512.8031
   1421.72424     718.6436     511.8951   1421.72424     718.6436     511.8951
   1421.70898     718.2412     510.8300   1421.70898     718.2412     510.8300
   1421.69373     718.4438     510.6908   1421.69373     718.4438     510.6908
   1421.67847     719.1033     509.5404   1421.67847     719.1033     509.5404
   1421.66321     718.8270     507.6486   1421.66321     718.8270     507.6486
   1421.64795     718.9091     505.7815   1421.64795     718.9091     505.7815
   1421.63269     718.1791     504.5815   1421.63269     718.1791     504.5815
   1421.61743     718.5618     504.9472   1421.61743     718.5618     504.9472
   1421.60217     718.3652     502.9290   1421.60217     718.3652     502.9290
   1421.58691     716.2445     501.9618   1421.58691     716.2445     501.9618
   1421.57166     717.0460     500.7955   1421.57166     717.0460     500.7955
   1421.55640     717.4479     499.3125   1421.55640     717.4479     499.3125
   1421.54114     716.7606     499.0411   1421.54114     716.7606     499.0411
   1421.52588     718.2206     497.9560   1421.52588     718.2206     497.9560
   1421.51062     717.1907     497.1744   1421.51062     717.1907     497.1744
   1421.49536     717.7199     496.4370   1421.49536     717.7199     496.4370
   1421.48010     716.3956     494.6750   1421.48010     716.3956     494.6750
   1421.46484     716.4811     494.2287   1421.46484     716.4811     494.2287
   1421.44958     716.8519     492.9546   1421.44958     716.8519     492.9546
   1421.43433     717.4030     491.4298   1421.43433     717.4030     491.4298
   1421.41907     715.9317     490.0934   1421.41907     715.9317     490.0934
   1421.40381     716.1465     489.4590   1421.40381     716.1465     489.4590
   1421.38855     716.4399     488.4446   1421.38855     716.4399     488.4446
   1421.37329     716.3587     488.0865   1421.37329     716.3587     488.0865
   1421.35803     715.6288     486.9626   1421.35803     715.6288     486.9626
   1421.34277     714.6829     485.4512   1421.34277     714.6829     485.4512
   1421.32751     715.8538     484.6237   1421.32751     715.8538     484.6237
   1421.31226     715.5560     483.6462   1421.31226     715.5560     483.6462
   1421.29700     715.7056     482.5375   1421.29700     715.7056     482.5375
   1421.28174     714.9095     481.7972   1421.28174     714.9095     481.7972
   1421.26648     715.3033     480.7216   1421.26648     715.3033     480.7216
   1421.25122     714.7135     478.6326   1421.25122     714.7135     478.6326
   1421.23596     714.5982     478.5414   1421.23596     714.5982     478.5414
   1421.22070     714.8812     477.9564   1421.22070     714.8812     477.9564
   1421.20544     715.5641     476.6617   1421.20544     715.5641     476.6617
   1421.19019     714.4850     475.0186   1421.19019     714.4850     475.0186
   1421.17493     714.0836     474.5109   1421.17493     714.0836     474.5109
   1421.15967     714.3544     473.6442   1421.15967     714.3544     473.6442
   1421.14441     713.1974     471.6911   1421.14441     713.1974     471.6911
   1421.12915     714.1974     471.1152   1421.12915     714.1974     471.1152
   1421.11389     714.1948     470.9042   1421.11389     714.1948     470.9042
   1421.09863     714.5193     470.2616   1421.09863     714.5193     470.2616
   1421.08337     714.6475     468.8794   1421.08337     714.6475     468.8794
   1421.06812     714.1406     468.4314   1421.06812     714.1406     468.4314
   1421.05286     716.4998     468.3447   1421.05286     716.4998     468.3447
   1421.03760     716.7454     468.4288   1421.03760     716.7454     468.4288
   1421.02234     716.9963     467.7381   1421.02234     716.9963     467.7381
   1421.00708     718.2654     466.9695   1421.00708     718.2654     466.9695
   1420.99182     718.4700     466.1277   1420.99182     718.4700     466.1277
   1420.97656     719.7908     466.7844   1420.97656     719.7908     466.7844
   1420.96130     720.5226     465.4064   1420.96130     720.5226     465.4064
   1420.94604     720.5292     464.9510   1420.94604     720.5292     464.9510
   1420.93079     720.8262     465.2718   1420.93079     720.8262     465.2718
   1420.91553     723.3683     465.1063   1420.91553     723.3683     465.1063
   1420.90027     726.9406     466.4378   1420.90027     726.9406     466.4378
   1420.88501     732.6347     469.4194   1420.88501     732.6347     469.4194
   1420.86975     744.5958     476.5006   1420.86975     744.5958     476.5006
   1420.85449     762.4520     486.9056   1420.85449     762.4520     486.9056
   1420.83923     779.5091     495.7574   1420.83923     779.5091     495.7574
   1420.82397     815.3262     515.7354   1420.82397     815.3262     515.7354
   1420.80872     904.7313     570.2311   1420.80872     904.7313     570.2311
   1420.79346    1082.8721     677.3500   1420.79346    1082.8721     677.3500
   1420.77820    1225.1825     765.2998   1420.77820    1225.1825     765.2998
   1420.76294    1240.6133     773.5736   1420.76294    1240.6133     773.5736
   1420.74768    1116.3785     696.1342   1420.74768    1116.3785     696.1342
   1420.73242    1043.5645     650.9241   1420.73242    1043.5645     650.9241
   1420.71716     983.1594     613.6268   1420.71716     983.1594     613.6268
   1420.70190     932.1338     580.1870   1420.70190     932.1338     580.1870
   1420.68665     989.1308     614.3883   1420.68665     989.1308     614.3883
   1420.67139    1105.2677     684.6265   1420.67139    1105.2677     684.6265
   1420.65613    1283.0989     790.9315   1420.65613    1283.0989     790.9315
   1420.64087    1540.4220     944.6542   1420.64087    1540.4220     944.6542
   1420.62561    2085.5852    1271.5214   1420.62561    2085.5852    1271.5214
   1420.61035    2538.8706    1541.5632   1420.61035    2538.8706    1541.5632
   1420.59509    2654.3892    1609.6056   1420.59509    2654.3892    1609.6056
   1420.57983    2585.7227    1564.8433   1420.57983    2585.7227    1564.8433
   1420.56458    2409.8308    1456.8833   1420.56458    2409.8308    1456.8833
   1420.54932    2167.3435    1310.8496   1420.54932    2167.3435    1310.8496
   1420.53406    1859.6064    1124.9124   1420.53406    1859.6064    1124.9124
   1420.51880    1534.8241     926.3090   1420.51880    1534.8241     926.3090
   1420.50354    1587.6810     955.5923   1420.50354    1587.6810     955.5923
   1420.48828    1795.2322    1078.2820   1420.48828    1795.2322    1078.2820
   1420.47302    1976.3615    1184.8925   1420.47302    1976.3615    1184.8925
   1420.45776    1961.4635    1174.4127   1420.45776    1961.4635    1174.4127
   1420.44250    1689.1552    1011.8999   1420.44250    1689.1552    1011.8999
   1420.42725    1548.3729     926.5765   1420.42725    1548.3729     926.5765
   1420.41199    1673.2434     999.0911   1420.41199    1673.2434     999.0911
   1420.39673    1659.9991     991.2488   1420.39673    1659.9991     991.2488
   1420.38147    1457.7750     869.6674   1420.38147    1457.7750     869.6674
   1420.36621    1175.2480     702.0456   1420.36621    1175.2480     702.0456
   1420.35095     826.2971     496.4185   1420.35095     826.2971     496.4185
   1420.33569     760.9243     457.6398   1420.33569     760.9243     457.6398
   1420.32043     739.1677     443.9592   1420.32043     739.1677     443.9592
   1420.30518     728.7002     436.5493   1420.30518     728.7002     436.5493
   1420.28992     721.2351     433.0139   1420.28992     721.2351     433.0139
   1420.27466     717.8457     429.9839   1420.27466     717.8457     429.9839
   1420.25940     714.3613     427.5968   1420.25940     714.3613     427.5968
   1420.24414     713.2829     425.5495   1420.24414     713.2829     425.5495
   1420.22888     712.5412     425.1711   1420.22888     712.5412     425.1711
   1420.21362     711.0142     423.0406   1420.21362     711.0142     423.0406
   1420.19836     708.7217     421.7544   1420.19836     708.7217     421.7544
   1420.18311     708.0800     420.4902   1420.18311     708.0800     420.4902
   1420.16785     705.8372     419.2839   1420.16785     705.8372     419.2839
   1420.15259     705.9290     418.4306   1420.15259     705.9290     418.4306
   1420.13733     705.8422     417.7609   1420.13733     705.8422     417.7609
   1420.12207     704.6081     417.1531   1420.12207     704.6081     417.1531
   1420.10681     703.4691     415.4487   1420.10681     703.4691     415.4487
   1420.09155     703.0359     414.8592   1420.09155     703.0359     414.8592
   1420.07629     703.4601     413.9333   1420.07629     703.4601     413.9333
   1420.06104     702.8740     413.5544   1420.06104     702.8740     413.5544
   1420.04578     701.8798     413.1015   1420.04578     701.8798     413.1015
   1420.03052     701.5364     412.8187   1420.03052     701.5364     412.8187
   1420.01526     701.8934     413.1909   1420.01526     701.8934     413.1909
   1420.00000     703.5167     413.5599   1420.00000     703.5167     413.5599
   1419.98474     705.1402     413.9292   1419.98474     705.1402     413.9292
   1419.96948     704.7668     412.0286   1419.96948     704.7668     412.0286
   1419.95422     701.8165     409.7214   1419.95422     701.8165     409.7214
   1419.93896     701.5453     409.1255   1419.93896     701.5453     409.1255
   1419.92371     701.2034     408.5725   1419.92371     701.2034     408.5725
   1419.90845     701.0286     407.5382   1419.90845     701.0286     407.5382
   1419.89319     701.3561     407.6803   1419.89319     701.3561     407.6803
   1419.87793     701.8319     407.5164   1419.87793     701.8319     407.5164
   1419.86267     700.8660     406.7812   1419.86267     700.8660     406.7812
   1419.84741     701.4366     406.1075   1419.84741     701.4366     406.1075
   1419.83215     701.2302     406.0768   1419.83215     701.2302     406.0768
   1419.81689     702.7001     405.6302   1419.81689     702.7001     405.6302
   1419.80164     702.9830     405.7888   1419.80164     702.9830     405.7888
   1419.78638     701.5204     405.0379   1419.78638     701.5204     405.0379
   1419.77112     702.2770     404.2785   1419.77112     702.2770     404.2785
   1419.75586     702.5689     404.4355   1419.75586     702.5689     404.4355
   1419.74060     702.3279     404.5263   1419.74060     702.3279     404.5263
   1419.72534     702.7822     404.0743   1419.72534     702.7822     404.0743
   1419.71008     703.3101     403.7279   1419.71008     703.3101     403.7279
   1419.69482     702.2820     403.3272   1419.69482     702.2820     403.3272
   1419.67957     702.0461     402.9063   1419.67957     702.0461     402.9063
   1419.66431     704.4319     403.1074   1419.66431     704.4319     403.1074
   1419.64905     703.9969     402.7325   1419.64905     703.9969     402.7325
   1419.63379     704.3884     402.5250   1419.63379     704.3884     402.5250
   1419.61853     703.4942     402.3739   1419.61853     703.4942     402.3739
   1419.60327     703.8979     402.1210   1419.60327     703.8979     402.1210
   1419.58801     705.6676     402.1033   1419.58801     705.6676     402.1033
   1419.57275     704.4343     402.4386   1419.57275     704.4343     402.4386
   1419.55750     706.4548     401.9241   1419.55750     706.4548     401.9241
   1419.54224     705.9900     401.7278   1419.54224     705.9900     401.7278
   1419.52698     705.0675     401.7281   1419.52698     705.0675     401.7281
   1419.51172     706.7264     401.5227   1419.51172     706.7264     401.5227
   1419.49646     705.7492     402.1144   1419.49646     705.7492     402.1144
   1419.48120     706.4870     401.4351   1419.48120     706.4870     401.4351
   1419.46594     706.7966     401.0639   1419.46594     706.7966     401.0639
   1419.45068     707.3830     401.3106   1419.45068     707.3830     401.3106
   1419.43542     708.0073     400.9967   1419.43542     708.0073     400.9967
   1419.42017     707.4427     401.4752   1419.42017     707.4427     401.4752
   1419.40491     708.4517     400.9319   1419.40491     708.4517     400.9319
   1419.38965     708.8240     401.3686   1419.38965     708.8240     401.3686
   1419.37439     709.1981     401.3717   1419.37439     709.1981     401.3717
   1419.35913     709.3824     401.8103   1419.35913     709.3824     401.8103
   1419.34387     709.3814     401.4644   1419.34387     709.3814     401.4644
   1419.32861     709.3828     401.5447   1419.32861     709.3828     401.5447
   1419.31335     710.3776     401.2144   1419.31335     710.3776     401.2144
   1419.29810     710.6002     401.6717   1419.29810     710.6002     401.6717
   1419.28284     710.6938     401.6976   1419.28284     710.6938     401.6976
   1419.26758     711.4413     401.8188   1419.26758     711.4413     401.8188
   1419.25232     711.9258     401.9338   1419.25232     711.9258     401.9338
   1419.23706     713.0671     401.6866   1419.23706     713.0671     401.6866
   1419.22180     713.5848     401.6458   1419.22180     713.5848     401.6458
   1419.20654     712.1014     401.9031   1419.20654     712.1014     401.9031
   1419.19128     714.5669     401.9555   1419.19128     714.5669     401.9555
   1419.17603     713.8077     402.4620   1419.17603     713.8077     402.4620
   1419.16077     715.2656     402.0583   1419.16077     715.2656     402.0583
   1419.14551     714.7210     401.9781   1419.14551     714.7210     401.9781
   1419.13025     715.3423     402.9716   1419.13025     715.3423     402.9716
   1419.11499     714.8217     403.3593   1419.11499     714.8217     403.3593
   1419.09973     717.0950     403.4216   1419.09973     717.0950     403.4216
   1419.08447     717.0234     403.3244   1419.08447     717.0234     403.3244
   1419.06921     716.5876     403.7552   1419.06921     716.5876     403.7552
   1419.05396     717.3871     404.0211   1419.05396     717.3871     404.0211
   1419.03870     718.6555     404.0772   1419.03870     718.6555     404.0772
   1419.02344     719.2217     404.3985   1419.02344     719.2217     404.3985
   1419.00818     718.2850     404.7599   1419.00818     718.2850     404.7599
   1418.99292     719.8245     404.7115   1418.99292     719.8245     404.7115
   1418.97766     721.3575     405.2063   1418.97766     721.3575     405.2063
   1418.96240     720.2714     405.2737   1418.96240     720.2714     405.2737
   1418.94714     721.1021     405.8373   1418.94714     721.1021     405.8373
   1418.93188     722.1310     406.3049   1418.93188     722.1310     406.3049
   1418.91663     723.3694     406.7497   1418.91663     723.3694     406.7497
   1418.90137     724.2941     407.3171   1418.90137     724.2941     407.3171
   1418.88611     725.2669     407.8671   1418.88611     725.2669     407.8671
   1418.87085     724.4062     407.9627   1418.87085     724.4062     407.9627
   1418.85559     726.1458     407.7155   1418.85559     726.1458     407.7155
   1418.84033     725.3275     408.4418   1418.84033     725.3275     408.4418
   1418.82507     727.0784     408.8742   1418.82507     727.0784     408.8742
   1418.80981     726.9312     410.0622   1418.80981     726.9312     410.0622
   1418.79456     727.4426     410.1631   1418.79456     727.4426     410.1631
   1418.77930     727.7643     410.1015   1418.77930     727.7643     410.1015
   1418.76404     729.4692     410.4932   1418.76404     729.4692     410.4932
   1418.74878     729.9272     410.7119   1418.74878     729.9272     410.7119
   1418.73352     730.0641     411.7163   1418.73352     730.0641     411.7163
   1418.71826     729.8555     412.1656   1418.71826     729.8555     412.1656
   1418.70300     731.0280     412.5440   1418.70300     731.0280     412.5440
   1418.68774     732.1653     413.3897   1418.68774     732.1653     413.3897
   1418.67249     732.4556     414.3069   1418.67249     732.4556     414.3069
   1418.65723     733.1227     413.7025   1418.65723     733.1227     413.7025
   1418.64197     735.0099     414.3987   1418.64197     735.0099     414.3987
   1418.62671     735.5980     415.1965   1418.62671     735.5980     415.1965
   1418.61145     735.1849     415.5918   1418.61145     735.1849     415.5918
   1418.59619     736.3748     416.2700   1418.59619     736.3748     416.2700
   1418.58093     736.1775     417.0284   1418.58093     736.1775     417.0284
   1418.56567     737.8477     417.4274   1418.56567     737.8477     417.4274
   1418.55042     736.6910     418.3528   1418.55042     736.6910     418.3528
   1418.53516     739.1797     418.9760   1418.53516     739.1797     418.9760
   1418.51990     738.8926     419.4046   1418.51990     738.8926     419.4046
   1418.50464     741.5464     420.3504   1418.50464     741.5464     420.3504
   1418.48938     741.2687     420.6682   1418.48938     741.2687     420.6682
   1418.47412     742.4546     421.0499   1418.47412     742.4546     421.0499
   1418.45886     742.8743     422.2981   1418.45886     742.8743     422.2981
   1418.44360     744.6439     422.1957   1418.44360     744.6439     422.1957
   1418.42834     744.6140     423.9696   1418.42834     744.6140     423.9696
   1418.41309     744.6494     423.8960   1418.41309     744.6494     423.8960
   1418.39783     745.6147     424.7402   1418.39783     745.6147     424.7402
   1418.38257     747.4620     425.4207   1418.38257     747.4620     425.4207
   1418.36731     747.9493     426.1898   1418.36731     747.9493     426.1898
   1418.35205     748.8398     426.4123   1418.35205     748.8398     426.4123
   1418.33679     749.3799     427.4129   1418.33679     749.3799     427.4129
   1418.32153     749.4579     428.6088   1418.32153     749.4579     428.6088
   1418.30627     750.3765     429.3917   1418.30627     750.3765     429.3917
   1418.29102     751.8820     430.1047   1418.29102     751.8820     430.1047
   1418.27576     753.1172     430.4302   1418.27576     753.1172     430.4302
   1418.26050     753.0760     431.6917   1418.26050     753.0760     431.6917
   1418.24524     755.0739     431.6966   1418.24524     755.0739     431.6966
   1418.22998     755.3853     432.6994   1418.22998     755.3853     432.6994
   1418.21472     755.0457     434.1851   1418.21472     755.0457     434.1851
   1418.19946     757.0623     435.5934   1418.19946     757.0623     435.5934
   1418.18420     757.9561     435.4400   1418.18420     757.9561     435.4400
   1418.16895     758.6066     436.3480   1418.16895     758.6066     436.3480
   1418.15369     758.6289     438.0838   1418.15369     758.6289     438.0838
   1418.13843     760.4583     438.1905   1418.13843     760.4583     438.1905
   1418.12317     761.2413     439.0064   1418.12317     761.2413     439.0064
   1418.10791     762.2242     439.7391   1418.10791     762.2242     439.7391
   1418.09265     762.7864     441.1710   1418.09265     762.7864     441.1710
   1418.07739     763.4391     442.0767   1418.07739     763.4391     442.0767
   1418.06213     764.5814     443.1219   1418.06213     764.5814     443.1219
   1418.04688     765.7284     444.2932   1418.04688     765.7284     444.2932
   1418.03162     765.8949     445.1195   1418.03162     765.8949     445.1195
   1418.01636     768.8420     445.1717   1418.01636     768.8420     445.1717
   1418.00110     769.3972     447.3044   1418.00110     769.3972     447.3044
   1417.98584     769.6008     447.5902   1417.98584     769.6008     447.5902
   1417.97058     770.5770     448.6988   1417.97058     770.5770     448.6988
   1417.95532     770.6481     449.5964   1417.95532     770.6481     449.5964
   1417.94006     772.6393     450.1282   1417.94006     772.6393     450.1282
   1417.92480     774.1000     451.6283   1417.92480     774.1000     451.6283
   1417.90955     772.9615     452.3793   1417.90955     772.9615     452.3793
   1417.89429     773.8040     453.4140   1417.89429     773.8040     453.4140
   1417.87903     777.0229     454.1027   1417.87903     777.0229     454.1027
   1417.86377     775.0875     455.2374   1417.86377     775.0875     455.2374
   1417.84851     776.9029     456.4314   1417.84851     776.9029     456.4314
   1417.83325     776.8972     457.7354   1417.83325     776.8972     457.7354
   1417.81799     779.4512     458.2206   1417.81799     779.4512     458.2206
   1417.80273     781.1472     459.6736   1417.80273     781.1472     459.6736
   1417.78748     780.8114     460.4180   1417.78748     780.8114     460.4180
   1417.77222     780.7858     461.5796   1417.77222     780.7858     461.5796
   1417.75696     782.5752     462.4664   1417.75696     782.5752     462.4664
   1417.74170     782.9833     464.1776   1417.74170     782.9833     464.1776
   1417.72644     782.6731     464.3456   1417.72644     782.6731     464.3456
   1417.71118     785.1830     465.9312   1417.71118     785.1830     465.9312
   1417.69592     785.9112     466.7495   1417.69592     785.9112     466.7495
   1417.68066     787.5488     468.2378   1417.68066     787.5488     468.2378
   1417.66541     787.5409     469.2663   1417.66541     787.5409     469.2663
   1417.65015     789.5315     470.4747   1417.65015     789.5315     470.4747
   1417.63489     790.9630     471.6035   1417.63489     790.9630     471.6035
   1417.61963     791.9924     472.6144   1417.61963     791.9924     472.6144
   1417.60437     792.2165     474.0376   1417.60437     792.2165     474.0376
   1417.58911     794.4515     474.8227   1417.58911     794.4515     474.8227
   1417.57385     793.7235     475.6546   1417.57385     793.7235     475.6546
   1417.55859     794.3565     477.0854   1417.55859     794.3565     477.0854
   1417.54333     795.5565     477.7467   1417.54333     795.5565     477.7467
   1417.52808     795.1150     479.1360   1417.52808     795.1150     479.1360
   1417.51282     797.3153     479.9293   1417.51282     797.3153     479.9293
   1417.49756     798.9114     482.0954   1417.49756     798.9114     482.0954
   1417.48230     799.3627     481.7059   1417.48230     799.3627     481.7059
   1417.46704     800.5261     483.2950   1417.46704     800.5261     483.2950
   1417.45178     801.2709     485.0052   1417.45178     801.2709     485.0052
   1417.43652     801.5150     486.0933   1417.43652     801.5150     486.0933
   1417.42126     801.9799     487.7596   1417.42126     801.9799     487.7596
   1417.40601     804.1714     488.0562   1417.40601     804.1714     488.0562
   1417.39075     804.6087     489.3148   1417.39075     804.6087     489.3148
   1417.37549     804.7819     489.7769   1417.37549     804.7819     489.7769
   1417.36023     806.6157     491.7822   1417.36023     806.6157     491.7822
   1417.34497     807.2213     493.5604   1417.34497     807.2213     493.5604
   1417.32971     807.0630     494.2339   1417.32971     807.0630     494.2339
   1417.31445     807.9018     495.1186   1417.31445     807.9018     495.1186
   1417.29919     808.0706     496.5394   1417.29919     808.0706     496.5394
   1417.28394     809.0343     497.3633   1417.28394     809.0343     497.3633
   1417.26868     810.0201     498.6678   1417.26868     810.0201     498.6678
   1417.25342     812.0896     499.7801   1417.25342     812.0896     499.7801
   1417.23816     811.6030     501.2562   1417.23816     811.6030     501.2562
   1417.22290     811.8804     503.3423   1417.22290     811.8804     503.3423
   1417.20764     812.0204     503.3560   1417.20764     812.0204     503.3560
   1417.19238     814.7403     505.1537   1417.19238     814.7403     505.1537
   1417.17712     814.0499     506.2586   1417.17712     814.0499     506.2586
   1417.16187     815.8898     506.6524   1417.16187     815.8898     506.6524
   1417.14661     816.1479     507.0788   1417.14661     816.1479     507.0788
   1417.13135     817.1282     509.1385   1417.13135     817.1282     509.1385
   1417.11609     817.6777     510.2873   1417.11609     817.6777     510.2873
   1417.10083     818.2899     511.6953   1417.10083     818.2899     511.6953
   1417.08557     819.7095     512.0906   1417.08557     819.7095     512.0906
   1417.07031     819.6243     511.7128   1417.07031     819.6243     511.7128
   1417.05505     819.1978     514.3921   1417.05505     819.1978     514.3921
   1417.03979     821.5249     515.2041   1417.03979     821.5249     515.2041
   1417.02454     821.2893     516.7083   1417.02454     821.2893     516.7083
   1417.00928     823.0421     518.0570   1417.00928     823.0421     518.0570
   1416.99402     822.6298     518.4875   1416.99402     822.6298     518.4875
   1416.97876     823.2789     519.4071   1416.97876     823.2789     519.4071
   1416.96350     824.0424     520.7932   1416.96350     824.0424     520.7932
   1416.94824     824.1418     521.5886   1416.94824     824.1418     521.5886
   1416.93298     824.8593     521.8726   1416.93298     824.8593     521.8726
   1416.91772     825.2661     522.9368   1416.91772     825.2661     522.9368
   1416.90247     824.8500     523.6706   1416.90247     824.8500     523.6706
   1416.88721     825.2487     524.8531   1416.88721     825.2487     524.8531
   1416.87195     827.1287     526.5424   1416.87195     827.1287     526.5424
   1416.85669     827.7908     526.6317   1416.85669     827.7908     526.6317
   1416.84143     825.9465     528.0687   1416.84143     825.9465     528.0687
   1416.82617     827.5743     528.3616   1416.82617     827.5743     528.3616
   1416.81091     828.1165     530.1240   1416.81091     828.1165     530.1240
   1416.79565     827.8476     530.6976   1416.79565     827.8476     530.6976
   1416.78040     827.7141     531.4780   1416.78040     827.7141     531.4780
   1416.76514     829.5862     532.1419   1416.76514     829.5862     532.1419
   1416.74988     828.9559     533.2518   1416.74988     828.9559     533.2518
   1416.73462     829.9819     532.8366   1416.73462     829.9819     532.8366
   1416.71936     828.8483     533.8354   1416.71936     828.8483     533.8354
   1416.70410     829.8713     535.5855   1416.70410     829.8713     535.5855
   1416.68884     829.1130     535.7647   1416.68884     829.1130     535.7647
   1416.67358     831.1577     535.8355   1416.67358     831.1577     535.8355
   1416.65833     830.6542     537.4133   1416.65833     830.6542     537.4133
   1416.64307     830.5076     538.7118   1416.64307     830.5076     538.7118
   1416.62781     829.8942     538.7294   1416.62781     829.8942     538.7294
   1416.61255     830.2125     539.3966   1416.61255     830.2125     539.3966
   1416.59729     831.7590     539.4259   1416.59729     831.7590     539.4259
   1416.58203     830.6279     539.9229   1416.58203     830.6279     539.9229
   1416.56677     829.9940     540.4645   1416.56677     829.9940     540.4645
   1416.55151     830.2432     540.5300   1416.55151     830.2432     540.5300
   1416.53625     831.1931     541.7377   1416.53625     831.1931     541.7377
   1416.52100     831.7218     542.3564   1416.52100     831.7218     542.3564
   1416.50574     829.0993     543.0226   1416.50574     829.0993     543.0226
   1416.49048     829.8975     542.8073   1416.49048     829.8975     542.8073
   1416.47522     830.8934     543.7997   1416.47522     830.8934     543.7997
   1416.45996     830.6447     543.0989   1416.45996     830.6447     543.0989
   1416.44470     830.4020     543.0320   1416.44470     830.4020     543.0320
   1416.42944     830.1553     544.0573   1416.42944     830.1553     544.0573
   1416.41418     830.8304     544.9251   1416.41418     830.8304     544.9251
   1416.39893     828.8534     544.5867   1416.39893     828.8534     544.5867
   1416.38367     828.6301     545.0958   1416.38367     828.6301     545.0958
   1416.36841     828.9160     545.5683   1416.36841     828.9160     545.5683
   1416.35315     827.9766     545.3795   1416.35315     827.9766     545.3795
   1416.33789     827.8024     544.8740   1416.33789     827.8024     544.8740
   1416.32263     828.7572     545.7934   1416.32263     828.7572     545.7934
   1416.30737     827.5923     545.3602   1416.30737     827.5923     545.3602
   1416.29211     826.3382     545.8509   1416.29211     826.3382     545.8509
   1416.27686     827.3198     545.0735   1416.27686     827.3198     545.0735
   1416.26160     826.7181     545.6713   1416.26160     826.7181     545.6713
   1416.24634     825.0847     546.1586   1416.24634     825.0847     546.1586
   1416.23108     826.4920     545.9135   1416.23108     826.4920     545.9135
   1416.21582     825.3644     546.1168   1416.21582     825.3644     546.1168
   1416.20056     824.5521     545.4949   1416.20056     824.5521     545.4949
   1416.18530     824.7143     545.2952   1416.18530     824.7143     545.2952
   1416.17004     822.8335     546.0455   1416.17004     822.8335     546.0455
   1416.15479     823.9564     545.9255   1416.15479     823.9564     545.9255
   1416.13953     823.9665     545.2376   1416.13953     823.9665     545.2376
   1416.12427     822.1418     545.8365   1416.12427     822.1418     545.8365
   1416.10901     822.9543     545.5014   1416.10901     822.9543     545.5014
   1416.09375     821.5859     545.3569   1416.09375     821.5859     545.3569
   1416.07849     820.9879     545.2399   1416.07849     820.9879     545.2399
   1416.06323     819.6435     545.6613   1416.06323     819.6435     545.6613
   1416.04797     818.7340     545.2710   1416.04797     818.7340     545.2710
   1416.03271     819.4479     544.5042   1416.03271     819.4479     544.5042
   1416.01746     818.4161     543.7250   1416.01746     818.4161     543.7250
   1416.00220     817.0459     544.2946   1416.00220     817.0459     544.2946
   1415.98694     818.9447     544.3080   1415.98694     818.9447     544.3080
   1415.97168     817.1055     544.3091   1415.97168     817.1055     544.3091
   1415.95642     816.5195     543.2526   1415.95642     816.5195     543.2526
   1415.94116     815.8378     542.6105   1415.94116     815.8378     542.6105
   1415.92590     813.9963     542.9447   1415.92590     813.9963     542.9447
   1415.91064     813.5647     542.4995   1415.91064     813.5647     542.4995
   1415.89539     813.3600     541.4138   1415.89539     813.3600     541.4138
   1415.88013     811.9313     542.0380   1415.88013     811.9313     542.0380
   1415.86487     811.5364     541.4307   1415.86487     811.5364     541.4307
   1415.84961     809.9889     540.8126   1415.84961     809.9889     540.8126
   1415.83435     810.6859     541.1487   1415.83435     810.6859     541.1487
   1415.81909     810.1550     540.1814   1415.81909     810.1550     540.1814
   1415.80383     806.3077     539.7029   1415.80383     806.3077     539.7029
   1415.78857     807.9613     539.3871   1415.78857     807.9613     539.3871
   1415.77332     804.8450     538.9062   1415.77332     804.8450     538.9062
   1415.75806     804.8341     538.0884   1415.75806     804.8341     538.0884
   1415.74280     804.4482     538.8083   1415.74280     804.4482     538.8083
   1415.72754     804.1589     536.9557   1415.72754     804.1589     536.9557
   1415.71228     803.6213     537.0070   1415.71228     803.6213     537.0070
   1415.69702     802.2364     536.2029   1415.69702     802.2364     536.2029
   1415.68176     800.0880     535.3504   1415.68176     800.0880     535.3504
   1415.66650     800.9891     535.2596   1415.66650     800.9891     535.2596
   1415.65125     798.9632     535.2523   1415.65125     798.9632     535.2523
   1415.63599     798.6671     535.0803   1415.63599     798.6671     535.0803
   1415.62073     796.5812     532.7245   1415.62073     796.5812     532.7245
   1415.60547     796.3594     533.8840   1415.60547     796.3594     533.8840
   1415.59021     796.7355     533.3256   1415.59021     796.7355     533.3256
   1415.57495     794.4525     532.4349   1415.57495     794.4525     532.4349
   1415.55969     793.3610     531.5809   1415.55969     793.3610     531.5809
   1415.54443     792.6163     531.0585   1415.54443     792.6163     531.0585
   1415.52917     791.8116     530.9254   1415.52917     791.8116     530.9254
   1415.51392     788.7737     530.1337   1415.51392     788.7737     530.1337
   1415.49866     788.1010     530.5913   1415.49866     788.1010     530.5913
   1415.48340     788.8952     528.0175   1415.48340     788.8952     528.0175
   1415.46814     787.5739     528.9944   1415.46814     787.5739     528.9944
   1415.45288     786.4655     527.6696   1415.45288     786.4655     527.6696
   1415.43762     783.8976     527.7598   1415.43762     783.8976     527.7598
   1415.42236     783.9139     526.3408   1415.42236     783.9139     526.3408
   1415.40710     781.8127     525.0750   1415.40710     781.8127     525.0750
   1415.39185     780.8838     525.2622   1415.39185     780.8838     525.2622
   1415.37659     778.6895     524.5313   1415.37659     778.6895     524.5313
   1415.36133     778.4067     524.2393   1415.36133     778.4067     524.2393
   1415.34607     777.7484     523.3962   1415.34607     777.7484     523.3962
   1415.33081     776.7393     522.7864   1415.33081     776.7393     522.7864
   1415.31555     776.0047     522.0403   1415.31555     776.0047     522.0403
   1415.30029     774.7321     521.3248   1415.30029     774.7321     521.3248
   1415.28503     772.2706     520.4594   1415.28503     772.2706     520.4594
   1415.26978     771.6018     520.1373   1415.26978     771.6018     520.1373
   1415.25452     770.3965     519.3060   1415.25452     770.3965     519.3060
   1415.23926     768.5664     518.3458   1415.23926     768.5664     518.3458
   1415.22400     767.3334     517.2795   1415.22400     767.3334     517.2795
   1415.20874     764.5199     516.7676   1415.20874     764.5199     516.7676
   1415.19348     765.5549     515.8731   1415.19348     765.5549     515.8731
   1415.17822     763.7333     515.5876   1415.17822     763.7333     515.5876
   1415.16296     762.1217     514.5898   1415.16296     762.1217     514.5898
   1415.14771     760.0597     513.9288   1415.14771     760.0597     513.9288
   1415.13245     759.6663     511.9684   1415.13245     759.6663     511.9684
   1415.11719     755.9930     512.4132   1415.11719     755.9930     512.4132
   1415.10193     756.8535     511.3736   1415.10193     756.8535     511.3736
   1415.08667     754.1649     511.1050   1415.08667     754.1649     511.1050
   1415.07141     752.9379     509.7596   1415.07141     752.9379     509.7596
   1415.05615     750.8373     509.4380   1415.05615     750.8373     509.4380
   1415.04089     750.2235     507.8379   1415.04089     750.2235     507.8379
   1415.02563     748.4864     506.8829   1415.02563     748.4864     506.8829
   1415.01038     746.8644     506.5191   1415.01038     746.8644     506.5191
   1414.99512     745.0006     505.9104   1414.99512     745.0006     505.9104
   1414.97986     743.6994     504.3759   1414.97986     743.6994     504.3759
   1414.96460     741.4274     503.1737   1414.96460     741.4274     503.1737
   1414.94934     740.5726     503.0423   1414.94934     740.5726     503.0423
   1414.93408     737.8988     501.3691   1414.93408     737.8988     501.3691
   1414.91882     736.7281     500.6116   1414.91882     736.7281     500.6116
   1414.90356     734.1060     500.2705   1414.90356     734.1060     500.2705
   1414.88831     732.6345     498.9066   1414.88831     732.6345     498.9066
   1414.87305     732.4321     497.7521   1414.87305     732.4321     497.7521
   1414.85779     730.0839     495.9676   1414.85779     730.0839     495.9676
   1414.84253     727.0875     495.9015   1414.84253     727.0875     495.9015
   1414.82727     724.9150     493.8012   1414.82727     724.9150     493.8012
   1414.81201     725.0603     493.4695   1414.81201     725.0603     493.4695
   1414.79675     721.8052     492.4614   1414.79675     721.8052     492.4614
   1414.78149     720.9763     492.4015   1414.78149     720.9763     492.4015
   1414.76624     718.7162     490.9307   1414.76624     718.7162     490.9307
   1414.75098     716.5222     489.2711   1414.75098     716.5222     489.2711
   1414.73572     713.4362     488.9716   1414.73572     713.4362     488.9716
   1414.72046     712.3019     487.3729   1414.72046     712.3019     487.3729
   1414.70520     710.9055     485.4407   1414.70520     710.9055     485.4407
   1414.68994     707.9222     484.9887   1414.68994     707.9222     484.9887
   1414.67468     705.9470     483.7610   1414.67468     705.9470     483.7610
   1414.65942     704.6734     483.1890   1414.65942     704.6734     483.1890
   1414.64417     702.8932     482.1061   1414.64417     702.8932     482.1061
   1414.62891     700.0621     479.5289   1414.62891     700.0621     479.5289
   1414.61365     698.1854     479.7535   1414.61365     698.1854     479.7535
   1414.59839     696.0944     478.0150   1414.59839     696.0944     478.0150
   1414.58313     694.2267     477.0716   1414.58313     694.2267     477.0716
   1414.56787     691.4507     475.5198   1414.56787     691.4507     475.5198
   1414.55261     688.6009     473.9102   1414.55261     688.6009     473.9102
   1414.53735     686.9702     471.6700   1414.53735     686.9702     471.6700
   1414.52209     684.9705     471.6013   1414.52209     684.9705     471.6013
   1414.50684     682.8939     469.8677   1414.50684     682.8939     469.8677
   1414.49158     679.9542     468.4452   1414.49158     679.9542     468.4452
   1414.47632     677.7543     466.8686   1414.47632     677.7543     466.8686
   1414.46106     675.9037     466.2425   1414.46106     675.9037     466.2425
   1414.44580     673.7666     465.0249   1414.44580     673.7666     465.0249
   1414.43054     671.1436     463.4761   1414.43054     671.1436     463.4761
   1414.41528     669.0958     461.9862   1414.41528     669.0958     461.9862
   1414.40002     667.0968     461.0312   1414.40002     667.0968     461.0312
   1414.38477     664.9096     458.6880   1414.38477     664.9096     458.6880
   1414.36951     660.8304     457.9856   1414.36951     660.8304     457.9856
   1414.35425     659.8729     456.4495   1414.35425     659.8729     456.4495
   1414.33899     657.1377     455.1830   1414.33899     657.1377     455.1830
   1414.32373     654.4305     454.2432   1414.32373     654.4305     454.2432
   1414.30847     652.6963     452.7867   1414.30847     652.6963     452.7867
   1414.29321     649.3139     450.5339   1414.29321     649.3139     450.5339
   1414.27795     647.0040     449.8470   1414.27795     647.0040     449.8470
   1414.26270     644.7396     447.8810   1414.26270     644.7396     447.8810
   1414.24744     641.8316     446.5685   1414.24744     641.8316     446.5685
   1414.23218     638.7587     444.9191   1414.23218     638.7587     444.9191
   1414.21692     636.4384     443.2967   1414.21692     636.4384     443.2967
   1414.20166     633.9357     442.0095   1414.20166     633.9357     442.0095
   1414.18640     631.1858     439.9924   1414.18640     631.1858     439.9924
   1414.17114     628.7770     438.5232   1414.17114     628.7770     438.5232
   1414.15588     626.2987     437.3582   1414.15588     626.2987     437.3582
   1414.14062     623.7258     435.7626   1414.14062     623.7258     435.7626
   1414.12537     621.8167     432.8083   1414.12537     621.8167     432.8083
   1414.11011     618.8459     431.9281   1414.11011     618.8459     431.9281
   1414.09485     615.4152     431.2911   1414.09485     615.4152     431.2911
   1414.07959     613.3596     429.2698   1414.07959     613.3596     429.2698
   1414.06433     609.8552     427.2086   1414.06433     609.8552     427.2086
   1414.04907     607.2697     426.0456   1414.04907     607.2697     426.0456
   1414.03381     604.6102     425.0465   1414.03381     604.6102     425.0465
   1414.01855     601.3666     423.2315   1414.01855     601.3666     423.2315
   1414.00330     630.5148     430.3815   1414.00330     630.5148     430.3815
   1413.98804     599.7678     420.5103   1413.98804     599.7678     420.5103
   1413.97278     593.5341     417.9108   1413.97278     593.5341     417.9108
   1413.95752     590.1149     416.2369   1413.95752     590.1149     416.2369
   1413.94226     587.9225     415.3099   1413.94226     587.9225     415.3099
   1413.92700     585.1942     412.9955   1413.92700     585.1942     412.9955
   1413.91174     582.2294     410.9778   1413.91174     582.2294     410.9778
   1413.89648     579.7632     409.0113   1413.89648     579.7632     409.0113
   1413.88123     576.6526     408.1289   1413.88123     576.6526     408.1289
   1413.86597     573.7927     406.0056   1413.86597     573.7927     406.0056
   1413.85071     570.4123     404.0950   1413.85071     570.4123     404.0950
   1413.83545     568.7779     403.2396   1413.83545     568.7779     403.2396
   1413.82019     565.5518     400.8133   1413.82019     565.5518     400.8133
   1413.80493     562.3455     399.5760   1413.80493     562.3455     399.5760
   1413.78967     559.1852     397.7780   1413.78967     559.1852     397.7780
   1413.77441     556.3611     396.1616   1413.77441     556.3611     396.1616
   1413.75916     554.1920     394.3224   1413.75916     554.1920     394.3224
   1413.74390     550.3238     392.2714   1413.74390     550.3238     392.2714
   1413.72864     548.4590     391.3115   1413.72864     548.4590     391.3115
   1413.71338     545.3752     389.0423   1413.71338     545.3752     389.0423
   1413.69812     541.7427     387.3202   1413.69812     541.7427     387.3202
   1413.68286     539.2656     385.8196   1413.68286     539.2656     385.8196
   1413.66760     536.0128     383.9447   1413.66760     536.0128     383.9447
   1413.65234     533.8728     382.3073   1413.65234     533.8728     382.3073
   1413.63708     530.8970     380.7460   1413.63708     530.8970     380.7460
   1413.62183     528.0000     378.8882   1413.62183     528.0000     378.8882
   1413.60657     524.2278     377.5269   1413.60657     524.2278     377.5269
   1413.59131     521.7797     375.6424   1413.59131     521.7797     375.6424
   1413.57605     518.6689     374.1000   1413.57605     518.6689     374.1000
   1413.56079     517.0850     372.1882   1413.56079     517.0850     372.1882
   1413.54553     513.6674     370.5375   1413.54553     513.6674     370.5375
   1413.53027     510.6654     369.5071   1413.53027     510.6654     369.5071
   1413.51501     507.7348     367.9896   1413.51501     507.7348     367.9896
   1413.49976     505.4612     365.9191   1413.49976     505.4612     365.9191
   1413.48450     502.3366     364.2316   1413.48450     502.3366     364.2316
   1413.46924     499.3946     361.8308   1413.46924     499.3946     361.8308
   1413.45398     496.5696     361.0314   1413.45398     496.5696     361.0314
   1413.43872     493.9577     359.7437   1413.43872     493.9577     359.7437
   1413.42346     491.7713     357.6735   1413.42346     491.7713     357.6735
   1413.40820     488.5707     356.4547   1413.40820     488.5707     356.4547
   1413.39294     485.9913     354.3010   1413.39294     485.9913     354.3010
   1413.37769     482.4696     353.1063   1413.37769     482.4696     353.1063
   1413.36243     480.1383     350.9041   1413.36243     480.1383     350.9041
   1413.34717     477.8700     349.7028   1413.34717     477.8700     349.7028
   1413.33191     474.4631     348.2029   1413.33191     474.4631     348.2029
   1413.31665     472.0784     346.5283   1413.31665     472.0784     346.5283
   1413.30139     468.7227     345.4360   1413.30139     468.7227     345.4360
   1413.28613     467.9362     343.8537   1413.28613     467.9362     343.8537
   1413.27087     464.7917     342.1734   1413.27087     464.7917     342.1734
   1413.25562     462.2997     340.6493   1413.25562     462.2997     340.6493
   1413.24036     459.6756     338.9456   1413.24036     459.6756     338.9456
   1413.22510     456.9190     338.3405   1413.22510     456.9190     338.3405
   1413.20984     453.8628     336.7960   1413.20984     453.8628     336.7960
   1413.19458     452.3131     335.2237   1413.19458     452.3131     335.2237
   1413.17932     448.9064     333.8022   1413.17932     448.9064     333.8022
   1413.16406     447.3844     332.8013   1413.16406     447.3844     332.8013
   1413.14880     444.5174     331.3450   1413.14880     444.5174     331.3450
   1413.13354     442.3443     330.0219   1413.13354     442.3443     330.0219
   1413.11829     440.1700     329.0588   1413.11829     440.1700     329.0588
   1413.10303     438.1053     327.0085   1413.10303     438.1053     327.0085
   1413.08777     435.6655     326.7028   1413.08777     435.6655     326.7028
   1413.07251     433.2426     325.4418   1413.07251     433.2426     325.4418
   1413.05725     431.0478     324.5065   1413.05725     431.0478     324.5065
   1413.04199     429.3963     322.8614   1413.04199     429.3963     322.8614
   1413.02673     426.3984     322.4135   1413.02673     426.3984     322.4135
   1413.01147     425.2011     321.1851   1413.01147     425.2011     321.1851
   1412.99622     423.2358     319.7856   1412.99622     423.2358     319.7856
   1412.98096     420.4296     318.9759   1412.98096     420.4296     318.9759
   1412.96570     419.0803     318.3522   1412.96570     419.0803     318.3522
   1412.95044     416.3543     317.2317   1412.95044     416.3543     317.2317
   1412.93518     414.8803     316.2865   1412.93518     414.8803     316.2865
   1412.91992     413.2413     315.3807   1412.91992     413.2413     315.3807
   1412.90466     411.5603     314.4346   1412.90466     411.5603     314.4346
   1412.88940     409.4810     314.0178   1412.88940     409.4810     314.0178
   1412.87415     407.9309     312.7058   1412.87415     407.9309     312.7058
   1412.85889     405.9102     312.2438   1412.85889     405.9102     312.2438
   1412.84363     404.0601     311.3159   1412.84363     404.0601     311.3159
   1412.82837     402.4884     311.2021   1412.82837     402.4884     311.2021
   1412.81311     401.1065     310.0538   1412.81311     401.1065     310.0538
   1412.79785     399.7445     309.4308   1412.79785     399.7445     309.4308
   1412.78259     398.6988     309.4070   1412.78259     398.6988     309.4070
   1412.76733     396.9743     308.6686   1412.76733     396.9743     308.6686
   1412.75208     394.9712     308.2392   1412.75208     394.9712     308.2392
   1412.73682     393.2193     307.4669   1412.73682     393.2193     307.4669
   1412.72156     392.7705     307.0862   1412.72156     392.7705     307.0862
   1412.70630     390.6409     306.4169   1412.70630     390.6409     306.4169
   1412.69104     390.1654     306.2728   1412.69104     390.1654     306.2728
   1412.67578     388.6015     306.1730   1412.67578     388.6015     306.1730
   1412.66052     388.2159     305.6672   1412.66052     388.2159     305.6672
   1412.64526     387.0274     305.9985   1412.64526     387.0274     305.9985
   1412.63000     386.2120     305.9927   1412.63000     386.2120     305.9927
   1412.61475     384.7195     304.6097   1412.61475     384.7195     304.6097
   1412.59949     383.4601     305.1412   1412.59949     383.4601     305.1412
   1412.58423     382.9242     305.5323   1412.58423     382.9242     305.5323
   1412.56897     382.3425     305.1242   1412.56897     382.3425     305.1242
   1412.55371     381.8212     304.8451   1412.55371     381.8212     304.8451
   1412.53845     380.4864     305.5097   1412.53845     380.4864     305.5097
   1412.52319     380.2499     305.5536   1412.52319     380.2499     305.5536
   1412.50793     379.8107     305.7938   1412.50793     379.8107     305.7938
   1412.49268     378.8597     306.0906   1412.49268     378.8597     306.0906
   1412.47742     378.5526     306.2267   1412.47742     378.5526     306.2267
   1412.46216     378.0160     306.2639   1412.46216     378.0160     306.2639
   1412.44690     377.8325     306.6089   1412.44690     377.8325     306.6089
   1412.43164     377.9487     307.2482   1412.43164     377.9487     307.2482
   1412.41638     377.3056     307.7518   1412.41638     377.3056     307.7518
   1412.40112     377.6408     308.0538   1412.40112     377.6408     308.0538
   1412.38586     376.8528     309.2288   1412.38586     376.8528     309.2288
   1412.37061     376.5879     308.9829   1412.37061     376.5879     308.9829
   1412.35535     376.1105     310.1041   1412.35535     376.1105     310.1041
   1412.34009     377.5706     310.8884   1412.34009     377.5706     310.8884
   1412.32483     376.9624     311.3957   1412.32483     376.9624     311.3957
   1412.30957     377.3188     311.8254   1412.30957     377.3188     311.8254
   1412.29431     377.0535     312.9147   1412.29431     377.0535     312.9147
   1412.27905     377.8791     313.7925   1412.27905     377.8791     313.7925
   1412.26379     377.9069     313.6942   1412.26379     377.9069     313.6942
   1412.24854     378.6716     315.6075   1412.24854     378.6716     315.6075
   1412.23328     379.2170     315.9743   1412.23328     379.2170     315.9743
   1412.21802     379.6812     317.2727   1412.21802     379.6812     317.2727
   1412.20276     379.4958     318.1994   1412.20276     379.4958     318.1994