#     FILENAME=!Skynet_57528_lach-hhg-146_20479_20970.cyb.fits
#     BASENAME=Skynet_57528_lach-hhg-146_20479_20970
#     SRC_NAME=lach-hhg-146
#     OBSERVER=hhgmadison16_9500
#     DATE_OBS=2016-05-20T17:29:34.750
#        OBSID=20479
#      SCANNUM=20970
#          MJD=57528.7299
#          UTC=63064
#     SCANTYPE=track
#     DATAMODE=HIRES
#     TUNEFREQ=1420.0000
# Actual_FREQ1=1420.0000
# Actual_FREQ2=1420.0000
#    LO1Tuning=6870.000
#     RFFILTER=1355_1435
#        OBSBW=-15.6250
#        NCHAN=1024 
#        FOCUS=37.0709
#           RA=03:43:35.76
#          DEC=54:58:02.32
#      RA(hrs)=3.726600
#     DEC(deg)=54.967300
#    AZIM(deg)=349.342
#    ELEV(deg)=72.977
#     IFattens=10.00, 9.00
#      WARNING=None
#    TCAL_XL1=7.9635
#    TCAL_YR1=9.1340
#    TCAL_XL2=7.9635
#    TCAL_YR2=9.1340
#     TRX_XL1=11.7060
#     TRX_YR1=11.7060
#     TRX_XL2=11.7060
#     TRX_YR2=11.7060
#        TAVE=1.0000
#Freq1(MHz)          XL1          YR1  Freq2(MHz)          XL2          YR2 

   1427.81250     378.5492     329.0345   1427.81250     378.5492     329.0345
   1427.79724     379.3263     330.7366   1427.79724     379.3263     330.7366
   1427.78198     379.8890     331.8478   1427.78198     379.8890     331.8478
   1427.76672     380.7424     333.4166   1427.76672     380.7424     333.4166
   1427.75146     381.4660     334.7204   1427.75146     381.4660     334.7204
   1427.73621     382.0148     336.2633   1427.73621     382.0148     336.2633
   1427.72095     382.8695     337.5812   1427.72095     382.8695     337.5812
   1427.70569     384.0769     339.3471   1427.70569     384.0769     339.3471
   1427.69043     385.0828     340.9983   1427.69043     385.0828     340.9983
   1427.67517     386.4574     342.1920   1427.67517     386.4574     342.1920
   1427.65991     387.2774     344.0116   1427.65991     387.2774     344.0116
   1427.64465     388.8195     345.4630   1427.64465     388.8195     345.4630
   1427.62939     389.7373     347.1175   1427.62939     389.7373     347.1175
   1427.61414     390.6320     348.7798   1427.61414     390.6320     348.7798
   1427.59888     392.1585     350.7727   1427.59888     392.1585     350.7727
   1427.58362     393.8622     352.5678   1427.58362     393.8622     352.5678
   1427.56836     395.6910     354.0973   1427.56836     395.6910     354.0973
   1427.55310     396.6822     355.6702   1427.55310     396.6822     355.6702
   1427.53784     398.3819     358.2819   1427.53784     398.3819     358.2819
   1427.52258     399.8980     360.1713   1427.52258     399.8980     360.1713
   1427.50732     401.8352     362.1709   1427.50732     401.8352     362.1709
   1427.49207     403.8237     363.6060   1427.49207     403.8237     363.6060
   1427.47681     404.9518     366.0107   1427.47681     404.9518     366.0107
   1427.46155     406.7891     368.3459   1427.46155     406.7891     368.3459
   1427.44629     408.0295     369.0418   1427.44629     408.0295     369.0418
   1427.43103     410.7887     371.1925   1427.43103     410.7887     371.1925
   1427.41577     412.5562     374.1594   1427.41577     412.5562     374.1594
   1427.40051     413.9963     375.5590   1427.40051     413.9963     375.5590
   1427.38525     416.7838     377.7943   1427.38525     416.7838     377.7943
   1427.37000     418.3087     379.5272   1427.37000     418.3087     379.5272
   1427.35474     420.4976     381.2030   1427.35474     420.4976     381.2030
   1427.33948     422.8954     383.1005   1427.33948     422.8954     383.1005
   1427.32422     424.9289     385.8807   1427.32422     424.9289     385.8807
   1427.30896     427.6289     387.9346   1427.30896     427.6289     387.9346
   1427.29370     429.2792     390.4102   1427.29370     429.2792     390.4102
   1427.27844     431.6990     391.6685   1427.27844     431.6990     391.6685
   1427.26318     433.8545     394.0740   1427.26318     433.8545     394.0740
   1427.24792     436.5721     396.4168   1427.24792     436.5721     396.4168
   1427.23267     439.1329     399.0891   1427.23267     439.1329     399.0891
   1427.21741     441.8256     400.9788   1427.21741     441.8256     400.9788
   1427.20215     443.8233     403.0334   1427.20215     443.8233     403.0334
   1427.18689     446.1918     405.5145   1427.18689     446.1918     405.5145
   1427.17163     448.8406     407.3831   1427.17163     448.8406     407.3831
   1427.15637     451.3050     409.6902   1427.15637     451.3050     409.6902
   1427.14111     454.1751     411.8005   1427.14111     454.1751     411.8005
   1427.12585     456.7678     413.4799   1427.12585     456.7678     413.4799
   1427.11060     459.3016     416.4422   1427.11060     459.3016     416.4422
   1427.09534     462.2985     418.5603   1427.09534     462.2985     418.5603
   1427.08008     465.7052     420.3962   1427.08008     465.7052     420.3962
   1427.06482     467.3615     422.4709   1427.06482     467.3615     422.4709
   1427.04956     470.4087     424.4743   1427.04956     470.4087     424.4743
   1427.03430     474.3429     427.1654   1427.03430     474.3429     427.1654
   1427.01904     476.8658     429.3582   1427.01904     476.8658     429.3582
   1427.00378     478.9338     431.6176   1427.00378     478.9338     431.6176
   1426.98853     481.7557     434.4821   1426.98853     481.7557     434.4821
   1426.97327     485.7328     435.9015   1426.97327     485.7328     435.9015
   1426.95801     487.7646     438.5053   1426.95801     487.7646     438.5053
   1426.94275     491.1020     439.6027   1426.94275     491.1020     439.6027
   1426.92749     494.0962     442.7991   1426.92749     494.0962     442.7991
   1426.91223     496.9471     444.0329   1426.91223     496.9471     444.0329
   1426.89697     499.8341     447.0619   1426.89697     499.8341     447.0619
   1426.88171     502.5030     449.0143   1426.88171     502.5030     449.0143
   1426.86646     505.0287     450.4966   1426.86646     505.0287     450.4966
   1426.85120     508.8036     452.8541   1426.85120     508.8036     452.8541
   1426.83594     511.1637     455.8096   1426.83594     511.1637     455.8096
   1426.82068     514.5770     457.4979   1426.82068     514.5770     457.4979
   1426.80542     518.2362     460.0160   1426.80542     518.2362     460.0160
   1426.79016     521.2987     461.9694   1426.79016     521.2987     461.9694
   1426.77490     524.7427     463.5676   1426.77490     524.7427     463.5676
   1426.75964     526.1176     465.5788   1426.75964     526.1176     465.5788
   1426.74438     530.8643     467.9284   1426.74438     530.8643     467.9284
   1426.72913     534.4647     469.6113   1426.72913     534.4647     469.6113
   1426.71387     536.4725     470.9600   1426.71387     536.4725     470.9600
   1426.69861     539.3691     474.1662   1426.69861     539.3691     474.1662
   1426.68335     542.0159     475.8679   1426.68335     542.0159     475.8679
   1426.66809     546.6334     477.9059   1426.66809     546.6334     477.9059
   1426.65283     549.3301     480.1648   1426.65283     549.3301     480.1648
   1426.63757     552.1228     481.5184   1426.63757     552.1228     481.5184
   1426.62231     556.1008     485.3310   1426.62231     556.1008     485.3310
   1426.60706     559.2072     485.2582   1426.60706     559.2072     485.2582
   1426.59180     562.0883     487.5015   1426.59180     562.0883     487.5015
   1426.57654     564.6142     489.4416   1426.57654     564.6142     489.4416
   1426.56128     569.3008     491.4725   1426.56128     569.3008     491.4725
   1426.54602     571.6635     493.5285   1426.54602     571.6635     493.5285
   1426.53076     574.8432     495.1655   1426.53076     574.8432     495.1655
   1426.51550     577.1235     496.9169   1426.51550     577.1235     496.9169
   1426.50024     581.4000     499.2470   1426.50024     581.4000     499.2470
   1426.48499     583.5219     500.3787   1426.48499     583.5219     500.3787
   1426.46973     587.8358     502.4991   1426.46973     587.8358     502.4991
   1426.45447     589.8441     504.1757   1426.45447     589.8441     504.1757
   1426.43921     592.2240     505.8611   1426.43921     592.2240     505.8611
   1426.42395     596.5811     508.1266   1426.42395     596.5811     508.1266
   1426.40869     600.3875     509.7654   1426.40869     600.3875     509.7654
   1426.39343     602.7207     511.2470   1426.39343     602.7207     511.2470
   1426.37817     605.8304     512.5732   1426.37817     605.8304     512.5732
   1426.36292     608.6643     513.9481   1426.36292     608.6643     513.9481
   1426.34766     611.3382     516.0136   1426.34766     611.3382     516.0136
   1426.33240     614.8548     517.3522   1426.33240     614.8548     517.3522
   1426.31714     618.1667     519.3879   1426.31714     618.1667     519.3879
   1426.30188     621.6206     520.9821   1426.30188     621.6206     520.9821
   1426.28662     623.6639     522.7733   1426.28662     623.6639     522.7733
   1426.27136     626.6453     524.2064   1426.27136     626.6453     524.2064
   1426.25610     630.1771     524.9810   1426.25610     630.1771     524.9810
   1426.24084     632.5360     527.5979   1426.24084     632.5360     527.5979
   1426.22559     635.4413     528.4834   1426.22559     635.4413     528.4834
   1426.21033     638.8555     529.8585   1426.21033     638.8555     529.8585
   1426.19507     641.8737     531.0578   1426.19507     641.8737     531.0578
   1426.17981     643.4559     533.4065   1426.17981     643.4559     533.4065
   1426.16455     646.3286     535.3972   1426.16455     646.3286     535.3972
   1426.14929     650.3621     536.3208   1426.14929     650.3621     536.3208
   1426.13403     651.9169     537.6414   1426.13403     651.9169     537.6414
   1426.11877     655.7418     539.1141   1426.11877     655.7418     539.1141
   1426.10352     657.6815     539.9459   1426.10352     657.6815     539.9459
   1426.08826     660.5575     541.4688   1426.08826     660.5575     541.4688
   1426.07300     662.8511     542.3821   1426.07300     662.8511     542.3821
   1426.05774     666.5769     545.0726   1426.05774     666.5769     545.0726
   1426.04248     669.2854     545.2670   1426.04248     669.2854     545.2670
   1426.02722     671.1640     547.0223   1426.02722     671.1640     547.0223
   1426.01196     673.7732     548.9457   1426.01196     673.7732     548.9457
   1425.99670     676.1266     549.6457   1425.99670     676.1266     549.6457
   1425.98145     679.5633     550.9067   1425.98145     679.5633     550.9067
   1425.96619     681.4047     551.5472   1425.96619     681.4047     551.5472
   1425.95093     683.6703     552.4930   1425.95093     683.6703     552.4930
   1425.93567     686.6151     554.6361   1425.93567     686.6151     554.6361
   1425.92041     688.5448     556.5182   1425.92041     688.5448     556.5182
   1425.90515     690.9069     557.0286   1425.90515     690.9069     557.0286
   1425.88989     694.1974     557.7708   1425.88989     694.1974     557.7708
   1425.87463     694.3597     559.4219   1425.87463     694.3597     559.4219
   1425.85938     697.1581     559.5161   1425.85938     697.1581     559.5161
   1425.84412     700.9970     561.3812   1425.84412     700.9970     561.3812
   1425.82886     703.8846     562.0397   1425.82886     703.8846     562.0397
   1425.81360     705.9439     563.3736   1425.81360     705.9439     563.3736
   1425.79834     707.5878     565.7720   1425.79834     707.5878     565.7720
   1425.78308     709.6196     565.6577   1425.78308     709.6196     565.6577
   1425.76782     711.1548     566.4688   1425.76782     711.1548     566.4688
   1425.75256     714.1655     567.5414   1425.75256     714.1655     567.5414
   1425.73730     716.5681     568.9129   1425.73730     716.5681     568.9129
   1425.72205     718.5691     569.2893   1425.72205     718.5691     569.2893
   1425.70679     719.3799     571.1801   1425.70679     719.3799     571.1801
   1425.69153     721.3459     572.1694   1425.69153     721.3459     572.1694
   1425.67627     724.7073     572.9587   1425.67627     724.7073     572.9587
   1425.66101     725.9753     573.8445   1425.66101     725.9753     573.8445
   1425.64575     726.9938     574.4418   1425.64575     726.9938     574.4418
   1425.63049     728.1555     575.7113   1425.63049     728.1555     575.7113
   1425.61523     731.2734     577.0829   1425.61523     731.2734     577.0829
   1425.59998     731.9172     577.7413   1425.59998     731.9172     577.7413
   1425.58472     733.7564     578.7220   1425.58472     733.7564     578.7220
   1425.56946     736.1544     579.4030   1425.56946     736.1544     579.4030
   1425.55420     737.6544     579.5744   1425.55420     737.6544     579.5744
   1425.53894     740.2318     580.3560   1425.53894     740.2318     580.3560
   1425.52368     742.5061     581.6714   1425.52368     742.5061     581.6714
   1425.50842     741.6740     582.3185   1425.50842     741.6740     582.3185
   1425.49316     744.3097     583.3872   1425.49316     744.3097     583.3872
   1425.47791     744.5602     583.4464   1425.47791     744.5602     583.4464
   1425.46265     746.4938     585.1128   1425.46265     746.4938     585.1128
   1425.44739     749.1394     585.0939   1425.44739     749.1394     585.0939
   1425.43213     750.4288     586.6566   1425.43213     750.4288     586.6566
   1425.41687     752.4489     586.8809   1425.41687     752.4489     586.8809
   1425.40161     753.1534     588.0291   1425.40161     753.1534     588.0291
   1425.38635     754.7004     587.8457   1425.38635     754.7004     587.8457
   1425.37109     755.7759     588.2069   1425.37109     755.7759     588.2069
   1425.35583     757.1011     588.8518   1425.35583     757.1011     588.8518
   1425.34058     757.5148     590.1332   1425.34058     757.5148     590.1332
   1425.32532     758.2097     590.7344   1425.32532     758.2097     590.7344
   1425.31006     760.5350     591.4512   1425.31006     760.5350     591.4512
   1425.29480     760.9139     592.8228   1425.29480     760.9139     592.8228
   1425.27954     761.9085     592.0413   1425.27954     761.9085     592.0413
   1425.26428     762.6567     592.6151   1425.26428     762.6567     592.6151
   1425.24902     763.7323     594.4364   1425.24902     763.7323     594.4364
   1425.23376     764.3223     594.1569   1425.23376     764.3223     594.1569
   1425.21851     766.9958     595.0464   1425.21851     766.9958     595.0464
   1425.20325     766.4316     595.9303   1425.20325     766.4316     595.9303
   1425.18799     766.5641     595.1397   1425.18799     766.5641     595.1397
   1425.17273     767.9288     596.7177   1425.17273     767.9288     596.7177
   1425.15747     768.8131     598.6270   1425.15747     768.8131     598.6270
   1425.14221     769.9736     596.6948   1425.14221     769.9736     596.6948
   1425.12695     770.8989     597.2603   1425.12695     770.8989     597.2603
   1425.11169     770.8160     599.3115   1425.11169     770.8160     599.3115
   1425.09644     770.9515     599.4418   1425.09644     770.9515     599.4418
   1425.08118     772.6542     599.0975   1425.08118     772.6542     599.0975
   1425.06592     773.7297     599.9065   1425.06592     773.7297     599.9065
   1425.05066     774.0031     600.8326   1425.05066     774.0031     600.8326
   1425.03540     773.4598     601.5835   1425.03540     773.4598     601.5835
   1425.02014     776.4096     601.2634   1425.02014     776.4096     601.2634
   1425.00488     776.5627     602.7792   1425.00488     776.5627     602.7792
   1424.98962     776.1182     601.9671   1424.98962     776.1182     601.9671
   1424.97437     776.9481     602.8829   1424.97437     776.9481     602.8829
   1424.95911     777.1613     602.2114   1424.95911     777.1613     602.2114
   1424.94385     778.6932     603.3344   1424.94385     778.6932     603.3344
   1424.92859     778.5002     604.1111   1424.92859     778.5002     604.1111
   1424.91333     779.0107     605.2369   1424.91333     779.0107     605.2369
   1424.89807     778.9242     604.9396   1424.89807     778.9242     604.9396
   1424.88281     778.5416     604.4750   1424.88281     778.5416     604.4750
   1424.86755     778.5698     605.5629   1424.86755     778.5698     605.5629
   1424.85229     778.6425     604.1017   1424.85229     778.6425     604.1017
   1424.83704     780.2841     605.5086   1424.83704     780.2841     605.5086
   1424.82178     779.9181     606.8325   1424.82178     779.9181     606.8325
   1424.80652     779.5347     606.8159   1424.80652     779.5347     606.8159
   1424.79126     779.7395     606.7352   1424.79126     779.7395     606.7352
   1424.77600     780.1843     608.0605   1424.77600     780.1843     608.0605
   1424.76074     780.5867     607.2871   1424.76074     780.5867     607.2871
   1424.74548     779.9609     607.6372   1424.74548     779.9609     607.6372
   1424.73022     780.6895     608.5105   1424.73022     780.6895     608.5105
   1424.71497     779.9750     607.9295   1424.71497     779.9750     607.9295
   1424.69971     780.2441     609.1475   1424.69971     780.2441     609.1475
   1424.68445     779.0728     608.7072   1424.68445     779.0728     608.7072
   1424.66919     780.0131     609.5117   1424.66919     780.0131     609.5117
   1424.65393     780.0792     608.8318   1424.65393     780.0792     608.8318
   1424.63867     780.0403     609.7061   1424.63867     780.0403     609.7061
   1424.62341     780.0792     610.0148   1424.62341     780.0792     610.0148
   1424.60815     780.8887     609.2134   1424.60815     780.8887     609.2134
   1424.59290     781.3820     610.2268   1424.59290     781.3820     610.2268
   1424.57764     779.4509     610.3213   1424.57764     779.4509     610.3213
   1424.56238     780.4225     610.3812   1424.56238     780.4225     610.3812
   1424.54712     780.5050     610.0870   1424.54712     780.5050     610.0870
   1424.53186     779.4088     610.6796   1424.53186     779.4088     610.6796
   1424.51660     779.0796     610.6721   1424.51660     779.0796     610.6721
   1424.50134     779.3110     610.1113   1424.50134     779.3110     610.1113
   1424.48608     778.1306     611.5114   1424.48608     778.1306     611.5114
   1424.47083     777.5624     610.9886   1424.47083     777.5624     610.9886
   1424.45557     778.6594     610.7901   1424.45557     778.6594     610.7901
   1424.44031     778.4171     611.3157   1424.44031     778.4171     611.3157
   1424.42505     778.2680     611.5614   1424.42505     778.2680     611.5614
   1424.40979     777.6879     612.1038   1424.40979     777.6879     612.1038
   1424.39453     778.1465     611.3438   1424.39453     778.1465     611.3438
   1424.37927     774.5067     611.5023   1424.37927     774.5067     611.5023
   1424.36401     777.3490     612.3694   1424.36401     777.3490     612.3694
   1424.34875     776.0502     611.8649   1424.34875     776.0502     611.8649
   1424.33350     774.4271     611.8474   1424.33350     774.4271     611.8474
   1424.31824     774.6715     611.9103   1424.31824     774.6715     611.9103
   1424.30298     774.0775     612.1259   1424.30298     774.0775     612.1259
   1424.28772     773.7670     612.7004   1424.28772     773.7670     612.7004
   1424.27246     774.4722     611.7029   1424.27246     774.4722     611.7029
   1424.25720     773.7668     611.6487   1424.25720     773.7668     611.6487
   1424.24194     771.7767     612.0956   1424.24194     771.7767     612.0956
   1424.22668     773.2083     611.8144   1424.22668     773.2083     611.8144
   1424.21143     772.7188     610.8305   1424.21143     772.7188     610.8305
   1424.19617     772.2410     611.3087   1424.19617     772.2410     611.3087
   1424.18091     772.2724     611.5242   1424.18091     772.2724     611.5242
   1424.16565     771.3700     612.0462   1424.16565     771.3700     612.0462
   1424.15039     770.4668     612.3545   1424.15039     770.4668     612.3545
   1424.13513     769.1555     611.4017   1424.13513     769.1555     611.4017
   1424.11987     769.6674     611.5148   1424.11987     769.6674     611.5148
   1424.10461     768.9675     610.7276   1424.10461     768.9675     610.7276
   1424.08936     768.8642     610.9516   1424.08936     768.8642     610.9516
   1424.07410     768.4863     612.0145   1424.07410     768.4863     612.0145
   1424.05884     767.1653     610.5644   1424.05884     767.1653     610.5644
   1424.04358     765.7356     611.6658   1424.04358     765.7356     611.6658
   1424.02832     766.8317     611.3870   1424.02832     766.8317     611.3870
   1424.01306     765.2757     611.0455   1424.01306     765.2757     611.0455
   1423.99780     765.6307     610.4350   1423.99780     765.6307     610.4350
   1423.98254     765.1989     610.2400   1423.98254     765.1989     610.2400
   1423.96729     764.5607     611.2337   1423.96729     764.5607     611.2337
   1423.95203     763.8181     610.6657   1423.95203     763.8181     610.6657
   1423.93677     763.2355     610.2485   1423.93677     763.2355     610.2485
   1423.92151     760.8394     610.0026   1423.92151     760.8394     610.0026
   1423.90625     761.8047     610.3102   1423.90625     761.8047     610.3102
   1423.89099     761.3792     610.7951   1423.89099     761.3792     610.7951
   1423.87573     760.6809     609.4589   1423.87573     760.6809     609.4589
   1423.86047     759.5099     609.4921   1423.86047     759.5099     609.4921
   1423.84521     759.0602     609.1146   1423.84521     759.0602     609.1146
   1423.82996     759.3803     608.4882   1423.82996     759.3803     608.4882
   1423.81470     758.1992     608.0630   1423.81470     758.1992     608.0630
   1423.79944     758.7663     608.2479   1423.79944     758.7663     608.2479
   1423.78418     758.0921     608.3348   1423.78418     758.0921     608.3348
   1423.76892     757.1461     608.1157   1423.76892     757.1461     608.1157
   1423.75366     756.4713     606.8286   1423.75366     756.4713     606.8286
   1423.73840     756.0617     607.4294   1423.73840     756.0617     607.4294
   1423.72314     755.1529     606.9141   1423.72314     755.1529     606.9141
   1423.70789     754.7885     606.1757   1423.70789     754.7885     606.1757
   1423.69263     752.7321     606.1778   1423.69263     752.7321     606.1778
   1423.67737     754.1359     605.8760   1423.67737     754.1359     605.8760
   1423.66211     752.4928     605.7049   1423.66211     752.4928     605.7049
   1423.64685     751.7316     606.5054   1423.64685     751.7316     606.5054
   1423.63159     751.7458     605.0545   1423.63159     751.7458     605.0545
   1423.61633     750.6541     604.6887   1423.61633     750.6541     604.6887
   1423.60107     750.1302     604.8175   1423.60107     750.1302     604.8175
   1423.58582     749.3071     603.2734   1423.58582     749.3071     603.2734
   1423.57056     750.1974     602.8428   1423.57056     750.1974     602.8428
   1423.55530     748.5621     603.3133   1423.55530     748.5621     603.3133
   1423.54004     749.4702     603.0469   1423.54004     749.4702     603.0469
   1423.52478     747.9212     602.9591   1423.52478     747.9212     602.9591
   1423.50952     747.6275     601.9745   1423.50952     747.6275     601.9745
   1423.49426     746.0319     601.7545   1423.49426     746.0319     601.7545
   1423.47900     746.5248     601.9168   1423.47900     746.5248     601.9168
   1423.46375     745.1001     601.2809   1423.46375     745.1001     601.2809
   1423.44849     744.4947     601.1180   1423.44849     744.4947     601.1180
   1423.43323     743.5953     600.1230   1423.43323     743.5953     600.1230
   1423.41797     742.7850     600.2856   1423.41797     742.7850     600.2856
   1423.40271     744.3124     598.3013   1423.40271     744.3124     598.3013
   1423.38745     742.6692     599.4573   1423.38745     742.6692     599.4573
   1423.37219     741.9903     598.1650   1423.37219     741.9903     598.1650
   1423.35693     741.4599     597.3657   1423.35693     741.4599     597.3657
   1423.34167     742.2922     597.4106   1423.34167     742.2922     597.4106
   1423.32642     739.6747     597.6544   1423.32642     739.6747     597.6544
   1423.31116     739.8419     596.1368   1423.31116     739.8419     596.1368
   1423.29590     740.3613     595.9966   1423.29590     740.3613     595.9966
   1423.28064     739.4837     596.2810   1423.28064     739.4837     596.2810
   1423.26538     738.9487     594.3134   1423.26538     738.9487     594.3134
   1423.25012     739.0208     594.5350   1423.25012     739.0208     594.5350
   1423.23486     736.9725     593.4324   1423.23486     736.9725     593.4324
   1423.21960     737.6841     593.0007   1423.21960     737.6841     593.0007
   1423.20435     736.2276     592.2761   1423.20435     736.2276     592.2761
   1423.18909     735.2676     592.1548   1423.18909     735.2676     592.1548
   1423.17383     734.9274     590.7314   1423.17383     734.9274     590.7314
   1423.15857     735.6828     591.2449   1423.15857     735.6828     591.2449
   1423.14331     734.3688     590.2247   1423.14331     734.3688     590.2247
   1423.12805     734.4130     589.4135   1423.12805     734.4130     589.4135
   1423.11279     733.2222     588.4211   1423.11279     733.2222     588.4211
   1423.09753     733.2247     588.0294   1423.09753     733.2247     588.0294
   1423.08228     734.0717     588.5798   1423.08228     734.0717     588.5798
   1423.06702     733.6835     586.9467   1423.06702     733.6835     586.9467
   1423.05176     731.6619     587.3425   1423.05176     731.6619     587.3425
   1423.03650     732.4713     586.1413   1423.03650     732.4713     586.1413
   1423.02124     730.1624     584.8656   1423.02124     730.1624     584.8656
   1423.00598     731.6021     583.3875   1423.00598     731.6021     583.3875
   1422.99072     730.6392     583.0074   1422.99072     730.6392     583.0074
   1422.97546     730.4613     582.0911   1422.97546     730.4613     582.0911
   1422.96021     730.3402     581.9255   1422.96021     730.3402     581.9255
   1422.94495     728.5914     580.2964   1422.94495     728.5914     580.2964
   1422.92969     728.6915     580.6144   1422.92969     728.6915     580.6144
   1422.91443     727.5042     579.6241   1422.91443     727.5042     579.6241
   1422.89917     728.3112     578.8307   1422.89917     728.3112     578.8307
   1422.88391     727.5732     577.6818   1422.88391     727.5732     577.6818
   1422.86865     726.1390     577.2723   1422.86865     726.1390     577.2723
   1422.85339     726.9856     576.5193   1422.85339     726.9856     576.5193
   1422.83813     725.9907     575.9025   1422.83813     725.9907     575.9025
   1422.82288     725.9250     576.0275   1422.82288     725.9250     576.0275
   1422.80762     726.0368     574.1559   1422.80762     726.0368     574.1559
   1422.79236     726.1495     573.7051   1422.79236     726.1495     573.7051
   1422.77710     725.0112     572.7793   1422.77710     725.0112     572.7793
   1422.76184     725.9290     571.7852   1422.76184     725.9290     571.7852
   1422.74658     724.1501     570.6718   1422.74658     724.1501     570.6718
   1422.73132     724.4172     570.7487   1422.73132     724.4172     570.7487
   1422.71606     725.2616     569.6575   1422.71606     725.2616     569.6575
   1422.70081     723.1270     568.2156   1422.70081     723.1270     568.2156
   1422.68555     723.3792     568.0143   1422.68555     723.3792     568.0143
   1422.67029     722.9212     567.2109   1422.67029     722.9212     567.2109
   1422.65503     724.2067     565.8007   1422.65503     724.2067     565.8007
   1422.63977     721.9736     564.9136   1422.63977     721.9736     564.9136
   1422.62451     721.7870     564.1001   1422.62451     721.7870     564.1001
   1422.60925     721.6379     562.8281   1422.60925     721.6379     562.8281
   1422.59399     721.7906     562.6038   1422.59399     721.7906     562.6038
   1422.57874     721.3593     561.3646   1422.57874     721.3593     561.3646
   1422.56348     721.6553     560.3609   1422.56348     721.6553     560.3609
   1422.54822     722.1050     559.7551   1422.54822     722.1050     559.7551
   1422.53296     720.8436     558.0964   1422.53296     720.8436     558.0964
   1422.51770     720.8860     557.3256   1422.51770     720.8860     557.3256
   1422.50244     720.6700     556.6154   1422.50244     720.6700     556.6154
   1422.48718     720.3959     556.4826   1422.48718     720.3959     556.4826
   1422.47192     721.4164     554.9382   1422.47192     721.4164     554.9382
   1422.45667     720.9543     554.3206   1422.45667     720.9543     554.3206
   1422.44141     719.9355     552.8928   1422.44141     719.9355     552.8928
   1422.42615     719.1266     552.0652   1422.42615     719.1266     552.0652
   1422.41089     718.2248     551.2711   1422.41089     718.2248     551.2711
   1422.39563     719.9146     551.3067   1422.39563     719.9146     551.3067
   1422.38037     719.0503     549.2122   1422.38037     719.0503     549.2122
   1422.36511     718.2291     548.1044   1422.36511     718.2291     548.1044
   1422.34985     718.6036     547.6541   1422.34985     718.6036     547.6541
   1422.33459     718.0788     545.4111   1422.33459     718.0788     545.4111
   1422.31934     718.8143     544.9804   1422.31934     718.8143     544.9804
   1422.30408     718.5117     543.1656   1422.30408     718.5117     543.1656
   1422.28882     718.5195     543.3878   1422.28882     718.5195     543.3878
   1422.27356     717.8830     542.1796   1422.27356     717.8830     542.1796
   1422.25830     717.2678     541.2357   1422.25830     717.2678     541.2357
   1422.24304     717.6653     541.9555   1422.24304     717.6653     541.9555
   1422.22778     717.1173     540.0744   1422.22778     717.1173     540.0744
   1422.21252     716.3484     537.9406   1422.21252     716.3484     537.9406
   1422.19727     716.4780     536.7526   1422.19727     716.4780     536.7526
   1422.18201     716.0974     535.7153   1422.18201     716.0974     535.7153
   1422.16675     715.7696     535.6043   1422.16675     715.7696     535.6043
   1422.15149     716.3081     533.9271   1422.15149     716.3081     533.9271
   1422.13623     716.2256     532.7497   1422.13623     716.2256     532.7497
   1422.12097     716.1909     531.6854   1422.12097     716.1909     531.6854
   1422.10571     716.5994     530.6052   1422.10571     716.5994     530.6052
   1422.09045     715.8388     529.7007   1422.09045     715.8388     529.7007
   1422.07520     715.0132     528.0359   1422.07520     715.0132     528.0359
   1422.05994     715.8507     528.1624   1422.05994     715.8507     528.1624
   1422.04468     716.1198     526.1935   1422.04468     716.1198     526.1935
   1422.02942     714.6672     525.5804   1422.02942     714.6672     525.5804
   1422.01416     714.1006     524.8055   1422.01416     714.1006     524.8055
   1421.99890     714.7873     523.5211   1421.99890     714.7873     523.5211
   1421.98364     715.2769     522.1653   1421.98364     715.2769     522.1653
   1421.96838     715.4402     520.6392   1421.96838     715.4402     520.6392
   1421.95312     715.0797     519.6276   1421.95312     715.0797     519.6276
   1421.93787     713.6086     518.4324   1421.93787     713.6086     518.4324
   1421.92261     714.4685     518.1915   1421.92261     714.4685     518.1915
   1421.90735     714.4921     516.4639   1421.90735     714.4921     516.4639
   1421.89209     714.8587     516.2814   1421.89209     714.8587     516.2814
   1421.87683     713.4078     514.1639   1421.87683     713.4078     514.1639
   1421.86157     713.5161     513.4269   1421.86157     713.5161     513.4269
   1421.84631     714.0458     511.8008   1421.84631     714.0458     511.8008
   1421.83105     714.3141     510.4361   1421.83105     714.3141     510.4361
   1421.81580     713.5978     509.9683   1421.81580     713.5978     509.9683
   1421.80054     712.9789     509.1477   1421.80054     712.9789     509.1477
   1421.78528     713.7935     507.7036   1421.78528     713.7935     507.7036
   1421.77002     712.0511     506.6843   1421.77002     712.0511     506.6843
   1421.75476     714.1658     505.3528   1421.75476     714.1658     505.3528
   1421.73950     713.4225     504.8258   1421.73950     713.4225     504.8258
   1421.72424     712.9470     502.8227   1421.72424     712.9470     502.8227
   1421.70898     712.9720     502.2650   1421.70898     712.9720     502.2650
   1421.69373     712.8362     501.6943   1421.69373     712.8362     501.6943
   1421.67847     712.4789     499.8961   1421.67847     712.4789     499.8961
   1421.66321     712.6415     498.8923   1421.66321     712.6415     498.8923
   1421.64795     711.8424     497.8867   1421.64795     711.8424     497.8867
   1421.63269     713.1607     496.5637   1421.63269     713.1607     496.5637
   1421.61743     712.0347     495.5082   1421.61743     712.0347     495.5082
   1421.60217     712.9561     493.9515   1421.60217     712.9561     493.9515
   1421.58691     712.2836     492.4459   1421.58691     712.2836     492.4459
   1421.57166     711.1967     492.6944   1421.57166     711.1967     492.6944
   1421.55640     710.2317     490.7054   1421.55640     710.2317     490.7054
   1421.54114     711.6414     490.1148   1421.54114     711.6414     490.1148
   1421.52588     710.8296     488.2312   1421.52588     710.8296     488.2312
   1421.51062     712.1094     487.3375   1421.51062     712.1094     487.3375
   1421.49536     711.5895     485.7787   1421.49536     711.5895     485.7787
   1421.48010     710.6605     485.3386   1421.48010     710.6605     485.3386
   1421.46484     711.0037     484.4012   1421.46484     711.0037     484.4012
   1421.44958     709.9521     482.8023   1421.44958     709.9521     482.8023
   1421.43433     710.3904     482.5570   1421.43433     710.3904     482.5570
   1421.41907     709.9180     480.9992   1421.41907     709.9180     480.9992
   1421.40381     709.6293     479.4855   1421.40381     709.6293     479.4855
   1421.38855     709.8005     477.9465   1421.38855     709.8005     477.9465
   1421.37329     710.3869     477.3995   1421.37329     710.3869     477.3995
   1421.35803     708.8369     476.6227   1421.35803     708.8369     476.6227
   1421.34277     709.9587     475.3430   1421.34277     709.9587     475.3430
   1421.32751     708.9368     474.3724   1421.32751     708.9368     474.3724
   1421.31226     709.6812     473.6018   1421.31226     709.6812     473.6018
   1421.29700     709.6577     471.6680   1421.29700     709.6577     471.6680
   1421.28174     708.9233     471.2153   1421.28174     708.9233     471.2153
   1421.26648     708.8940     470.2242   1421.26648     708.8940     470.2242
   1421.25122     709.0401     469.1487   1421.25122     709.0401     469.1487
   1421.23596     709.2159     467.7709   1421.23596     709.2159     467.7709
   1421.22070     708.6926     466.6728   1421.22070     708.6926     466.6728
   1421.20544     708.2694     464.9587   1421.20544     708.2694     464.9587
   1421.19019     707.9049     465.8265   1421.19019     707.9049     465.8265
   1421.17493     709.0053     463.7886   1421.17493     709.0053     463.7886
   1421.15967     707.7864     462.2962   1421.15967     707.7864     462.2962
   1421.14441     708.0988     461.6519   1421.14441     708.0988     461.6519
   1421.12915     708.1087     459.9748   1421.12915     708.1087     459.9748
   1421.11389     707.9471     459.5812   1421.11389     707.9471     459.5812
   1421.09863     707.7120     457.3677   1421.09863     707.7120     457.3677
   1421.08337     707.9052     457.6154   1421.08337     707.9052     457.6154
   1421.06812     708.2321     457.6088   1421.06812     708.2321     457.6088
   1421.05286     707.8889     455.8748   1421.05286     707.8889     455.8748
   1421.03760     707.8293     454.6679   1421.03760     707.8293     454.6679
   1421.02234     709.6900     454.6575   1421.02234     709.6900     454.6575
   1421.00708     710.4098     454.5164   1421.00708     710.4098     454.5164
   1420.99182     711.3992     454.5658   1420.99182     711.3992     454.5658
   1420.97656     713.8308     454.3487   1420.97656     713.8308     454.3487
   1420.96130     714.6009     455.1324   1420.96130     714.6009     455.1324
   1420.94604     717.7167     455.7166   1420.94604     717.7167     455.7166
   1420.93079     720.7703     456.2632   1420.93079     720.7703     456.2632
   1420.91553     725.7546     459.0452   1420.91553     725.7546     459.0452
   1420.90027     738.1782     465.8123   1420.90027     738.1782     465.8123
   1420.88501     751.5093     471.9336   1420.88501     751.5093     471.9336
   1420.86975     750.1167     469.6948   1420.86975     750.1167     469.6948
   1420.85449     744.4482     466.1647   1420.85449     744.4482     466.1647
   1420.83923     738.1144     461.7435   1420.83923     738.1144     461.7435
   1420.82397     742.1808     462.5235   1420.82397     742.1808     462.5235
   1420.80872     750.7802     468.2822   1420.80872     750.7802     468.2822
   1420.79346     776.3331     481.3850   1420.79346     776.3331     481.3850
   1420.77820     822.3470     509.0537   1420.77820     822.3470     509.0537
   1420.76294     940.2707     581.7266   1420.76294     940.2707     581.7266
   1420.74768    1074.8557     660.0538   1420.74768    1074.8557     660.0538
   1420.73242    1176.0884     720.1013   1420.73242    1176.0884     720.1013
   1420.71716    1284.6292     783.5328   1420.71716    1284.6292     783.5328
   1420.70190    1261.2406     765.7670   1420.70190    1261.2406     765.7670
   1420.68665    1216.3236     740.0663   1420.68665    1216.3236     740.0663
   1420.67139    1198.2506     727.2595   1420.67139    1198.2506     727.2595
   1420.65613    1258.3119     760.1635   1420.65613    1258.3119     760.1635
   1420.64087    1305.1322     788.7171   1420.64087    1305.1322     788.7171
   1420.62561    1484.9952     893.0072   1420.62561    1484.9952     893.0072
   1420.61035    1595.2542     957.2786   1420.61035    1595.2542     957.2786
   1420.59509    1649.6923     988.5564   1420.59509    1649.6923     988.5564
   1420.57983    2036.3809    1213.4923   1420.57983    2036.3809    1213.4923
   1420.56458    2443.3750    1452.6465   1420.56458    2443.3750    1452.6465
   1420.54932    2587.9573    1529.7482   1420.54932    2587.9573    1529.7482
   1420.53406    2525.2354    1492.5448   1420.53406    2525.2354    1492.5448
   1420.51880    2147.5815    1269.8781   1420.51880    2147.5815    1269.8781
   1420.50354    1659.6190     982.7629   1420.50354    1659.6190     982.7629
   1420.48828    1453.1602     859.9078   1420.48828    1453.1602     859.9078
   1420.47302    1520.6090     894.6107   1420.47302    1520.6090     894.6107
   1420.45776    1757.7273    1033.5400   1420.45776    1757.7273    1033.5400
   1420.44250    1916.4978    1124.9956   1420.44250    1916.4978    1124.9956
   1420.42725    2000.7706    1169.4666   1420.42725    2000.7706    1169.4666
   1420.41199    1908.7048    1116.0850   1420.41199    1908.7048    1116.0850
   1420.39673    1783.7788    1042.4429   1420.39673    1783.7788    1042.4429
   1420.38147    1747.8673    1018.0056   1420.38147    1747.8673    1018.0056
   1420.36621    1366.1567     798.8163   1420.36621    1366.1567     798.8163
   1420.35095     921.4533     540.4767   1420.35095     921.4533     540.4767
   1420.33569     809.7052     476.7203   1420.33569     809.7052     476.7203
   1420.32043     777.5099     456.7343   1420.32043     777.5099     456.7343
   1420.30518     753.8723     442.8698   1420.30518     753.8723     442.8698
   1420.28992     735.5560     432.0620   1420.28992     735.5560     432.0620
   1420.27466     722.4125     423.5663   1420.27466     722.4125     423.5663
   1420.25940     714.8649     418.9229   1420.25940     714.8649     418.9229
   1420.24414     710.7769     415.3584   1420.24414     710.7769     415.3584
   1420.22888     706.8689     413.5111   1420.22888     706.8689     413.5111
   1420.21362     705.3808     411.4227   1420.21362     705.3808     411.4227
   1420.19836     704.2785     410.3088   1420.19836     704.2785     410.3088
   1420.18311     701.8870     408.8123   1420.18311     701.8870     408.8123
   1420.16785     701.4228     407.5716   1420.16785     701.4228     407.5716
   1420.15259     700.5349     406.1611   1420.15259     700.5349     406.1611
   1420.13733     698.2068     405.2497   1420.13733     698.2068     405.2497
   1420.12207     698.2302     404.4033   1420.12207     698.2302     404.4033
   1420.10681     698.0070     403.0161   1420.10681     698.0070     403.0161
   1420.09155     697.8015     402.1571   1420.09155     697.8015     402.1571
   1420.07629     696.1757     401.0209   1420.07629     696.1757     401.0209
   1420.06104     695.8613     399.9376   1420.06104     695.8613     399.9376
   1420.04578     695.8897     399.9496   1420.04578     695.8897     399.9496
   1420.03052     694.8793     399.4523   1420.03052     694.8793     399.4523
   1420.01526     695.6386     399.7269   1420.01526     695.6386     399.7269
   1420.00000     696.9887     400.6469   1420.00000     696.9887     400.6469
   1419.98474     698.3386     401.5670   1419.98474     698.3386     401.5670
   1419.96948     698.5970     398.1689   1419.96948     698.5970     398.1689
   1419.95422     694.5080     396.3874   1419.95422     694.5080     396.3874
   1419.93896     695.4093     395.9148   1419.93896     695.4093     395.9148
   1419.92371     694.8011     395.4320   1419.92371     694.8011     395.4320
   1419.90845     695.2585     395.5227   1419.90845     695.2585     395.5227
   1419.89319     694.0983     394.2808   1419.89319     694.0983     394.2808
   1419.87793     694.2641     393.9186   1419.87793     694.2641     393.9186
   1419.86267     694.9011     393.9144   1419.86267     694.9011     393.9144
   1419.84741     695.6099     392.7401   1419.84741     695.6099     392.7401
   1419.83215     695.5232     392.6900   1419.83215     695.5232     392.6900
   1419.81689     695.1682     392.0627   1419.81689     695.1682     392.0627
   1419.80164     695.7759     392.5404   1419.80164     695.7759     392.5404
   1419.78638     695.3200     391.7464   1419.78638     695.3200     391.7464
   1419.77112     695.7990     391.8994   1419.77112     695.7990     391.8994
   1419.75586     694.8564     391.4781   1419.75586     694.8564     391.4781
   1419.74060     695.4083     390.3639   1419.74060     695.4083     390.3639
   1419.72534     694.5278     389.9599   1419.72534     694.5278     389.9599
   1419.71008     696.5884     389.5000   1419.71008     696.5884     389.5000
   1419.69482     695.7134     389.6992   1419.69482     695.7134     389.6992
   1419.67957     696.5261     389.6042   1419.67957     696.5261     389.6042
   1419.66431     698.1759     389.4093   1419.66431     698.1759     389.4093
   1419.64905     696.0949     389.3111   1419.64905     696.0949     389.3111
   1419.63379     697.4156     388.6023   1419.63379     697.4156     388.6023
   1419.61853     696.9359     388.5114   1419.61853     696.9359     388.5114
   1419.60327     698.1549     388.8547   1419.60327     698.1549     388.8547
   1419.58801     697.4117     388.0129   1419.58801     697.4117     388.0129
   1419.57275     697.9004     387.9953   1419.57275     697.9004     387.9953
   1419.55750     698.3247     387.9178   1419.55750     698.3247     387.9178
   1419.54224     697.6118     387.9255   1419.54224     697.6118     387.9255
   1419.52698     698.6030     387.5852   1419.52698     698.6030     387.5852
   1419.51172     698.5015     387.6096   1419.51172     698.5015     387.6096
   1419.49646     698.9859     387.7981   1419.49646     698.9859     387.7981
   1419.48120     699.3728     387.5573   1419.48120     699.3728     387.5573
   1419.46594     700.1005     386.8904   1419.46594     700.1005     386.8904
   1419.45068     700.2333     386.8686   1419.45068     700.2333     386.8686
   1419.43542     701.2827     386.5789   1419.43542     701.2827     386.5789
   1419.42017     701.4369     387.0771   1419.42017     701.4369     387.0771
   1419.40491     701.1440     387.0266   1419.40491     701.1440     387.0266
   1419.38965     700.7046     387.0808   1419.38965     700.7046     387.0808
   1419.37439     703.2141     386.6996   1419.37439     703.2141     386.6996
   1419.35913     702.5593     386.7838   1419.35913     702.5593     386.7838
   1419.34387     702.8138     387.0816   1419.34387     702.8138     387.0816
   1419.32861     702.8951     386.8491   1419.32861     702.8951     386.8491
   1419.31335     702.7441     387.0108   1419.31335     702.7441     387.0108
   1419.29810     702.6406     386.9718   1419.29810     702.6406     386.9718
   1419.28284     703.7862     386.9751   1419.28284     703.7862     386.9751
   1419.26758     704.1481     387.5010   1419.26758     704.1481     387.5010
   1419.25232     706.0880     387.9484   1419.25232     706.0880     387.9484
   1419.23706     704.2040     387.4113   1419.23706     704.2040     387.4113
   1419.22180     705.0558     386.8345   1419.22180     705.0558     386.8345
   1419.20654     705.6604     387.7926   1419.20654     705.6604     387.7926
   1419.19128     706.5322     387.2348   1419.19128     706.5322     387.2348
   1419.17603     707.2528     388.3382   1419.17603     707.2528     388.3382
   1419.16077     707.2098     387.9938   1419.16077     707.2098     387.9938
   1419.14551     707.5005     388.1007   1419.14551     707.5005     388.1007
   1419.13025     707.9785     388.0111   1419.13025     707.9785     388.0111
   1419.11499     709.0380     388.1043   1419.11499     709.0380     388.1043
   1419.09973     709.5942     388.5922   1419.09973     709.5942     388.5922
   1419.08447     709.9839     388.4701   1419.08447     709.9839     388.4701
   1419.06921     710.8583     389.2865   1419.06921     710.8583     389.2865
   1419.05396     711.7686     388.8057   1419.05396     711.7686     388.8057
   1419.03870     711.1403     389.6034   1419.03870     711.1403     389.6034
   1419.02344     710.4453     389.5390   1419.02344     710.4453     389.5390
   1419.00818     711.9537     389.8485   1419.00818     711.9537     389.8485
   1418.99292     712.5348     389.9828   1418.99292     712.5348     389.9828
   1418.97766     713.8272     390.1248   1418.97766     713.8272     390.1248
   1418.96240     713.9865     391.2413   1418.96240     713.9865     391.2413
   1418.94714     713.8720     390.7710   1418.94714     713.8720     390.7710
   1418.93188     714.9904     391.1280   1418.93188     714.9904     391.1280
   1418.91663     715.4744     391.9012   1418.91663     715.4744     391.9012
   1418.90137     716.8511     391.8441   1418.90137     716.8511     391.8441
   1418.88611     717.5352     391.5578   1418.88611     717.5352     391.5578
   1418.87085     716.6293     392.9907   1418.87085     716.6293     392.9907
   1418.85559     718.7106     393.3194   1418.85559     718.7106     393.3194
   1418.84033     718.2770     393.2163   1418.84033     718.2770     393.2163
   1418.82507     719.2444     393.9138   1418.82507     719.2444     393.9138
   1418.80981     718.8314     394.2399   1418.80981     718.8314     394.2399
   1418.79456     719.8694     394.5849   1418.79456     719.8694     394.5849
   1418.77930     720.5483     395.3010   1418.77930     720.5483     395.3010
   1418.76404     722.1292     395.7771   1418.76404     722.1292     395.7771
   1418.74878     723.3415     396.7942   1418.74878     723.3415     396.7942
   1418.73352     722.4056     396.4390   1418.73352     722.4056     396.4390
   1418.71826     723.7474     397.2536   1418.71826     723.7474     397.2536
   1418.70300     724.4659     397.1620   1418.70300     724.4659     397.1620
   1418.68774     724.9429     398.0478   1418.68774     724.9429     398.0478
   1418.67249     725.3644     398.1619   1418.67249     725.3644     398.1619
   1418.65723     725.7424     399.9811   1418.65723     725.7424     399.9811
   1418.64197     727.6180     400.2193   1418.64197     727.6180     400.2193
   1418.62671     727.5029     400.3048   1418.62671     727.5029     400.3048
   1418.61145     727.9240     400.9326   1418.61145     727.9240     400.9326
   1418.59619     727.9902     401.7275   1418.59619     727.9902     401.7275
   1418.58093     729.6904     402.0406   1418.58093     729.6904     402.0406
   1418.56567     728.9917     402.5074   1418.56567     728.9917     402.5074
   1418.55042     732.8961     403.0231   1418.55042     732.8961     403.0231
   1418.53516     732.8353     403.9336   1418.53516     732.8353     403.9336
   1418.51990     732.4315     404.6439   1418.51990     732.4315     404.6439
   1418.50464     733.5650     404.4499   1418.50464     733.5650     404.4499
   1418.48938     734.3052     405.9462   1418.48938     734.3052     405.9462
   1418.47412     735.1936     405.9784   1418.47412     735.1936     405.9784
   1418.45886     735.9333     407.0845   1418.45886     735.9333     407.0845
   1418.44360     736.6815     408.0586   1418.44360     736.6815     408.0586
   1418.42834     737.6708     408.2476   1418.42834     737.6708     408.2476
   1418.41309     738.7150     408.3828   1418.41309     738.7150     408.3828
   1418.39783     738.6050     409.4168   1418.39783     738.6050     409.4168
   1418.38257     738.7353     410.3228   1418.38257     738.7353     410.3228
   1418.36731     741.3923     410.8754   1418.36731     741.3923     410.8754
   1418.35205     742.1066     411.7883   1418.35205     742.1066     411.7883
   1418.33679     742.8961     412.3897   1418.33679     742.8961     412.3897
   1418.32153     743.1879     414.2454   1418.32153     743.1879     414.2454
   1418.30627     745.1087     414.8189   1418.30627     745.1087     414.8189
   1418.29102     745.6702     414.5916   1418.29102     745.6702     414.5916
   1418.27576     747.3032     415.8314   1418.27576     747.3032     415.8314
   1418.26050     747.6794     415.2776   1418.26050     747.6794     415.2776
   1418.24524     747.5218     417.2764   1418.24524     747.5218     417.2764
   1418.22998     749.4736     417.5191   1418.22998     749.4736     417.5191
   1418.21472     749.6832     418.4639   1418.21472     749.6832     418.4639
   1418.19946     750.3700     419.7816   1418.19946     750.3700     419.7816
   1418.18420     751.1404     420.2628   1418.18420     751.1404     420.2628
   1418.16895     751.5693     421.4624   1418.16895     751.5693     421.4624
   1418.15369     751.1841     421.3487   1418.15369     751.1841     421.3487
   1418.13843     753.3982     423.5201   1418.13843     753.3982     423.5201
   1418.12317     755.1121     423.2830   1418.12317     755.1121     423.2830
   1418.10791     756.0043     425.1799   1418.10791     756.0043     425.1799
   1418.09265     756.5994     426.2600   1418.09265     756.5994     426.2600
   1418.07739     757.5319     426.4639   1418.07739     757.5319     426.4639
   1418.06213     758.0247     427.7149   1418.06213     758.0247     427.7149
   1418.04688     759.0651     429.2892   1418.04688     759.0651     429.2892
   1418.03162     759.7483     429.8874   1418.03162     759.7483     429.8874
   1418.01636     761.1368     430.2953   1418.01636     761.1368     430.2953
   1418.00110     763.2787     431.6555   1418.00110     763.2787     431.6555
   1417.98584     764.1615     432.2716   1417.98584     764.1615     432.2716
   1417.97058     763.7502     433.6465   1417.97058     763.7502     433.6465
   1417.95532     764.4067     434.3907   1417.95532     764.4067     434.3907
   1417.94006     765.9941     434.6417   1417.94006     765.9941     434.6417
   1417.92480     767.3586     435.4471   1417.92480     767.3586     435.4471
   1417.90955     767.7146     437.1191   1417.90955     767.7146     437.1191
   1417.89429     768.3901     437.6010   1417.89429     768.3901     437.6010
   1417.87903     771.0101     439.1393   1417.87903     771.0101     439.1393
   1417.86377     771.3149     439.5884   1417.86377     771.3149     439.5884
   1417.84851     772.2050     440.5274   1417.84851     772.2050     440.5274
   1417.83325     772.7927     443.0215   1417.83325     772.7927     443.0215
   1417.81799     773.3995     442.8733   1417.81799     773.3995     442.8733
   1417.80273     774.4598     445.1837   1417.80273     774.4598     445.1837
   1417.78748     775.0734     445.5922   1417.78748     775.0734     445.5922
   1417.77222     777.1715     446.9569   1417.77222     777.1715     446.9569
   1417.75696     777.0751     447.2561   1417.75696     777.0751     447.2561
   1417.74170     776.6224     448.2433   1417.74170     776.6224     448.2433
   1417.72644     779.4548     450.0792   1417.72644     779.4548     450.0792
   1417.71118     780.8654     451.3297   1417.71118     780.8654     451.3297
   1417.69592     781.2211     451.5337   1417.69592     781.2211     451.5337
   1417.68066     782.6075     451.7180   1417.68066     782.6075     451.7180
   1417.66541     783.0741     454.6400   1417.66541     783.0741     454.6400
   1417.65015     784.2374     454.8945   1417.65015     784.2374     454.8945
   1417.63489     784.7880     455.8795   1417.63489     784.7880     455.8795
   1417.61963     784.8907     457.4376   1417.61963     784.8907     457.4376
   1417.60437     786.1274     458.2299   1417.60437     786.1274     458.2299
   1417.58911     787.4734     459.3282   1417.58911     787.4734     459.3282
   1417.57385     788.3926     461.0770   1417.57385     788.3926     461.0770
   1417.55859     788.2491     461.4873   1417.55859     788.2491     461.4873
   1417.54333     789.5070     462.7527   1417.54333     789.5070     462.7527
   1417.52808     791.4477     464.5504   1417.52808     791.4477     464.5504
   1417.51282     791.3289     465.0349   1417.51282     791.3289     465.0349
   1417.49756     792.4749     466.1886   1417.49756     792.4749     466.1886
   1417.48230     794.1265     467.5174   1417.48230     794.1265     467.5174
   1417.46704     794.9504     469.6346   1417.46704     794.9504     469.6346
   1417.45178     794.0599     469.8792   1417.45178     794.0599     469.8792
   1417.43652     796.2872     470.6826   1417.43652     796.2872     470.6826
   1417.42126     796.5528     471.6604   1417.42126     796.5528     471.6604
   1417.40601     797.4513     472.9612   1417.40601     797.4513     472.9612
   1417.39075     798.9534     474.9234   1417.39075     798.9534     474.9234
   1417.37549     800.1989     475.6267   1417.37549     800.1989     475.6267
   1417.36023     801.1336     476.6996   1417.36023     801.1336     476.6996
   1417.34497     801.4939     477.4143   1417.34497     801.4939     477.4143
   1417.32971     802.1879     479.3440   1417.32971     802.1879     479.3440
   1417.31445     803.2786     480.5071   1417.31445     803.2786     480.5071
   1417.29919     803.8668     481.8382   1417.29919     803.8668     481.8382
   1417.28394     805.1048     482.8791   1417.28394     805.1048     482.8791
   1417.26868     804.8973     484.3832   1417.26868     804.8973     484.3832
   1417.25342     805.4447     484.9437   1417.25342     805.4447     484.9437
   1417.23816     806.4240     485.7314   1417.23816     806.4240     485.7314
   1417.22290     808.7380     486.9528   1417.22290     808.7380     486.9528
   1417.20764     807.9574     488.4166   1417.20764     807.9574     488.4166
   1417.19238     807.9763     489.0949   1417.19238     807.9763     489.0949
   1417.17712     810.1313     489.8464   1417.17712     810.1313     489.8464
   1417.16187     810.4875     491.7450   1417.16187     810.4875     491.7450
   1417.14661     811.2335     492.8440   1417.14661     811.2335     492.8440
   1417.13135     810.1190     494.2631   1417.13135     810.1190     494.2631
   1417.11609     812.1229     495.2509   1417.11609     812.1229     495.2509
   1417.10083     811.7394     495.7402   1417.10083     811.7394     495.7402
   1417.08557     814.1057     497.7532   1417.08557     814.1057     497.7532
   1417.07031     813.3671     498.0056   1417.07031     813.3671     498.0056
   1417.05505     813.8826     499.3977   1417.05505     813.8826     499.3977
   1417.03979     814.7554     501.0498   1417.03979     814.7554     501.0498
   1417.02454     815.6714     501.4220   1417.02454     815.6714     501.4220
   1417.00928     815.8488     502.3109   1417.00928     815.8488     502.3109
   1416.99402     818.6605     504.2203   1416.99402     818.6605     504.2203
   1416.97876     817.6329     504.0493   1416.97876     817.6329     504.0493
   1416.96350     817.0779     505.9285   1416.96350     817.0779     505.9285
   1416.94824     818.0378     506.4220   1416.94824     818.0378     506.4220
   1416.93298     818.9884     508.6545   1416.93298     818.9884     508.6545
   1416.91772     819.0716     508.7103   1416.91772     819.0716     508.7103
   1416.90247     819.3978     510.3102   1416.90247     819.3978     510.3102
   1416.88721     819.1679     510.6316   1416.88721     819.1679     510.6316
   1416.87195     819.7502     511.0783   1416.87195     819.7502     511.0783
   1416.85669     821.0963     512.5085   1416.85669     821.0963     512.5085
   1416.84143     820.4062     513.6964   1416.84143     820.4062     513.6964
   1416.82617     821.4629     513.9478   1416.82617     821.4629     513.9478
   1416.81091     821.9316     515.1039   1416.81091     821.9316     515.1039
   1416.79565     820.8121     515.7297   1416.79565     820.8121     515.7297
   1416.78040     822.3670     517.1243   1416.78040     822.3670     517.1243
   1416.76514     822.3442     518.0572   1416.76514     822.3442     518.0572
   1416.74988     823.1320     519.1443   1416.74988     823.1320     519.1443
   1416.73462     822.7838     520.0223   1416.73462     822.7838     520.0223
   1416.71936     822.4373     520.4790   1416.71936     822.4373     520.4790
   1416.70410     823.4656     521.4722   1416.70410     823.4656     521.4722
   1416.68884     822.6939     521.0896   1416.68884     822.6939     521.0896
   1416.67358     823.9306     523.9417   1416.67358     823.9306     523.9417
   1416.65833     822.8218     523.5342   1416.65833     822.8218     523.5342
   1416.64307     823.3373     523.9799   1416.64307     823.3373     523.9799
   1416.62781     822.9518     524.4699   1416.62781     822.9518     524.4699
   1416.61255     823.7158     525.7298   1416.61255     823.7158     525.7298
   1416.59729     824.7764     526.2988   1416.59729     824.7764     526.2988
   1416.58203     824.7061     526.4052   1416.58203     824.7061     526.4052
   1416.56677     823.7156     527.6078   1416.56677     823.7156     527.6078
   1416.55151     824.4272     527.4324   1416.55151     824.4272     527.4324
   1416.53625     824.4458     527.9224   1416.53625     824.4458     527.9224
   1416.52100     823.7496     528.3835   1416.52100     823.7496     528.3835
   1416.50574     822.5630     528.8940   1416.50574     822.5630     528.8940
   1416.49048     823.0591     529.3245   1416.49048     823.0591     529.3245
   1416.47522     821.1645     530.1425   1416.47522     821.1645     530.1425
   1416.45996     822.6038     529.9384   1416.45996     822.6038     529.9384
   1416.44470     822.4301     530.7820   1416.44470     822.4301     530.7820
   1416.42944     821.7417     530.7881   1416.42944     821.7417     530.7881
   1416.41418     821.3020     531.9778   1416.41418     821.3020     531.9778
   1416.39893     821.9222     531.2617   1416.39893     821.9222     531.2617
   1416.38367     822.0168     531.8572   1416.38367     822.0168     531.8572
   1416.36841     820.9139     532.3801   1416.36841     820.9139     532.3801
   1416.35315     822.1104     532.7984   1416.35315     822.1104     532.7984
   1416.33789     821.0317     532.7546   1416.33789     821.0317     532.7546
   1416.32263     820.0777     533.1243   1416.32263     820.0777     533.1243
   1416.30737     820.1788     533.6307   1416.30737     820.1788     533.6307
   1416.29211     819.6873     533.7106   1416.29211     819.6873     533.7106
   1416.27686     818.5763     533.5831   1416.27686     818.5763     533.5831
   1416.26160     818.3602     533.7012   1416.26160     818.3602     533.7012
   1416.24634     817.4507     533.8555   1416.24634     817.4507     533.8555
   1416.23108     817.7052     534.3179   1416.23108     817.7052     534.3179
   1416.21582     816.9487     534.0606   1416.21582     816.9487     534.0606
   1416.20056     817.3782     534.4305   1416.20056     817.3782     534.4305
   1416.18530     815.2426     534.3152   1416.18530     815.2426     534.3152
   1416.17004     815.6358     533.7289   1416.17004     815.6358     533.7289
   1416.15479     814.0331     534.3276   1416.15479     814.0331     534.3276
   1416.13953     814.3427     533.8648   1416.13953     814.3427     533.8648
   1416.12427     814.2403     534.6822   1416.12427     814.2403     534.6822
   1416.10901     813.3159     533.3958   1416.10901     813.3159     533.3958
   1416.09375     813.5153     534.4582   1416.09375     813.5153     534.4582
   1416.07849     811.0993     534.3829   1416.07849     811.0993     534.3829
   1416.06323     810.9453     534.5201   1416.06323     810.9453     534.5201
   1416.04797     811.4084     533.7983   1416.04797     811.4084     533.7983
   1416.03271     809.6470     533.8214   1416.03271     809.6470     533.8214
   1416.01746     808.4192     532.8989   1416.01746     808.4192     532.8989
   1416.00220     809.2488     532.4717   1416.00220     809.2488     532.4717
   1415.98694     805.3273     532.6442   1415.98694     805.3273     532.6442
   1415.97168     806.5036     532.2612   1415.97168     806.5036     532.2612
   1415.95642     806.8309     532.7729   1415.95642     806.8309     532.7729
   1415.94116     805.6392     532.4825   1415.94116     805.6392     532.4825
   1415.92590     804.9937     532.6974   1415.92590     804.9937     532.6974
   1415.91064     803.3201     532.1584   1415.91064     803.3201     532.1584
   1415.89539     803.7028     530.9986   1415.89539     803.7028     530.9986
   1415.88013     802.0585     531.3946   1415.88013     802.0585     531.3946
   1415.86487     802.8703     531.7172   1415.86487     802.8703     531.7172
   1415.84961     800.3972     529.9427   1415.84961     800.3972     529.9427
   1415.83435     800.1176     530.8968   1415.83435     800.1176     530.8968
   1415.81909     798.7886     530.2317   1415.81909     798.7886     530.2317
   1415.80383     797.3539     529.9593   1415.80383     797.3539     529.9593
   1415.78857     797.6083     530.5181   1415.78857     797.6083     530.5181
   1415.77332     795.0245     529.5281   1415.77332     795.0245     529.5281
   1415.75806     794.9200     529.0191   1415.75806     794.9200     529.0191
   1415.74280     793.7394     528.2283   1415.74280     793.7394     528.2283
   1415.72754     793.0087     527.4307   1415.72754     793.0087     527.4307
   1415.71228     791.6328     527.3552   1415.71228     791.6328     527.3552
   1415.69702     790.9362     527.7239   1415.69702     790.9362     527.7239
   1415.68176     788.5609     526.4437   1415.68176     788.5609     526.4437
   1415.66650     789.7236     526.8138   1415.66650     789.7236     526.8138
   1415.65125     788.2770     525.4338   1415.65125     788.2770     525.4338
   1415.63599     786.9379     525.6409   1415.63599     786.9379     525.6409
   1415.62073     785.3005     524.7692   1415.62073     785.3005     524.7692
   1415.60547     786.4216     524.5830   1415.60547     786.4216     524.5830
   1415.59021     784.4132     524.0539   1415.59021     784.4132     524.0539
   1415.57495     781.7194     523.2504   1415.57495     781.7194     523.2504
   1415.55969     782.9954     523.2016   1415.55969     782.9954     523.2016
   1415.54443     781.5294     522.3891   1415.54443     781.5294     522.3891
   1415.52917     781.6182     522.4410   1415.52917     781.6182     522.4410
   1415.51392     777.7709     521.9517   1415.51392     777.7709     521.9517
   1415.49866     778.0811     521.3937   1415.49866     778.0811     521.3937
   1415.48340     776.6370     520.1689   1415.48340     776.6370     520.1689
   1415.46814     775.3110     520.2371   1415.46814     775.3110     520.2371
   1415.45288     774.3894     519.8638   1415.45288     774.3894     519.8638
   1415.43762     773.7134     519.0419   1415.43762     773.7134     519.0419
   1415.42236     773.2123     518.9286   1415.42236     773.2123     518.9286
   1415.40710     770.3038     517.2769   1415.40710     770.3038     517.2769
   1415.39185     769.7812     516.8345   1415.39185     769.7812     516.8345
   1415.37659     768.9274     516.9218   1415.37659     768.9274     516.9218
   1415.36133     766.8893     515.8242   1415.36133     766.8893     515.8242
   1415.34607     765.4813     515.7495   1415.34607     765.4813     515.7495
   1415.33081     764.3913     514.7453   1415.33081     764.3913     514.7453
   1415.31555     764.3828     514.7847   1415.31555     764.3828     514.7847
   1415.30029     763.4622     513.3351   1415.30029     763.4622     513.3351
   1415.28503     761.3475     512.4017   1415.28503     761.3475     512.4017
   1415.26978     758.4231     512.5093   1415.26978     758.4231     512.5093
   1415.25452     759.0674     512.5778   1415.25452     759.0674     512.5778
   1415.23926     756.3597     510.6235   1415.23926     756.3597     510.6235
   1415.22400     754.8361     509.3224   1415.22400     754.8361     509.3224
   1415.20874     753.0135     509.7536   1415.20874     753.0135     509.7536
   1415.19348     752.6288     509.7061   1415.19348     752.6288     509.7061
   1415.17822     751.5338     508.6609   1415.17822     751.5338     508.6609
   1415.16296     749.2773     507.4507   1415.16296     749.2773     507.4507
   1415.14771     747.1979     507.4819   1415.14771     747.1979     507.4819
   1415.13245     747.2198     505.3152   1415.13245     747.2198     505.3152
   1415.11719     744.9713     505.3965   1415.11719     744.9713     505.3965
   1415.10193     743.3488     504.7133   1415.10193     743.3488     504.7133
   1415.08667     742.2310     503.9571   1415.08667     742.2310     503.9571
   1415.07141     740.5138     502.9509   1415.07141     740.5138     502.9509
   1415.05615     738.1376     502.2603   1415.05615     738.1376     502.2603
   1415.04089     736.8484     501.7667   1415.04089     736.8484     501.7667
   1415.02563     736.3169     500.8800   1415.02563     736.3169     500.8800
   1415.01038     734.8052     499.8637   1415.01038     734.8052     499.8637
   1414.99512     732.2436     499.5124   1414.99512     732.2436     499.5124
   1414.97986     731.7162     498.2237   1414.97986     731.7162     498.2237
   1414.96460     729.5333     497.2658   1414.96460     729.5333     497.2658
   1414.94934     727.9398     496.6452   1414.94934     727.9398     496.6452
   1414.93408     726.2141     495.6209   1414.93408     726.2141     495.6209
   1414.91882     723.5120     494.3076   1414.91882     723.5120     494.3076
   1414.90356     722.8721     493.4044   1414.90356     722.8721     493.4044
   1414.88831     721.5387     492.2463   1414.88831     721.5387     492.2463
   1414.87305     719.7285     492.9634   1414.87305     719.7285     492.9634
   1414.85779     716.3376     491.7711   1414.85779     716.3376     491.7711
   1414.84253     715.8209     490.1927   1414.84253     715.8209     490.1927
   1414.82727     714.0035     489.4656   1414.82727     714.0035     489.4656
   1414.81201     712.0023     487.9012   1414.81201     712.0023     487.9012
   1414.79675     710.0060     487.0882   1414.79675     710.0060     487.0882
   1414.78149     708.8152     486.3762   1414.78149     708.8152     486.3762
   1414.76624     705.7250     485.6839   1414.76624     705.7250     485.6839
   1414.75098     704.8482     483.5132   1414.75098     704.8482     483.5132
   1414.73572     703.2341     483.8463   1414.73572     703.2341     483.8463
   1414.72046     699.9982     482.5097   1414.72046     699.9982     482.5097
   1414.70520     698.7025     481.1747   1414.70520     698.7025     481.1747
   1414.68994     698.4166     480.0539   1414.68994     698.4166     480.0539
   1414.67468     694.7918     477.7776   1414.67468     694.7918     477.7776
   1414.65942     692.9708     477.6247   1414.65942     692.9708     477.6247
   1414.64417     690.9913     476.5222   1414.64417     690.9913     476.5222
   1414.62891     688.7940     476.0453   1414.62891     688.7940     476.0453
   1414.61365     687.4695     473.8203   1414.61365     687.4695     473.8203
   1414.59839     684.3914     472.2250   1414.59839     684.3914     472.2250
   1414.58313     681.0922     471.8907   1414.58313     681.0922     471.8907
   1414.56787     680.3647     470.3589   1414.56787     680.3647     470.3589
   1414.55261     678.9067     469.2985   1414.55261     678.9067     469.2985
   1414.53735     676.6604     468.0594   1414.53735     676.6604     468.0594
   1414.52209     674.4244     467.0586   1414.52209     674.4244     467.0586
   1414.50684     672.0582     466.0591   1414.50684     672.0582     466.0591
   1414.49158     670.7910     464.8428   1414.49158     670.7910     464.8428
   1414.47632     666.6771     462.7313   1414.47632     666.6771     462.7313
   1414.46106     664.3968     462.3328   1414.46106     664.3968     462.3328
   1414.44580     662.4321     460.5388   1414.44580     662.4321     460.5388
   1414.43054     660.3743     459.3405   1414.43054     660.3743     459.3405
   1414.41528     659.0338     458.7165   1414.41528     659.0338     458.7165
   1414.40002     656.8851     456.4931   1414.40002     656.8851     456.4931
   1414.38477     654.3846     455.8496   1414.38477     654.3846     455.8496
   1414.36951     651.8034     454.0616   1414.36951     651.8034     454.0616
   1414.35425     649.4725     453.2467   1414.35425     649.4725     453.2467
   1414.33899     646.8949     451.5544   1414.33899     646.8949     451.5544
   1414.32373     644.5581     450.0356   1414.32373     644.5581     450.0356
   1414.30847     641.2249     448.6364   1414.30847     641.2249     448.6364
   1414.29321     639.9873     448.1211   1414.29321     639.9873     448.1211
   1414.27795     636.4453     446.2959   1414.27795     636.4453     446.2959
   1414.26270     634.5641     444.4051   1414.26270     634.5641     444.4051
   1414.24744     632.6690     443.5511   1414.24744     632.6690     443.5511
   1414.23218     629.1591     441.4751   1414.23218     629.1591     441.4751
   1414.21692     627.2133     439.7771   1414.21692     627.2133     439.7771
   1414.20166     624.2582     438.4954   1414.20166     624.2582     438.4954
   1414.18640     621.1413     437.5439   1414.18640     621.1413     437.5439
   1414.17114     618.3001     435.7644   1414.17114     618.3001     435.7644
   1414.15588     617.5779     433.4092   1414.15588     617.5779     433.4092
   1414.14062     613.0655     432.4968   1414.14062     613.0655     432.4968
   1414.12537     611.7222     431.2231   1414.12537     611.7222     431.2231
   1414.11011     608.7870     430.1617   1414.11011     608.7870     430.1617
   1414.09485     605.5723     428.3880   1414.09485     605.5723     428.3880
   1414.07959     603.2023     426.1821   1414.07959     603.2023     426.1821
   1414.06433     600.1336     425.0607   1414.06433     600.1336     425.0607
   1414.04907     598.7443     423.0379   1414.04907     598.7443     423.0379
   1414.03381     597.0845     422.7978   1414.03381     597.0845     422.7978
   1414.01855     593.9802     420.8854   1414.01855     593.9802     420.8854
   1414.00330     620.5384     427.7067   1414.00330     620.5384     427.7067
   1413.98804     589.7707     417.6548   1413.98804     589.7707     417.6548
   1413.97278     585.2745     415.4018   1413.97278     585.2745     415.4018
   1413.95752     581.4753     413.8267   1413.95752     581.4753     413.8267
   1413.94226     580.0611     412.6458   1413.94226     580.0611     412.6458
   1413.92700     576.9913     410.9281   1413.92700     576.9913     410.9281
   1413.91174     573.4798     408.6221   1413.91174     573.4798     408.6221
   1413.89648     571.1540     406.8219   1413.89648     571.1540     406.8219
   1413.88123     569.6188     405.7458   1413.88123     569.6188     405.7458
   1413.86597     565.3895     404.4971   1413.86597     565.3895     404.4971
   1413.85071     562.0334     402.4612   1413.85071     562.0334     402.4612
   1413.83545     560.5706     401.4495   1413.83545     560.5706     401.4495
   1413.82019     557.7247     399.7123   1413.82019     557.7247     399.7123
   1413.80493     554.3503     397.8124   1413.80493     554.3503     397.8124
   1413.78967     552.0676     396.4349   1413.78967     552.0676     396.4349
   1413.77441     548.7832     393.9718   1413.77441     548.7832     393.9718
   1413.75916     546.0854     392.0916   1413.75916     546.0854     392.0916
   1413.74390     543.8001     390.8568   1413.74390     543.8001     390.8568
   1413.72864     540.3610     389.3154   1413.72864     540.3610     389.3154
   1413.71338     537.6830     387.3252   1413.71338     537.6830     387.3252
   1413.69812     534.8463     386.2670   1413.69812     534.8463     386.2670
   1413.68286     532.2593     384.0301   1413.68286     532.2593     384.0301
   1413.66760     528.6268     382.4739   1413.66760     528.6268     382.4739
   1413.65234     526.1733     380.9217   1413.65234     526.1733     380.9217
   1413.63708     523.7628     379.6303   1413.63708     523.7628     379.6303
   1413.62183     520.3541     377.3433   1413.62183     520.3541     377.3433
   1413.60657     518.7365     375.9317   1413.60657     518.7365     375.9317
   1413.59131     515.7874     374.3683   1413.59131     515.7874     374.3683
   1413.57605     512.5197     372.6079   1413.57605     512.5197     372.6079
   1413.56079     508.8156     371.0750   1413.56079     508.8156     371.0750
   1413.54553     507.4271     369.3914   1413.54553     507.4271     369.3914
   1413.53027     504.2567     367.8627   1413.53027     504.2567     367.8627
   1413.51501     501.0832     366.4041   1413.51501     501.0832     366.4041
   1413.49976     498.6870     364.9537   1413.49976     498.6870     364.9537
   1413.48450     495.8156     362.8165   1413.48450     495.8156     362.8165
   1413.46924     493.3420     361.3365   1413.46924     493.3420     361.3365
   1413.45398     490.9469     360.3774   1413.45398     490.9469     360.3774
   1413.43872     488.0357     358.6786   1413.43872     488.0357     358.6786
   1413.42346     484.5589     356.7127   1413.42346     484.5589     356.7127
   1413.40820     481.8194     355.2182   1413.40820     481.8194     355.2182
   1413.39294     479.2397     354.5460   1413.39294     479.2397     354.5460
   1413.37769     477.0849     351.9279   1413.37769     477.0849     351.9279
   1413.36243     474.2538     350.9397   1413.36243     474.2538     350.9397
   1413.34717     472.1983     349.3865   1413.34717     472.1983     349.3865
   1413.33191     469.1644     348.3651   1413.33191     469.1644     348.3651
   1413.31665     466.5954     346.8969   1413.31665     466.5954     346.8969
   1413.30139     464.4244     344.8409   1413.30139     464.4244     344.8409
   1413.28613     461.4276     343.5945   1413.28613     461.4276     343.5945
   1413.27087     458.3386     342.3307   1413.27087     458.3386     342.3307
   1413.25562     456.1801     341.0168   1413.25562     456.1801     341.0168
   1413.24036     454.0814     339.3777   1413.24036     454.0814     339.3777
   1413.22510     451.1845     337.8517   1413.22510     451.1845     337.8517
   1413.20984     448.7095     336.4697   1413.20984     448.7095     336.4697
   1413.19458     447.1358     335.5675   1413.19458     447.1358     335.5675
   1413.17932     444.1550     334.4023   1413.17932     444.1550     334.4023
   1413.16406     441.7429     333.1101   1413.16406     441.7429     333.1101
   1413.14880     439.7944     332.0610   1413.14880     439.7944     332.0610
   1413.13354     437.7424     330.6605   1413.13354     437.7424     330.6605
   1413.11829     435.6053     329.4887   1413.11829     435.6053     329.4887
   1413.10303     433.2694     328.0835   1413.10303     433.2694     328.0835
   1413.08777     431.1644     327.5183   1413.08777     431.1644     327.5183
   1413.07251     428.4311     326.3557   1413.07251     428.4311     326.3557
   1413.05725     426.8039     325.6147   1413.05725     426.8039     325.6147
   1413.04199     424.0834     324.1121   1413.04199     424.0834     324.1121
   1413.02673     422.4603     323.5494   1413.02673     422.4603     323.5494
   1413.01147     419.5916     322.2722   1413.01147     419.5916     322.2722
   1412.99622     418.4466     321.5954   1412.99622     418.4466     321.5954
   1412.98096     416.6711     320.4284   1412.98096     416.6711     320.4284
   1412.96570     414.9953     319.7223   1412.96570     414.9953     319.7223
   1412.95044     412.2864     319.1168   1412.95044     412.2864     319.1168
   1412.93518     410.7983     318.7053   1412.93518     410.7983     318.7053
   1412.91992     408.8945     317.3756   1412.91992     408.8945     317.3756
   1412.90466     407.0573     316.7175   1412.90466     407.0573     316.7175
   1412.88940     405.3099     315.8891   1412.88940     405.3099     315.8891
   1412.87415     403.4001     314.7830   1412.87415     403.4001     314.7830
   1412.85889     401.8514     315.0633   1412.85889     401.8514     315.0633
   1412.84363     400.2776     313.7440   1412.84363     400.2776     313.7440
   1412.82837     399.2679     313.4066   1412.82837     399.2679     313.4066
   1412.81311     396.7024     312.9618   1412.81311     396.7024     312.9618
   1412.79785     395.4062     312.7445   1412.79785     395.4062     312.7445
   1412.78259     394.1390     312.2884   1412.78259     394.1390     312.2884
   1412.76733     392.6657     311.9131   1412.76733     392.6657     311.9131
   1412.75208     391.4882     311.5395   1412.75208     391.4882     311.5395
   1412.73682     389.9508     311.1396   1412.73682     389.9508     311.1396
   1412.72156     389.1124     310.7418   1412.72156     389.1124     310.7418
   1412.70630     388.1452     310.9245   1412.70630     388.1452     310.9245
   1412.69104     386.4292     310.4457   1412.69104     386.4292     310.4457
   1412.67578     385.1776     310.5029   1412.67578     385.1776     310.5029
   1412.66052     384.2846     310.2085   1412.66052     384.2846     310.2085
   1412.64526     383.3692     310.4554   1412.64526     383.3692     310.4554
   1412.63000     382.7629     309.7384   1412.63000     382.7629     309.7384
   1412.61475     381.1264     310.4775   1412.61475     381.1264     310.4775
   1412.59949     381.2794     310.9326   1412.59949     381.2794     310.9326
   1412.58423     379.8138     309.9691   1412.58423     379.8138     309.9691
   1412.56897     379.2846     311.1805   1412.56897     379.2846     311.1805
   1412.55371     378.1861     310.9927   1412.55371     378.1861     310.9927
   1412.53845     378.1509     311.2905   1412.53845     378.1509     311.2905
   1412.52319     377.3537     311.5190   1412.52319     377.3537     311.5190
   1412.50793     376.7393     311.6184   1412.50793     376.7393     311.6184
   1412.49268     375.6383     312.4656   1412.49268     375.6383     312.4656
   1412.47742     375.5880     312.5204   1412.47742     375.5880     312.5204
   1412.46216     375.4975     313.9762   1412.46216     375.4975     313.9762
   1412.44690     375.4680     314.1041   1412.44690     375.4680     314.1041
   1412.43164     374.7299     314.7391   1412.43164     374.7299     314.7391
   1412.41638     375.0706     315.1571   1412.41638     375.0706     315.1571
   1412.40112     375.0009     315.6227   1412.40112     375.0009     315.6227
   1412.38586     374.6839     316.1545   1412.38586     374.6839     316.1545
   1412.37061     374.3097     317.2482   1412.37061     374.3097     317.2482
   1412.35535     374.7689     317.9810   1412.35535     374.7689     317.9810
   1412.34009     374.1580     318.4036   1412.34009     374.1580     318.4036
   1412.32483     374.9263     319.4741   1412.32483     374.9263     319.4741
   1412.30957     374.5238     320.5397   1412.30957     374.5238     320.5397
   1412.29431     374.8687     321.2961   1412.29431     374.8687     321.2961
   1412.27905     375.5029     322.1717   1412.27905     375.5029     322.1717
   1412.26379     375.6356     323.7723   1412.26379     375.6356     323.7723
   1412.24854     376.5356     325.0313   1412.24854     376.5356     325.0313
   1412.23328     376.2843     325.7240   1412.23328     376.2843     325.7240
   1412.21802     376.5006     326.7036   1412.21802     376.5006     326.7036
   1412.20276     377.1845     328.4273   1412.20276     377.1845     328.4273