#     FILENAME=!Skynet_57528_lach-hhg-160_20525_20984.cyb.fits
#     BASENAME=Skynet_57528_lach-hhg-160_20525_20984
#     SRC_NAME=lach-hhg-160
#     OBSERVER=hhgmadison16_9500
#     DATE_OBS=2016-05-20T17:58:00.500
#        OBSID=20525
#      SCANNUM=20984
#          MJD=57528.7497
#          UTC=64769
#     SCANTYPE=track
#     DATAMODE=HIRES
#     TUNEFREQ=1420.0000
# Actual_FREQ1=1420.0000
# Actual_FREQ2=1420.0000
#    LO1Tuning=6870.000
#     RFFILTER=1355_1435
#        OBSBW=-15.6250
#        NCHAN=1024 
#        FOCUS=37.0709
#           RA=04:46:55.52
#          DEC=45:14:45.76
#      RA(hrs)=4.782100
#     DEC(deg)=45.246000
#    AZIM(deg)=19.591
#    ELEV(deg)=82.613
#     IFattens=10.00, 9.00
#      WARNING=None
#    TCAL_XL1=7.9635
#    TCAL_YR1=9.1340
#    TCAL_XL2=7.9635
#    TCAL_YR2=9.1340
#     TRX_XL1=11.7060
#     TRX_YR1=11.7060
#     TRX_XL2=11.7060
#     TRX_YR2=11.7060
#        TAVE=1.0000
#Freq1(MHz)          XL1          YR1  Freq2(MHz)          XL2          YR2 

   1427.81250     377.2207     341.6284   1427.81250     377.2207     341.6284
   1427.79724     378.1984     343.4440   1427.79724     378.1984     343.4440
   1427.78198     378.2180     345.4677   1427.78198     378.2180     345.4677
   1427.76672     378.9035     346.3838   1427.76672     378.9035     346.3838
   1427.75146     379.7762     348.4499   1427.75146     379.7762     348.4499
   1427.73621     380.2991     349.7867   1427.73621     380.2991     349.7867
   1427.72095     381.1329     352.1721   1427.72095     381.1329     352.1721
   1427.70569     382.2316     353.7297   1427.70569     382.2316     353.7297
   1427.69043     383.5441     356.0767   1427.69043     383.5441     356.0767
   1427.67517     384.3813     357.5925   1427.67517     384.3813     357.5925
   1427.65991     385.5804     360.3281   1427.65991     385.5804     360.3281
   1427.64465     387.1803     361.5818   1427.64465     387.1803     361.5818
   1427.62939     388.3499     363.9703   1427.62939     388.3499     363.9703
   1427.61414     389.3224     366.2114   1427.61414     389.3224     366.2114
   1427.59888     389.8151     368.4960   1427.59888     389.8151     368.4960
   1427.58362     392.1223     370.5802   1427.58362     392.1223     370.5802
   1427.56836     393.5292     373.1316   1427.56836     393.5292     373.1316
   1427.55310     394.6878     375.2021   1427.55310     394.6878     375.2021
   1427.53784     396.1970     377.5704   1427.53784     396.1970     377.5704
   1427.52258     398.3150     380.1211   1427.52258     398.3150     380.1211
   1427.50732     399.7765     382.2943   1427.50732     399.7765     382.2943
   1427.49207     401.0313     385.0322   1427.49207     401.0313     385.0322
   1427.47681     403.0403     387.6034   1427.47681     403.0403     387.6034
   1427.46155     404.4063     389.2049   1427.46155     404.4063     389.2049
   1427.44629     405.2954     392.1360   1427.44629     405.2954     392.1360
   1427.43103     407.4852     393.8590   1427.43103     407.4852     393.8590
   1427.41577     409.5970     396.7567   1427.41577     409.5970     396.7567
   1427.40051     412.0729     399.8874   1427.40051     412.0729     399.8874
   1427.38525     414.0675     402.7230   1427.38525     414.0675     402.7230
   1427.37000     415.0667     404.5003   1427.37000     415.0667     404.5003
   1427.35474     417.0845     407.4877   1427.35474     417.0845     407.4877
   1427.33948     419.7451     409.6927   1427.33948     419.7451     409.6927
   1427.32422     422.0259     412.7862   1427.32422     422.0259     412.7862
   1427.30896     424.2807     415.5730   1427.30896     424.2807     415.5730
   1427.29370     426.3899     418.6950   1427.29370     426.3899     418.6950
   1427.27844     428.2615     421.0249   1427.27844     428.2615     421.0249
   1427.26318     430.8522     423.8852   1427.26318     430.8522     423.8852
   1427.24792     432.9837     426.1993   1427.24792     432.9837     426.1993
   1427.23267     435.9228     428.8881   1427.23267     435.9228     428.8881
   1427.21741     437.7469     432.3387   1427.21741     437.7469     432.3387
   1427.20215     439.8953     434.8862   1427.20215     439.8953     434.8862
   1427.18689     442.4464     438.3495   1427.18689     442.4464     438.3495
   1427.17163     445.0665     440.9159   1427.17163     445.0665     440.9159
   1427.15637     447.7321     443.7664   1427.15637     447.7321     443.7664
   1427.14111     449.2808     446.2946   1427.14111     449.2808     446.2946
   1427.12585     452.6837     448.9067   1427.12585     452.6837     448.9067
   1427.11060     455.7048     452.4564   1427.11060     455.7048     452.4564
   1427.09534     458.1040     453.8164   1427.09534     458.1040     453.8164
   1427.08008     460.5252     457.2647   1427.08008     460.5252     457.2647
   1427.06482     463.0703     460.6169   1427.06482     463.0703     460.6169
   1427.04956     465.5656     463.1424   1427.04956     465.5656     463.1424
   1427.03430     468.4626     466.0101   1427.03430     468.4626     466.0101
   1427.01904     471.3071     468.7559   1427.01904     471.3071     468.7559
   1427.00378     473.8459     471.6891   1427.00378     473.8459     471.6891
   1426.98853     477.0859     474.2455   1426.98853     477.0859     474.2455
   1426.97327     479.4103     476.8736   1426.97327     479.4103     476.8736
   1426.95801     483.1398     478.7011   1426.95801     483.1398     478.7011
   1426.94275     485.7892     482.9648   1426.94275     485.7892     482.9648
   1426.92749     488.0768     484.6741   1426.92749     488.0768     484.6741
   1426.91223     490.5388     487.5086   1426.91223     490.5388     487.5086
   1426.89697     493.9174     490.9355   1426.89697     493.9174     490.9355
   1426.88171     497.2444     493.4453   1426.88171     497.2444     493.4453
   1426.86646     500.0285     496.0139   1426.86646     500.0285     496.0139
   1426.85120     503.1843     499.2390   1426.85120     503.1843     499.2390
   1426.83594     505.3085     501.4044   1426.83594     505.3085     501.4044
   1426.82068     509.2643     503.6852   1426.82068     509.2643     503.6852
   1426.80542     511.9040     507.2817   1426.80542     511.9040     507.2817
   1426.79016     514.7255     509.4796   1426.79016     514.7255     509.4796
   1426.77490     518.2417     511.9082   1426.77490     518.2417     511.9082
   1426.75964     520.6350     514.5765   1426.75964     520.6350     514.5765
   1426.74438     524.6546     517.6276   1426.74438     524.6546     517.6276
   1426.72913     526.9371     519.2988   1426.72913     526.9371     519.2988
   1426.71387     530.1818     522.0173   1426.71387     530.1818     522.0173
   1426.69861     533.3202     524.3285   1426.69861     533.3202     524.3285
   1426.68335     536.5430     526.8407   1426.68335     536.5430     526.8407
   1426.66809     539.7263     529.2386   1426.66809     539.7263     529.2386
   1426.65283     541.8962     532.0479   1426.65283     541.8962     532.0479
   1426.63757     545.3785     534.4825   1426.63757     545.3785     534.4825
   1426.62231     551.5845     543.9690   1426.62231     551.5845     543.9690
   1426.60706     551.7843     539.2885   1426.60706     551.7843     539.2885
   1426.59180     554.4187     541.2742   1426.59180     554.4187     541.2742
   1426.57654     558.3409     543.1061   1426.57654     558.3409     543.1061
   1426.56128     560.9304     545.2141   1426.56128     560.9304     545.2141
   1426.54602     564.3621     547.8090   1426.54602     564.3621     547.8090
   1426.53076     566.6281     551.0737   1426.53076     566.6281     551.0737
   1426.51550     570.2048     553.0725   1426.51550     570.2048     553.0725
   1426.50024     573.4048     554.6558   1426.50024     573.4048     554.6558
   1426.48499     576.9775     557.7614   1426.48499     576.9775     557.7614
   1426.46973     580.0242     558.5410   1426.46973     580.0242     558.5410
   1426.45447     583.5482     560.8290   1426.45447     583.5482     560.8290
   1426.43921     585.6923     563.2070   1426.43921     585.6923     563.2070
   1426.42395     589.0386     565.0707   1426.42395     589.0386     565.0707
   1426.40869     591.3103     567.7711   1426.40869     591.3103     567.7711
   1426.39343     594.8310     569.0278   1426.39343     594.8310     569.0278
   1426.37817     597.2159     571.8635   1426.37817     597.2159     571.8635
   1426.36292     601.2771     572.3446   1426.36292     601.2771     572.3446
   1426.34766     604.1542     575.3409   1426.34766     604.1542     575.3409
   1426.33240     605.7970     577.1888   1426.33240     605.7970     577.1888
   1426.31714     610.0455     579.1450   1426.31714     610.0455     579.1450
   1426.30188     611.8497     580.2277   1426.30188     611.8497     580.2277
   1426.28662     615.2350     581.2862   1426.28662     615.2350     581.2862
   1426.27136     618.0010     585.0811   1426.27136     618.0010     585.0811
   1426.25610     621.9127     585.5890   1426.25610     621.9127     585.5890
   1426.24084     624.5985     587.3282   1426.24084     624.5985     587.3282
   1426.22559     627.7722     588.7830   1426.22559     627.7722     588.7830
   1426.21033     629.7198     591.2854   1426.21033     629.7198     591.2854
   1426.19507     632.7238     592.0463   1426.19507     632.7238     592.0463
   1426.17981     635.3986     593.8078   1426.17981     635.3986     593.8078
   1426.16455     637.3867     594.2007   1426.16455     637.3867     594.2007
   1426.14929     640.6489     596.4755   1426.14929     640.6489     596.4755
   1426.13403     644.3264     597.1440   1426.13403     644.3264     597.1440
   1426.11877     647.0230     598.8867   1426.11877     647.0230     598.8867
   1426.10352     648.7758     599.5055   1426.10352     648.7758     599.5055
   1426.08826     652.9147     601.0236   1426.08826     652.9147     601.0236
   1426.07300     654.9992     603.9841   1426.07300     654.9992     603.9841
   1426.05774     657.3792     604.3588   1426.05774     657.3792     604.3588
   1426.04248     659.7094     605.2939   1426.04248     659.7094     605.2939
   1426.02722     662.0627     607.2396   1426.02722     662.0627     607.2396
   1426.01196     664.2313     608.2874   1426.01196     664.2313     608.2874
   1425.99670     667.8404     608.3643   1425.99670     667.8404     608.3643
   1425.98145     670.4267     610.4518   1425.98145     670.4267     610.4518
   1425.96619     672.3548     611.8843   1425.96619     672.3548     611.8843
   1425.95093     674.7281     613.0580   1425.95093     674.7281     613.0580
   1425.93567     677.1523     614.0853   1425.93567     677.1523     614.0853
   1425.92041     679.0536     615.8896   1425.92041     679.0536     615.8896
   1425.90515     682.0322     617.0416   1425.90515     682.0322     617.0416
   1425.88989     683.5197     617.7762   1425.88989     683.5197     617.7762
   1425.87463     687.0132     618.9080   1425.87463     687.0132     618.9080
   1425.85938     690.0785     619.0575   1425.85938     690.0785     619.0575
   1425.84412     690.8383     621.4415   1425.84412     690.8383     621.4415
   1425.82886     693.0659     621.4175   1425.82886     693.0659     621.4175
   1425.81360     696.4213     621.3628   1425.81360     696.4213     621.3628
   1425.79834     697.6932     623.3459   1425.79834     697.6932     623.3459
   1425.78308     700.2789     623.1243   1425.78308     700.2789     623.1243
   1425.76782     702.8762     623.9402   1425.76782     702.8762     623.9402
   1425.75256     703.0474     625.0123   1425.75256     703.0474     625.0123
   1425.73730     704.9138     625.4885   1425.73730     704.9138     625.4885
   1425.72205     706.6350     626.5391   1425.72205     706.6350     626.5391
   1425.70679     709.4059     627.9189   1425.70679     709.4059     627.9189
   1425.69153     710.9714     627.2287   1425.69153     710.9714     627.2287
   1425.67627     713.9685     628.7654   1425.67627     713.9685     628.7654
   1425.66101     714.6334     628.8560   1425.66101     714.6334     628.8560
   1425.64575     717.2524     630.1949   1425.64575     717.2524     630.1949
   1425.63049     718.7888     629.8923   1425.63049     718.7888     629.8923
   1425.61523     721.0930     630.3275   1425.61523     721.0930     630.3275
   1425.59998     721.8854     631.1708   1425.59998     721.8854     631.1708
   1425.58472     723.8757     631.7380   1425.58472     723.8757     631.7380
   1425.56946     724.7188     632.4454   1425.56946     724.7188     632.4454
   1425.55420     727.9509     632.3740   1425.55420     727.9509     632.3740
   1425.53894     728.1772     634.1626   1425.53894     728.1772     634.1626
   1425.52368     730.4891     633.6776   1425.52368     730.4891     633.6776
   1425.50842     731.5139     634.4994   1425.50842     731.5139     634.4994
   1425.49316     733.0535     634.7122   1425.49316     733.0535     634.7122
   1425.47791     735.4894     634.7941   1425.47791     735.4894     634.7941
   1425.46265     737.9357     635.9436   1425.46265     737.9357     635.9436
   1425.44739     737.3915     635.8010   1425.44739     737.3915     635.8010
   1425.43213     740.5591     636.2903   1425.43213     740.5591     636.2903
   1425.41687     740.6899     635.7381   1425.41687     740.6899     635.7381
   1425.40161     741.6949     637.2561   1425.40161     741.6949     637.2561
   1425.38635     742.5028     637.4252   1425.38635     742.5028     637.4252
   1425.37109     745.7250     636.1990   1425.37109     745.7250     636.1990
   1425.35583     746.0058     638.3770   1425.35583     746.0058     638.3770
   1425.34058     747.5840     637.2598   1425.34058     747.5840     637.2598
   1425.32532     748.7560     637.7196   1425.32532     748.7560     637.7196
   1425.31006     749.4221     639.1272   1425.31006     749.4221     639.1272
   1425.29480     749.7106     639.3764   1425.29480     749.7106     639.3764
   1425.27954     750.9944     639.1682   1425.27954     750.9944     639.1682
   1425.26428     754.0682     639.0539   1425.26428     754.0682     639.0539
   1425.24902     754.9454     639.7834   1425.24902     754.9454     639.7834
   1425.23376     754.5647     638.5876   1425.23376     754.5647     638.5876
   1425.21851     754.6729     638.9424   1425.21851     754.6729     638.9424
   1425.20325     756.1769     639.6587   1425.20325     756.1769     639.6587
   1425.18799     757.4528     638.9835   1425.18799     757.4528     638.9835
   1425.17273     757.6780     639.1243   1425.17273     757.6780     639.1243
   1425.15747     759.8296     639.1894   1425.15747     759.8296     639.1894
   1425.14221     759.8197     638.9337   1425.14221     759.8197     638.9337
   1425.12695     759.3461     639.2455   1425.12695     759.3461     639.2455
   1425.11169     761.2802     639.3117   1425.11169     761.2802     639.3117
   1425.09644     761.2574     639.1364   1425.09644     761.2574     639.1364
   1425.08118     762.8945     638.4238   1425.08118     762.8945     638.4238
   1425.06592     762.5346     639.1979   1425.06592     762.5346     639.1979
   1425.05066     762.7480     638.4877   1425.05066     762.7480     638.4877
   1425.03540     763.6451     638.3851   1425.03540     763.6451     638.3851
   1425.02014     764.9303     639.1791   1425.02014     764.9303     639.1791
   1425.00488     765.4029     638.0786   1425.00488     765.4029     638.0786
   1424.98962     766.8830     638.5201   1424.98962     766.8830     638.5201
   1424.97437     766.1885     638.5085   1424.97437     766.1885     638.5085
   1424.95911     767.7480     637.9023   1424.95911     767.7480     637.9023
   1424.94385     767.1283     638.8190   1424.94385     767.1283     638.8190
   1424.92859     767.9188     637.7676   1424.92859     767.9188     637.7676
   1424.91333     767.8524     638.1259   1424.91333     767.8524     638.1259
   1424.89807     767.6953     637.9215   1424.89807     767.6953     637.9215
   1424.88281     768.0654     637.7018   1424.88281     768.0654     637.7018
   1424.86755     770.9594     638.0848   1424.86755     770.9594     638.0848
   1424.85229     768.3553     636.7716   1424.85229     768.3553     636.7716
   1424.83704     769.7556     636.0809   1424.83704     769.7556     636.0809
   1424.82178     769.1299     636.4759   1424.82178     769.1299     636.4759
   1424.80652     769.0449     636.2391   1424.80652     769.0449     636.2391
   1424.79126     770.4713     635.7740   1424.79126     770.4713     635.7740
   1424.77600     770.6832     634.5687   1424.77600     770.6832     634.5687
   1424.76074     771.4576     634.2301   1424.76074     771.4576     634.2301
   1424.74548     770.0746     635.6613   1424.74548     770.0746     635.6613
   1424.73022     771.6425     634.5071   1424.73022     771.6425     634.5071
   1424.71497     771.6803     635.5537   1424.71497     771.6803     635.5537
   1424.69971     771.1863     634.0436   1424.69971     771.1863     634.0436
   1424.68445     772.5389     633.6945   1424.68445     772.5389     633.6945
   1424.66919     770.0137     632.9381   1424.66919     770.0137     632.9381
   1424.65393     771.2311     634.0890   1424.65393     771.2311     634.0890
   1424.63867     771.8053     633.1097   1424.63867     771.8053     633.1097
   1424.62341     771.2524     631.8751   1424.62341     771.2524     631.8751
   1424.60815     771.7613     632.2274   1424.60815     771.7613     632.2274
   1424.59290     771.7852     631.5795   1424.59290     771.7852     631.5795
   1424.57764     771.6027     632.0393   1424.57764     771.6027     632.0393
   1424.56238     771.5095     630.5520   1424.56238     771.5095     630.5520
   1424.54712     770.2209     630.2875   1424.54712     770.2209     630.2875
   1424.53186     772.3030     630.3920   1424.53186     772.3030     630.3920
   1424.51660     770.3326     629.4732   1424.51660     770.3326     629.4732
   1424.50134     770.6505     629.9759   1424.50134     770.6505     629.9759
   1424.48608     770.8845     630.5334   1424.48608     770.8845     630.5334
   1424.47083     770.5597     628.6531   1424.47083     770.5597     628.6531
   1424.45557     771.8321     628.0279   1424.45557     771.8321     628.0279
   1424.44031     770.0552     627.8309   1424.44031     770.0552     627.8309
   1424.42505     769.9335     627.7474   1424.42505     769.9335     627.7474
   1424.40979     769.3253     627.5211   1424.40979     769.3253     627.5211
   1424.39453     769.9958     626.1610   1424.39453     769.9958     626.1610
   1424.37927     770.1674     626.1065   1424.37927     770.1674     626.1065
   1424.36401     768.7126     625.9161   1424.36401     768.7126     625.9161
   1424.34875     768.6354     624.7852   1424.34875     768.6354     624.7852
   1424.33350     767.6996     625.6434   1424.33350     767.6996     625.6434
   1424.31824     768.9601     623.2322   1424.31824     768.9601     623.2322
   1424.30298     768.8679     624.6882   1424.30298     768.8679     624.6882
   1424.28772     768.0564     624.1303   1424.28772     768.0564     624.1303
   1424.27246     767.2465     622.3764   1424.27246     767.2465     622.3764
   1424.25720     766.7327     622.2402   1424.25720     766.7327     622.2402
   1424.24194     767.9341     621.6448   1424.24194     767.9341     621.6448
   1424.22668     767.9795     621.4313   1424.22668     767.9795     621.4313
   1424.21143     767.1296     620.7296   1424.21143     767.1296     620.7296
   1424.19617     766.0471     621.1511   1424.19617     766.0471     621.1511
   1424.18091     765.9529     619.1020   1424.18091     765.9529     619.1020
   1424.16565     765.4055     619.4764   1424.16565     765.4055     619.4764
   1424.15039     765.5424     618.6514   1424.15039     765.5424     618.6514
   1424.13513     764.2092     618.0161   1424.13513     764.2092     618.0161
   1424.11987     764.1188     617.8162   1424.11987     764.1188     617.8162
   1424.10461     765.6295     617.7661   1424.10461     765.6295     617.7661
   1424.08936     763.0682     616.2593   1424.08936     763.0682     616.2593
   1424.07410     763.3898     615.9924   1424.07410     763.3898     615.9924
   1424.05884     763.3713     615.9361   1424.05884     763.3713     615.9361
   1424.04358     762.0483     615.0111   1424.04358     762.0483     615.0111
   1424.02832     761.9227     614.0035   1424.02832     761.9227     614.0035
   1424.01306     761.0872     613.8662   1424.01306     761.0872     613.8662
   1423.99780     761.9609     612.2841   1423.99780     761.9609     612.2841
   1423.98254     761.4502     611.9647   1423.98254     761.4502     611.9647
   1423.96729     760.4386     612.7893   1423.96729     760.4386     612.7893
   1423.95203     759.6104     611.1215   1423.95203     759.6104     611.1215
   1423.93677     759.6866     611.8215   1423.93677     759.6866     611.8215
   1423.92151     759.5251     609.8923   1423.92151     759.5251     609.8923
   1423.90625     758.8817     609.1410   1423.90625     758.8817     609.1410
   1423.89099     760.7173     609.7423   1423.89099     760.7173     609.7423
   1423.87573     758.2958     608.6384   1423.87573     758.2958     608.6384
   1423.86047     757.7313     608.6764   1423.86047     757.7313     608.6764
   1423.84521     757.2646     607.9163   1423.84521     757.2646     607.9163
   1423.82996     757.1088     606.6436   1423.82996     757.1088     606.6436
   1423.81470     755.0659     605.7235   1423.81470     755.0659     605.7235
   1423.79944     754.6225     605.4733   1423.79944     754.6225     605.4733
   1423.78418     755.4792     604.2277   1423.78418     755.4792     604.2277
   1423.76892     755.5112     605.3088   1423.76892     755.5112     605.3088
   1423.75366     754.2277     603.4406   1423.75366     754.2277     603.4406
   1423.73840     753.8049     603.0220   1423.73840     753.8049     603.0220
   1423.72314     753.5417     602.3983   1423.72314     753.5417     602.3983
   1423.70789     753.0413     601.8461   1423.70789     753.0413     601.8461
   1423.69263     752.7155     601.1204   1423.69263     752.7155     601.1204
   1423.67737     752.4727     600.3186   1423.67737     752.4727     600.3186
   1423.66211     752.5424     600.3427   1423.66211     752.5424     600.3427
   1423.64685     751.2356     599.6453   1423.64685     751.2356     599.6453
   1423.63159     750.2194     599.0544   1423.63159     750.2194     599.0544
   1423.61633     750.5746     597.0063   1423.61633     750.5746     597.0063
   1423.60107     749.3307     598.2848   1423.60107     749.3307     598.2848
   1423.58582     749.3718     596.9911   1423.58582     749.3718     596.9911
   1423.57056     748.7054     596.1755   1423.57056     748.7054     596.1755
   1423.55530     748.4856     594.9243   1423.55530     748.4856     594.9243
   1423.54004     749.1702     594.7491   1423.54004     749.1702     594.7491
   1423.52478     748.2930     594.0627   1423.52478     748.2930     594.0627
   1423.50952     747.2516     593.8757   1423.50952     747.2516     593.8757
   1423.49426     746.9780     592.6943   1423.49426     746.9780     592.6943
   1423.47900     747.8805     591.8482   1423.47900     747.8805     591.8482
   1423.46375     746.2740     591.8237   1423.46375     746.2740     591.8237
   1423.44849     745.8927     590.0866   1423.44849     745.8927     590.0866
   1423.43323     745.6982     589.7359   1423.43323     745.6982     589.7359
   1423.41797     744.5769     589.8878   1423.41797     744.5769     589.8878
   1423.40271     744.9330     588.3405   1423.40271     744.9330     588.3405
   1423.38745     742.9317     587.8991   1423.38745     742.9317     587.8991
   1423.37219     744.1779     587.1519   1423.37219     744.1779     587.1519
   1423.35693     742.9326     586.7689   1423.35693     742.9326     586.7689
   1423.34167     742.6826     585.0980   1423.34167     742.6826     585.0980
   1423.32642     742.3140     584.9216   1423.32642     742.3140     584.9216
   1423.31116     742.4422     583.8197   1423.31116     742.4422     583.8197
   1423.29590     742.1840     582.7662   1423.29590     742.1840     582.7662
   1423.28064     741.3993     582.5411   1423.28064     741.3993     582.5411
   1423.26538     740.6069     581.8994   1423.26538     740.6069     581.8994
   1423.25012     739.4418     581.1452   1423.25012     739.4418     581.1452
   1423.23486     739.6552     579.9373   1423.23486     739.6552     579.9373
   1423.21960     740.1797     579.7645   1423.21960     740.1797     579.7645
   1423.20435     739.1231     579.4023   1423.20435     739.1231     579.4023
   1423.18909     738.8445     578.8423   1423.18909     738.8445     578.8423
   1423.17383     738.1674     577.8275   1423.17383     738.1674     577.8275
   1423.15857     739.3917     577.2402   1423.15857     739.3917     577.2402
   1423.14331     737.8646     576.2043   1423.14331     737.8646     576.2043
   1423.12805     737.8953     575.3809   1423.12805     737.8953     575.3809
   1423.11279     737.5048     574.8396   1423.11279     737.5048     574.8396
   1423.09753     738.3031     573.6752   1423.09753     738.3031     573.6752
   1423.08228     735.4988     573.3914   1423.08228     735.4988     573.3914
   1423.06702     736.9908     572.6999   1423.06702     736.9908     572.6999
   1423.05176     735.7730     571.5414   1423.05176     735.7730     571.5414
   1423.03650     737.0775     570.2118   1423.03650     737.0775     570.2118
   1423.02124     735.6676     570.0215   1423.02124     735.6676     570.0215
   1423.00598     735.9528     568.8231   1423.00598     735.9528     568.8231
   1422.99072     735.0224     568.7174   1422.99072     735.0224     568.7174
   1422.97546     733.8790     568.0917   1422.97546     733.8790     568.0917
   1422.96021     734.3588     567.5377   1422.96021     734.3588     567.5377
   1422.94495     734.8015     567.7029   1422.94495     734.8015     567.7029
   1422.92969     734.7045     565.9742   1422.92969     734.7045     565.9742
   1422.91443     732.6608     564.9482   1422.91443     732.6608     564.9482
   1422.89917     733.2403     564.5488   1422.89917     733.2403     564.5488
   1422.88391     732.1896     563.1882   1422.88391     732.1896     563.1882
   1422.86865     731.9408     562.9489   1422.86865     731.9408     562.9489
   1422.85339     731.7533     561.9636   1422.85339     731.7533     561.9636
   1422.83813     731.5754     561.1113   1422.83813     731.5754     561.1113
   1422.82288     731.2166     560.0745   1422.82288     731.2166     560.0745
   1422.80762     731.1916     559.7853   1422.80762     731.1916     559.7853
   1422.79236     731.4948     559.1245   1422.79236     731.4948     559.1245
   1422.77710     731.4126     558.2630   1422.77710     731.4126     558.2630
   1422.76184     731.0752     558.2221   1422.76184     731.0752     558.2221
   1422.74658     731.2216     556.9496   1422.74658     731.2216     556.9496
   1422.73132     730.2684     555.8226   1422.73132     730.2684     555.8226
   1422.71606     729.5101     555.3076   1422.71606     729.5101     555.3076
   1422.70081     728.6514     554.4684   1422.70081     728.6514     554.4684
   1422.68555     729.4470     554.4542   1422.68555     729.4470     554.4542
   1422.67029     730.0173     554.1854   1422.67029     730.0173     554.1854
   1422.65503     729.7042     551.9902   1422.65503     729.7042     551.9902
   1422.63977     728.5094     551.0892   1422.63977     728.5094     551.0892
   1422.62451     727.9054     550.9783   1422.62451     727.9054     550.9783
   1422.60925     729.6541     549.6648   1422.60925     729.6541     549.6648
   1422.59399     727.9152     549.0156   1422.59399     727.9152     549.0156
   1422.57874     727.6681     548.6157   1422.57874     727.6681     548.6157
   1422.56348     727.3393     547.5291   1422.56348     727.3393     547.5291
   1422.54822     728.0415     545.4991   1422.54822     728.0415     545.4991
   1422.53296     726.4769     545.8045   1422.53296     726.4769     545.8045
   1422.51770     727.5349     544.5605   1422.51770     727.5349     544.5605
   1422.50244     727.0626     544.6498   1422.50244     727.0626     544.6498
   1422.48718     727.6288     543.2282   1422.48718     727.6288     543.2282
   1422.47192     726.2865     542.4501   1422.47192     726.2865     542.4501
   1422.45667     727.1434     541.5210   1422.45667     727.1434     541.5210
   1422.44141     726.3845     541.3513   1422.44141     726.3845     541.3513
   1422.42615     726.5238     539.9368   1422.42615     726.5238     539.9368
   1422.41089     727.0952     539.9268   1422.41089     727.0952     539.9268
   1422.39563     725.3708     538.3282   1422.39563     725.3708     538.3282
   1422.38037     726.5433     537.8091   1422.38037     726.5433     537.8091
   1422.36511     725.4401     536.9581   1422.36511     725.4401     536.9581
   1422.34985     725.6813     535.5990   1422.34985     725.6813     535.5990
   1422.33459     725.6912     535.3425   1422.33459     725.6912     535.3425
   1422.31934     725.6571     534.2277   1422.31934     725.6571     534.2277
   1422.30408     726.3729     534.1104   1422.30408     726.3729     534.1104
   1422.28882     724.7471     533.1321   1422.28882     724.7471     533.1321
   1422.27356     724.8064     532.3802   1422.27356     724.8064     532.3802
   1422.25830     724.5381     530.7587   1422.25830     724.5381     530.7587
   1422.24304     725.9338     530.6461   1422.24304     725.9338     530.6461
   1422.22778     724.9897     529.9221   1422.22778     724.9897     529.9221
   1422.21252     724.1095     528.6548   1422.21252     724.1095     528.6548
   1422.19727     724.3008     528.1202   1422.19727     724.3008     528.1202
   1422.18201     725.3172     526.9083   1422.18201     725.3172     526.9083
   1422.16675     725.4225     525.8075   1422.16675     725.4225     525.8075
   1422.15149     724.6081     525.3972   1422.15149     724.6081     525.3972
   1422.13623     723.9442     524.1141   1422.13623     723.9442     524.1141
   1422.12097     723.5988     523.3199   1422.12097     723.5988     523.3199
   1422.10571     724.9078     522.5045   1422.10571     724.9078     522.5045
   1422.09045     724.3231     521.9574   1422.09045     724.3231     521.9574
   1422.07520     724.4035     521.6289   1422.07520     724.4035     521.6289
   1422.05994     723.8906     520.7906   1422.05994     723.8906     520.7906
   1422.04468     723.8409     518.6738   1422.04468     723.8409     518.6738
   1422.02942     723.6992     518.5859   1422.02942     723.6992     518.5859
   1422.01416     724.6643     518.4802   1422.01416     724.6643     518.4802
   1421.99890     722.8604     518.1246   1421.99890     722.8604     518.1246
   1421.98364     723.1398     516.0174   1421.98364     723.1398     516.0174
   1421.96838     723.7560     515.5979   1421.96838     723.7560     515.5979
   1421.95312     723.1787     513.8725   1421.95312     723.1787     513.8725
   1421.93787     722.2457     513.5001   1421.93787     722.2457     513.5001
   1421.92261     723.8207     512.9832   1421.92261     723.8207     512.9832
   1421.90735     722.1765     511.3783   1421.90735     722.1765     511.3783
   1421.89209     723.1887     511.2621   1421.89209     723.1887     511.2621
   1421.87683     722.2770     510.1052   1421.87683     722.2770     510.1052
   1421.86157     722.5828     509.3530   1421.86157     722.5828     509.3530
   1421.84631     722.1215     508.6471   1421.84631     722.1215     508.6471
   1421.83105     723.4194     507.4604   1421.83105     723.4194     507.4604
   1421.81580     722.6678     507.0214   1421.81580     722.6678     507.0214
   1421.80054     723.8564     505.9230   1421.80054     723.8564     505.9230
   1421.78528     722.6245     506.0359   1421.78528     722.6245     506.0359
   1421.77002     721.5841     504.2177   1421.77002     721.5841     504.2177
   1421.75476     722.3159     502.9581   1421.75476     722.3159     502.9581
   1421.73950     722.0297     502.0617   1421.73950     722.0297     502.0617
   1421.72424     720.8862     501.6194   1421.72424     720.8862     501.6194
   1421.70898     721.9830     501.0700   1421.70898     721.9830     501.0700
   1421.69373     721.2487     499.8202   1421.69373     721.2487     499.8202
   1421.67847     720.3693     499.6174   1421.67847     720.3693     499.6174
   1421.66321     722.0112     498.1895   1421.66321     722.0112     498.1895
   1421.64795     721.6780     496.4908   1421.64795     721.6780     496.4908
   1421.63269     721.1272     496.7416   1421.63269     721.1272     496.7416
   1421.61743     721.0911     495.5487   1421.61743     721.0911     495.5487
   1421.60217     721.7484     494.7591   1421.60217     721.7484     494.7591
   1421.58691     720.0795     493.0782   1421.58691     720.0795     493.0782
   1421.57166     719.7360     492.1911   1421.57166     719.7360     492.1911
   1421.55640     720.5307     492.1761   1421.55640     720.5307     492.1761
   1421.54114     719.7819     491.4550   1421.54114     719.7819     491.4550
   1421.52588     720.7563     490.7727   1421.52588     720.7563     490.7727
   1421.51062     720.9362     489.2557   1421.51062     720.9362     489.2557
   1421.49536     721.0735     489.0300   1421.49536     721.0735     489.0300
   1421.48010     720.3974     487.9214   1421.48010     720.3974     487.9214
   1421.46484     719.5684     486.7938   1421.46484     719.5684     486.7938
   1421.44958     720.2994     486.2221   1421.44958     720.2994     486.2221
   1421.43433     720.1077     485.5305   1421.43433     720.1077     485.5305
   1421.41907     720.2999     484.2194   1421.41907     720.2999     484.2194
   1421.40381     720.0417     482.8944   1421.40381     720.0417     482.8944
   1421.38855     719.7283     482.5806   1421.38855     719.7283     482.5806
   1421.37329     720.0982     482.0452   1421.37329     720.0982     482.0452
   1421.35803     719.7332     480.9355   1421.35803     719.7332     480.9355
   1421.34277     718.9814     479.4758   1421.34277     718.9814     479.4758
   1421.32751     719.4613     479.3692   1421.32751     719.4613     479.3692
   1421.31226     719.5469     478.2043   1421.31226     719.5469     478.2043
   1421.29700     719.2922     477.0277   1421.29700     719.2922     477.0277
   1421.28174     718.1114     475.9158   1421.28174     718.1114     475.9158
   1421.26648     718.7682     475.2692   1421.26648     718.7682     475.2692
   1421.25122     719.5798     474.6956   1421.25122     719.5798     474.6956
   1421.23596     717.8572     473.8221   1421.23596     717.8572     473.8221
   1421.22070     716.8575     473.2873   1421.22070     716.8575     473.2873
   1421.20544     717.7303     472.1357   1421.20544     717.7303     472.1357
   1421.19019     717.7343     470.9445   1421.19019     717.7343     470.9445
   1421.17493     716.8097     470.2416   1421.17493     716.8097     470.2416
   1421.15967     717.6996     469.1481   1421.15967     717.6996     469.1481
   1421.14441     717.4861     468.5060   1421.14441     717.4861     468.5060
   1421.12915     717.3649     467.9922   1421.12915     717.3649     467.9922
   1421.11389     716.7856     466.3359   1421.11389     716.7856     466.3359
   1421.09863     716.3641     466.0695   1421.09863     716.3641     466.0695
   1421.08337     716.5314     464.8875   1421.08337     716.5314     464.8875
   1421.06812     716.1915     464.4630   1421.06812     716.1915     464.4630
   1421.05286     716.3188     463.0717   1421.05286     716.3188     463.0717
   1421.03760     715.8140     462.5840   1421.03760     715.8140     462.5840
   1421.02234     715.9610     462.2343   1421.02234     715.9610     462.2343
   1421.00708     715.8990     461.4019   1421.00708     715.8990     461.4019
   1420.99182     717.5665     460.5071   1420.99182     717.5665     460.5071
   1420.97656     716.7169     459.4223   1420.97656     716.7169     459.4223
   1420.96130     716.0912     458.9462   1420.96130     716.0912     458.9462
   1420.94604     716.6054     458.4044   1420.94604     716.6054     458.4044
   1420.93079     716.2601     458.2141   1420.93079     716.2601     458.2141
   1420.91553     717.9084     457.3221   1420.91553     717.9084     457.3221
   1420.90027     717.0453     456.9310   1420.90027     717.0453     456.9310
   1420.88501     718.2344     456.5049   1420.88501     718.2344     456.5049
   1420.86975     720.8476     456.9190   1420.86975     720.8476     456.9190
   1420.85449     721.5034     456.7693   1420.85449     721.5034     456.7693
   1420.83923     722.6697     457.8795   1420.83923     722.6697     457.8795
   1420.82397     724.8074     457.5363   1420.82397     724.8074     457.5363
   1420.80872     728.5677     458.1557   1420.80872     728.5677     458.1557
   1420.79346     728.0436     457.9505   1420.79346     728.0436     457.9505
   1420.77820     727.4517     457.5809   1420.77820     727.4517     457.5809
   1420.76294     730.4739     456.8336   1420.76294     730.4739     456.8336
   1420.74768     730.6883     456.9069   1420.74768     730.6883     456.9069
   1420.73242     732.6818     458.8853   1420.73242     732.6818     458.8853
   1420.71716     736.9088     459.9007   1420.71716     736.9088     459.9007
   1420.70190     745.4192     463.7456   1420.70190     745.4192     463.7456
   1420.68665     751.2837     467.2399   1420.68665     751.2837     467.2399
   1420.67139     763.9960     473.1889   1420.67139     763.9960     473.1889
   1420.65613     787.9023     487.0614   1420.65613     787.9023     487.0614
   1420.64087     829.3882     509.9078   1420.64087     829.3882     509.9078
   1420.62561     869.7874     533.8264   1420.62561     869.7874     533.8264
   1420.61035     909.7076     556.7731   1420.61035     909.7076     556.7731
   1420.59509     968.6051     592.1603   1420.59509     968.6051     592.1603
   1420.57983    1068.6975     649.0740   1420.57983    1068.6975     649.0740
   1420.56458    1272.1682     767.6774   1420.56458    1272.1682     767.6774
   1420.54932    1487.2131     892.4972   1420.54932    1487.2131     892.4972
   1420.53406    1615.5347     963.4632   1420.53406    1615.5347     963.4632
   1420.51880    1851.1818    1102.5881   1420.51880    1851.1818    1102.5881
   1420.50354    2148.8013    1274.3190   1420.50354    2148.8013    1274.3190
   1420.48828    2236.8225    1323.1315   1420.48828    2236.8225    1323.1315
   1420.47302    2216.8411    1309.9830   1420.47302    2216.8411    1309.9830
   1420.45776    2076.4583    1221.2231   1420.45776    2076.4583    1221.2231
   1420.44250    1908.9691    1123.6421   1420.44250    1908.9691    1123.6421
   1420.42725    1927.5494    1131.0359   1420.42725    1927.5494    1131.0359
   1420.41199    1797.9915    1059.5428   1420.41199    1797.9915    1059.5428
   1420.39673    1575.4083     925.5743   1420.39673    1575.4083     925.5743
   1420.38147    1697.4941     995.7385   1420.38147    1697.4941     995.7385
   1420.36621    1768.1495    1031.8707   1420.36621    1768.1495    1031.8707
   1420.35095    1716.3638    1002.1133   1420.35095    1716.3638    1002.1133
   1420.33569    1577.4326     920.1226   1420.33569    1577.4326     920.1226
   1420.32043    1385.0662     811.9229   1420.32043    1385.0662     811.9229
   1420.30518     990.6203     584.3259   1420.30518     990.6203     584.3259
   1420.28992     839.8409     497.1338   1420.28992     839.8409     497.1338
   1420.27466     778.3254     462.2484   1420.27466     778.3254     462.2484
   1420.25940     748.0462     445.0546   1420.25940     748.0462     445.0546
   1420.24414     733.2352     434.9309   1420.24414     733.2352     434.9309
   1420.22888     725.0735     429.7067   1420.22888     725.0735     429.7067
   1420.21362     718.0707     425.8884   1420.21362     718.0707     425.8884
   1420.19836     714.7038     422.6364   1420.19836     714.7038     422.6364
   1420.18311     711.6763     420.8197   1420.18311     711.6763     420.8197
   1420.16785     710.3915     419.3351   1420.16785     710.3915     419.3351
   1420.15259     709.0399     417.4050   1420.15259     709.0399     417.4050
   1420.13733     707.9254     416.6956   1420.13733     707.9254     416.6956
   1420.12207     706.1291     415.3026   1420.12207     706.1291     415.3026
   1420.10681     705.6698     413.7065   1420.10681     705.6698     413.7065
   1420.09155     704.3893     412.7099   1420.09155     704.3893     412.7099
   1420.07629     704.2416     411.5122   1420.07629     704.2416     411.5122
   1420.06104     703.7653     410.1655   1420.06104     703.7653     410.1655
   1420.04578     703.0681     410.0880   1420.04578     703.0681     410.0880
   1420.03052     703.0707     410.3830   1420.03052     703.0707     410.3830
   1420.01526     702.5062     409.5100   1420.01526     702.5062     409.5100
   1420.00000     703.6494     410.0401   1420.00000     703.6494     410.0401
   1419.98474     704.7930     410.5702   1419.98474     704.7930     410.5702
   1419.96948     705.5259     408.5070   1419.96948     705.5259     408.5070
   1419.95422     701.3481     406.5323   1419.95422     701.3481     406.5323
   1419.93896     702.2090     405.3594   1419.93896     702.2090     405.3594
   1419.92371     701.5443     404.9388   1419.92371     701.5443     404.9388
   1419.90845     701.3782     404.2859   1419.90845     701.3782     404.2859
   1419.89319     701.8222     403.8205   1419.89319     701.8222     403.8205
   1419.87793     700.6272     402.4124   1419.87793     700.6272     402.4124
   1419.86267     701.1653     402.3403   1419.86267     701.1653     402.3403
   1419.84741     700.8381     401.4300   1419.84741     700.8381     401.4300
   1419.83215     701.5229     401.3671   1419.83215     701.5229     401.3671
   1419.81689     701.3513     400.6469   1419.81689     701.3513     400.6469
   1419.80164     701.0164     399.9007   1419.80164     701.0164     399.9007
   1419.78638     701.4279     399.4700   1419.78638     701.4279     399.4700
   1419.77112     699.6868     398.8109   1419.77112     699.6868     398.8109
   1419.75586     700.7623     398.9413   1419.75586     700.7623     398.9413
   1419.74060     699.9012     398.0090   1419.74060     699.9012     398.0090
   1419.72534     700.8585     397.8500   1419.72534     700.8585     397.8500
   1419.71008     701.6049     396.8883   1419.71008     701.6049     396.8883
   1419.69482     701.4107     397.1151   1419.69482     701.4107     397.1151
   1419.67957     701.2755     395.9590   1419.67957     701.2755     395.9590
   1419.66431     700.8647     395.6042   1419.66431     700.8647     395.6042
   1419.64905     701.6168     395.4021   1419.64905     701.6168     395.4021
   1419.63379     701.8981     395.4305   1419.63379     701.8981     395.4305
   1419.61853     701.9804     395.1431   1419.61853     701.9804     395.1431
   1419.60327     701.9333     394.2490   1419.60327     701.9333     394.2490
   1419.58801     700.7824     393.8108   1419.58801     700.7824     393.8108
   1419.57275     701.7921     394.1214   1419.57275     701.7921     394.1214
   1419.55750     701.9919     393.1663   1419.55750     701.9919     393.1663
   1419.54224     701.7379     392.6443   1419.54224     701.7379     392.6443
   1419.52698     701.3710     392.3608   1419.52698     701.3710     392.3608
   1419.51172     702.5146     392.4479   1419.51172     702.5146     392.4479
   1419.49646     703.0627     391.5461   1419.49646     703.0627     391.5461
   1419.48120     702.2367     391.6992   1419.48120     702.2367     391.6992
   1419.46594     702.5318     390.9316   1419.46594     702.5318     390.9316
   1419.45068     703.5082     390.7212   1419.45068     703.5082     390.7212
   1419.43542     702.6471     390.4355   1419.43542     702.6471     390.4355
   1419.42017     702.4634     390.5354   1419.42017     702.4634     390.5354
   1419.40491     703.6132     390.3987   1419.40491     703.6132     390.3987
   1419.38965     704.4921     390.1900   1419.38965     704.4921     390.1900
   1419.37439     704.3219     389.5796   1419.37439     704.3219     389.5796
   1419.35913     704.8904     389.0247   1419.35913     704.8904     389.0247
   1419.34387     704.6622     389.4341   1419.34387     704.6622     389.4341
   1419.32861     704.3600     388.4629   1419.32861     704.3600     388.4629
   1419.31335     705.2747     388.2664   1419.31335     705.2747     388.2664
   1419.29810     705.1757     388.1672   1419.29810     705.1757     388.1672
   1419.28284     705.9402     388.6233   1419.28284     705.9402     388.6233
   1419.26758     706.0932     388.0310   1419.26758     706.0932     388.0310
   1419.25232     706.2014     387.7105   1419.25232     706.2014     387.7105
   1419.23706     705.8959     388.6711   1419.23706     705.8959     388.6711
   1419.22180     706.6094     387.2448   1419.22180     706.6094     387.2448
   1419.20654     707.3298     387.4529   1419.20654     707.3298     387.4529
   1419.19128     707.7564     387.4954   1419.19128     707.7564     387.4954
   1419.17603     707.8501     387.0365   1419.17603     707.8501     387.0365
   1419.16077     709.0193     387.3974   1419.16077     709.0193     387.3974
   1419.14551     708.5195     387.4969   1419.14551     708.5195     387.4969
   1419.13025     709.0176     386.7758   1419.13025     709.0176     386.7758
   1419.11499     708.2864     387.1847   1419.11499     708.2864     387.1847
   1419.09973     709.7057     386.4522   1419.09973     709.7057     386.4522
   1419.08447     709.3123     386.9933   1419.08447     709.3123     386.9933
   1419.06921     709.7451     386.4287   1419.06921     709.7451     386.4287
   1419.05396     709.8656     386.5567   1419.05396     709.8656     386.5567
   1419.03870     710.6303     387.0849   1419.03870     710.6303     387.0849
   1419.02344     710.9632     386.5426   1419.02344     710.9632     386.5426
   1419.00818     712.2131     386.9228   1419.00818     712.2131     386.9228
   1418.99292     712.2386     386.8406   1418.99292     712.2386     386.8406
   1418.97766     711.6092     386.9843   1418.97766     711.6092     386.9843
   1418.96240     712.5098     386.5428   1418.96240     712.5098     386.5428
   1418.94714     712.7800     386.6925   1418.94714     712.7800     386.6925
   1418.93188     713.7142     386.1992   1418.93188     713.7142     386.1992
   1418.91663     713.9241     387.2442   1418.91663     713.9241     387.2442
   1418.90137     713.8826     386.8708   1418.90137     713.8826     386.8708
   1418.88611     715.4850     386.8977   1418.88611     715.4850     386.8977
   1418.87085     716.3799     387.0401   1418.87085     716.3799     387.0401
   1418.85559     715.7479     387.3419   1418.85559     715.7479     387.3419
   1418.84033     716.4955     387.4981   1418.84033     716.4955     387.4981
   1418.82507     716.9040     387.5321   1418.82507     716.9040     387.5321
   1418.80981     717.5881     387.3022   1418.80981     717.5881     387.3022
   1418.79456     717.0602     387.5459   1418.79456     717.0602     387.5459
   1418.77930     717.5312     388.3458   1418.77930     717.5312     388.3458
   1418.76404     718.6501     387.9173   1418.76404     718.6501     387.9173
   1418.74878     719.3696     387.9679   1418.74878     719.3696     387.9679
   1418.73352     719.9225     388.3593   1418.73352     719.9225     388.3593
   1418.71826     720.2919     388.3087   1418.71826     720.2919     388.3087
   1418.70300     721.5106     389.2389   1418.70300     721.5106     389.2389
   1418.68774     721.5244     389.2377   1418.68774     721.5244     389.2377
   1418.67249     722.1845     389.6652   1418.67249     722.1845     389.6652
   1418.65723     722.0096     389.6186   1418.65723     722.0096     389.6186
   1418.64197     723.0511     389.2798   1418.64197     723.0511     389.2798
   1418.62671     723.4644     390.1659   1418.62671     723.4644     390.1659
   1418.61145     725.3731     390.3215   1418.61145     725.3731     390.3215
   1418.59619     725.3435     391.6107   1418.59619     725.3435     391.6107
   1418.58093     724.8353     390.7879   1418.58093     724.8353     390.7879
   1418.56567     726.0056     391.1014   1418.56567     726.0056     391.1014
   1418.55042     726.7002     391.6366   1418.55042     726.7002     391.6366
   1418.53516     725.4702     392.7509   1418.53516     725.4702     392.7509
   1418.51990     727.6679     392.2709   1418.51990     727.6679     392.2709
   1418.50464     728.0959     392.7947   1418.50464     728.0959     392.7947
   1418.48938     727.8940     393.8481   1418.48938     727.8940     393.8481
   1418.47412     729.4445     394.0366   1418.47412     729.4445     394.0366
   1418.45886     729.6904     394.5893   1418.45886     729.6904     394.5893
   1418.44360     731.2481     394.5456   1418.44360     731.2481     394.5456
   1418.42834     732.1194     394.7115   1418.42834     732.1194     394.7115
   1418.41309     732.9609     395.2508   1418.41309     732.9609     395.2508
   1418.39783     732.2162     395.1223   1418.39783     732.2162     395.1223
   1418.38257     734.5905     395.7003   1418.38257     734.5905     395.7003
   1418.36731     733.5426     396.1197   1418.36731     733.5426     396.1197
   1418.35205     734.1657     397.0367   1418.35205     734.1657     397.0367
   1418.33679     734.5807     397.4058   1418.33679     734.5807     397.4058
   1418.32153     735.9014     397.7713   1418.32153     735.9014     397.7713
   1418.30627     735.5303     397.8002   1418.30627     735.5303     397.8002
   1418.29102     736.2802     398.4385   1418.29102     736.2802     398.4385
   1418.27576     736.8388     399.0613   1418.27576     736.8388     399.0613
   1418.26050     737.1385     399.7466   1418.26050     737.1385     399.7466
   1418.24524     738.7308     400.5583   1418.24524     738.7308     400.5583
   1418.22998     739.4130     400.4716   1418.22998     739.4130     400.4716
   1418.21472     740.7219     400.6085   1418.21472     740.7219     400.6085
   1418.19946     741.1125     401.9185   1418.19946     741.1125     401.9185
   1418.18420     742.6879     402.1882   1418.18420     742.6879     402.1882
   1418.16895     742.3674     402.8080   1418.16895     742.3674     402.8080
   1418.15369     742.9173     404.0286   1418.15369     742.9173     404.0286
   1418.13843     744.8083     403.7159   1418.13843     744.8083     403.7159
   1418.12317     745.1959     404.7614   1418.12317     745.1959     404.7614
   1418.10791     746.8131     405.1791   1418.10791     746.8131     405.1791
   1418.09265     747.6464     406.1349   1418.09265     747.6464     406.1349
   1418.07739     747.4998     406.8297   1418.07739     747.4998     406.8297
   1418.06213     747.8466     407.8520   1418.06213     747.8466     407.8520
   1418.04688     748.9907     408.2376   1418.04688     748.9907     408.2376
   1418.03162     750.6423     408.8341   1418.03162     750.6423     408.8341
   1418.01636     749.3831     409.5715   1418.01636     749.3831     409.5715
   1418.00110     751.3672     410.3007   1418.00110     751.3672     410.3007
   1417.98584     752.7910     410.9840   1417.98584     752.7910     410.9840
   1417.97058     752.1272     411.5114   1417.97058     752.1272     411.5114
   1417.95532     754.1752     412.1637   1417.95532     754.1752     412.1637
   1417.94006     754.8922     413.2762   1417.94006     754.8922     413.2762
   1417.92480     754.9048     413.7725   1417.92480     754.9048     413.7725
   1417.90955     755.9698     414.4362   1417.90955     755.9698     414.4362
   1417.89429     756.4977     416.1904   1417.89429     756.4977     416.1904
   1417.87903     757.4337     415.7003   1417.87903     757.4337     415.7003
   1417.86377     757.2471     416.3898   1417.86377     757.2471     416.3898
   1417.84851     758.3717     418.1646   1417.84851     758.3717     418.1646
   1417.83325     761.4323     418.9124   1417.83325     761.4323     418.9124
   1417.81799     760.0501     419.6884   1417.81799     760.0501     419.6884
   1417.80273     761.7850     420.4180   1417.80273     761.7850     420.4180
   1417.78748     762.0882     420.3457   1417.78748     762.0882     420.3457
   1417.77222     762.0245     421.8836   1417.77222     762.0245     421.8836
   1417.75696     764.0795     422.7060   1417.75696     764.0795     422.7060
   1417.74170     764.5615     424.2395   1417.74170     764.5615     424.2395
   1417.72644     764.2048     424.4080   1417.72644     764.2048     424.4080
   1417.71118     765.5629     425.2196   1417.71118     765.5629     425.2196
   1417.69592     766.2251     425.6158   1417.69592     766.2251     425.6158
   1417.68066     768.8287     427.7654   1417.68066     768.8287     427.7654
   1417.66541     768.4620     428.2020   1417.66541     768.4620     428.2020
   1417.65015     769.4347     428.1957   1417.65015     769.4347     428.1957
   1417.63489     768.9489     429.0620   1417.63489     768.9489     429.0620
   1417.61963     771.1986     430.8012   1417.61963     771.1986     430.8012
   1417.60437     771.5202     431.3569   1417.60437     771.5202     431.3569
   1417.58911     770.4380     432.0615   1417.58911     770.4380     432.0615
   1417.57385     773.6281     433.2315   1417.57385     773.6281     433.2315
   1417.55859     774.0468     433.5915   1417.55859     774.0468     433.5915
   1417.54333     774.7627     434.9262   1417.54333     774.7627     434.9262
   1417.52808     774.5826     435.9956   1417.52808     774.5826     435.9956
   1417.51282     775.4097     436.4923   1417.51282     775.4097     436.4923
   1417.49756     776.0146     438.1844   1417.49756     776.0146     438.1844
   1417.48230     776.5312     438.9904   1417.48230     776.5312     438.9904
   1417.46704     777.5602     439.3299   1417.46704     777.5602     439.3299
   1417.45178     778.3571     441.3770   1417.45178     778.3571     441.3770
   1417.43652     779.1890     442.4173   1417.43652     779.1890     442.4173
   1417.42126     780.1340     442.7094   1417.42126     780.1340     442.7094
   1417.40601     780.5225     443.8630   1417.40601     780.5225     443.8630
   1417.39075     780.9811     445.2696   1417.39075     780.9811     445.2696
   1417.37549     782.1780     446.1532   1417.37549     782.1780     446.1532
   1417.36023     783.0649     446.7527   1417.36023     783.0649     446.7527
   1417.34497     783.4723     447.8965   1417.34497     783.4723     447.8965
   1417.32971     783.8762     449.3571   1417.32971     783.8762     449.3571
   1417.31445     784.5557     449.3978   1417.31445     784.5557     449.3978
   1417.29919     786.1237     451.0839   1417.29919     786.1237     451.0839
   1417.28394     785.1279     450.6921   1417.28394     785.1279     450.6921
   1417.26868     786.8220     452.8707   1417.26868     786.8220     452.8707
   1417.25342     787.1556     453.4029   1417.25342     787.1556     453.4029
   1417.23816     788.6010     454.6386   1417.23816     788.6010     454.6386
   1417.22290     789.9007     456.1688   1417.22290     789.9007     456.1688
   1417.20764     788.2442     457.2543   1417.20764     788.2442     457.2543
   1417.19238     788.0736     458.1393   1417.19238     788.0736     458.1393
   1417.17712     790.6204     459.3290   1417.17712     790.6204     459.3290
   1417.16187     791.2495     460.0370   1417.16187     791.2495     460.0370
   1417.14661     790.9274     461.1699   1417.14661     790.9274     461.1699
   1417.13135     791.7346     462.4151   1417.13135     791.7346     462.4151
   1417.11609     791.9575     462.8963   1417.11609     791.9575     462.8963
   1417.10083     793.7132     463.9578   1417.10083     793.7132     463.9578
   1417.08557     793.8011     465.4521   1417.08557     793.8011     465.4521
   1417.07031     794.0444     466.2902   1417.07031     794.0444     466.2902
   1417.05505     794.2090     467.2038   1417.05505     794.2090     467.2038
   1417.03979     795.6419     468.2307   1417.03979     795.6419     468.2307
   1417.02454     796.3467     469.0354   1417.02454     796.3467     469.0354
   1417.00928     795.1747     470.0596   1417.00928     795.1747     470.0596
   1416.99402     797.1336     471.5490   1416.99402     797.1336     471.5490
   1416.97876     797.6943     472.7978   1416.97876     797.6943     472.7978
   1416.96350     796.0189     474.0774   1416.96350     796.0189     474.0774
   1416.94824     797.6895     474.8474   1416.94824     797.6895     474.8474
   1416.93298     797.0341     475.5398   1416.93298     797.0341     475.5398
   1416.91772     798.9286     477.0352   1416.91772     798.9286     477.0352
   1416.90247     798.0739     477.1244   1416.90247     798.0739     477.1244
   1416.88721     798.8283     478.4207   1416.88721     798.8283     478.4207
   1416.87195     799.5121     478.5091   1416.87195     799.5121     478.5091
   1416.85669     799.6395     480.0385   1416.85669     799.6395     480.0385
   1416.84143     800.4147     480.8641   1416.84143     800.4147     480.8641
   1416.82617     800.7209     482.4341   1416.82617     800.7209     482.4341
   1416.81091     801.8599     483.2252   1416.81091     801.8599     483.2252
   1416.79565     802.3026     483.8282   1416.79565     802.3026     483.8282
   1416.78040     802.0137     485.2382   1416.78040     802.0137     485.2382
   1416.76514     801.8368     486.3057   1416.76514     801.8368     486.3057
   1416.74988     802.3878     487.6487   1416.74988     802.3878     487.6487
   1416.73462     802.6561     487.3217   1416.73462     802.6561     487.3217
   1416.71936     801.1014     488.8471   1416.71936     801.1014     488.8471
   1416.70410     802.2510     489.0500   1416.70410     802.2510     489.0500
   1416.68884     803.0667     490.2816   1416.68884     803.0667     490.2816
   1416.67358     803.0471     490.7626   1416.67358     803.0471     490.7626
   1416.65833     803.2187     491.5266   1416.65833     803.2187     491.5266
   1416.64307     803.1606     492.8972   1416.64307     803.1606     492.8972
   1416.62781     802.0510     492.9080   1416.62781     802.0510     492.9080
   1416.61255     803.5629     494.2081   1416.61255     803.5629     494.2081
   1416.59729     804.6140     495.1596   1416.59729     804.6140     495.1596
   1416.58203     803.9933     496.6317   1416.58203     803.9933     496.6317
   1416.56677     803.3435     496.3417   1416.56677     803.3435     496.3417
   1416.55151     804.1550     496.9116   1416.55151     804.1550     496.9116
   1416.53625     804.3102     497.5302   1416.53625     804.3102     497.5302
   1416.52100     802.5647     498.9074   1416.52100     802.5647     498.9074
   1416.50574     803.7661     499.3484   1416.50574     803.7661     499.3484
   1416.49048     803.7477     498.9715   1416.49048     803.7477     498.9715
   1416.47522     803.4058     499.7895   1416.47522     803.4058     499.7895
   1416.45996     804.7040     501.4769   1416.45996     804.7040     501.4769
   1416.44470     804.1032     502.3023   1416.44470     804.1032     502.3023
   1416.42944     803.6673     502.2422   1416.42944     803.6673     502.2422
   1416.41418     803.3577     503.6705   1416.41418     803.3577     503.6705
   1416.39893     803.4420     503.0664   1416.39893     803.4420     503.0664
   1416.38367     802.4319     504.3485   1416.38367     802.4319     504.3485
   1416.36841     803.8292     505.6506   1416.36841     803.8292     505.6506
   1416.35315     802.4030     504.7101   1416.35315     802.4030     504.7101
   1416.33789     803.8682     505.3253   1416.33789     803.8682     505.3253
   1416.32263     802.4994     506.0719   1416.32263     802.4994     506.0719
   1416.30737     801.8022     506.6471   1416.30737     801.8022     506.6471
   1416.29211     802.3160     506.8308   1416.29211     802.3160     506.8308
   1416.27686     802.4739     507.6262   1416.27686     802.4739     507.6262
   1416.26160     801.6182     508.0078   1416.26160     801.6182     508.0078
   1416.24634     801.0123     508.8427   1416.24634     801.0123     508.8427
   1416.23108     803.2250     508.7292   1416.23108     803.2250     508.7292
   1416.21582     801.1356     509.5864   1416.21582     801.1356     509.5864
   1416.20056     799.1276     509.9433   1416.20056     799.1276     509.9433
   1416.18530     800.7369     509.5502   1416.18530     800.7369     509.5502
   1416.17004     798.4410     509.4436   1416.17004     798.4410     509.4436
   1416.15479     799.1843     510.2043   1416.15479     799.1843     510.2043
   1416.13953     798.5283     509.6797   1416.13953     798.5283     509.6797
   1416.12427     799.1100     510.9804   1416.12427     799.1100     510.9804
   1416.10901     798.7512     512.4052   1416.10901     798.7512     512.4052
   1416.09375     798.0911     511.9790   1416.09375     798.0911     511.9790
   1416.07849     796.9276     512.1017   1416.07849     796.9276     512.1017
   1416.06323     795.7445     511.8423   1416.06323     795.7445     511.8423
   1416.04797     795.1324     511.9846   1416.04797     795.1324     511.9846
   1416.03271     796.1522     512.0262   1416.03271     796.1522     512.0262
   1416.01746     794.3356     512.2874   1416.01746     794.3356     512.2874
   1416.00220     795.0012     511.8745   1416.00220     795.0012     511.8745
   1415.98694     795.3235     512.5247   1415.98694     795.3235     512.5247
   1415.97168     794.7966     513.1638   1415.97168     794.7966     513.1638
   1415.95642     792.9420     512.8583   1415.95642     792.9420     512.8583
   1415.94116     791.7418     512.8440   1415.94116     791.7418     512.8440
   1415.92590     791.4684     512.1821   1415.92590     791.4684     512.1821
   1415.91064     790.5360     513.7623   1415.91064     790.5360     513.7623
   1415.89539     790.7430     513.2669   1415.89539     790.7430     513.2669
   1415.88013     790.5931     512.5560   1415.88013     790.5931     512.5560
   1415.86487     789.8641     514.2021   1415.86487     789.8641     514.2021
   1415.84961     787.7098     513.1031   1415.84961     787.7098     513.1031
   1415.83435     788.9541     513.6946   1415.83435     788.9541     513.6946
   1415.81909     787.1733     513.2818   1415.81909     787.1733     513.2818
   1415.80383     785.7899     513.1446   1415.80383     785.7899     513.1446
   1415.78857     785.9712     512.2151   1415.78857     785.9712     512.2151
   1415.77332     784.9577     512.8962   1415.77332     784.9577     512.8962
   1415.75806     784.1117     513.1464   1415.75806     784.1117     513.1464
   1415.74280     783.4445     512.5358   1415.74280     783.4445     512.5358
   1415.72754     784.1078     512.9858   1415.72754     784.1078     512.9858
   1415.71228     782.4307     512.8890   1415.71228     782.4307     512.8890
   1415.69702     782.4924     512.1943   1415.69702     782.4924     512.1943
   1415.68176     780.3989     513.1259   1415.68176     780.3989     513.1259
   1415.66650     779.6660     512.4854   1415.66650     779.6660     512.4854
   1415.65125     780.1479     512.4116   1415.65125     780.1479     512.4116
   1415.63599     777.0765     511.5182   1415.63599     777.0765     511.5182
   1415.62073     776.8351     511.8766   1415.62073     776.8351     511.8766
   1415.60547     776.5847     511.5875   1415.60547     776.5847     511.5875
   1415.59021     775.2537     511.9249   1415.59021     775.2537     511.9249
   1415.57495     775.4127     512.3857   1415.57495     775.4127     512.3857
   1415.55969     774.4304     512.4930   1415.55969     774.4304     512.4930
   1415.54443     771.9624     511.6244   1415.54443     771.9624     511.6244
   1415.52917     772.1027     510.4292   1415.52917     772.1027     510.4292
   1415.51392     771.4406     509.8167   1415.51392     771.4406     509.8167
   1415.49866     769.9753     511.0051   1415.49866     769.9753     511.0051
   1415.48340     770.0376     510.7305   1415.48340     770.0376     510.7305
   1415.46814     768.8333     510.2180   1415.46814     768.8333     510.2180
   1415.45288     768.2877     510.9004   1415.45288     768.2877     510.9004
   1415.43762     765.2077     510.0896   1415.43762     765.2077     510.0896
   1415.42236     764.8896     510.0358   1415.42236     764.8896     510.0358
   1415.40710     764.3824     508.5872   1415.40710     764.3824     508.5872
   1415.39185     763.7391     510.7187   1415.39185     763.7391     510.7187
   1415.37659     762.9061     508.4484   1415.37659     762.9061     508.4484
   1415.36133     761.0186     508.2780   1415.36133     761.0186     508.2780
   1415.34607     759.3393     508.0640   1415.34607     759.3393     508.0640
   1415.33081     759.1659     508.0624   1415.33081     759.1659     508.0624
   1415.31555     757.7613     507.7195   1415.31555     757.7613     507.7195
   1415.30029     757.5911     507.7641   1415.30029     757.5911     507.7641
   1415.28503     756.3348     506.3833   1415.28503     756.3348     506.3833
   1415.26978     754.1212     506.1214   1415.26978     754.1212     506.1214
   1415.25452     753.0648     506.2366   1415.25452     753.0648     506.2366
   1415.23926     752.7079     505.6736   1415.23926     752.7079     505.6736
   1415.22400     749.6489     505.3228   1415.22400     749.6489     505.3228
   1415.20874     748.6727     504.5618   1415.20874     748.6727     504.5618
   1415.19348     748.5546     504.2944   1415.19348     748.5546     504.2944
   1415.17822     746.7156     504.0043   1415.17822     746.7156     504.0043
   1415.16296     745.4882     502.7530   1415.16296     745.4882     502.7530
   1415.14771     743.6569     502.6309   1415.14771     743.6569     502.6309
   1415.13245     742.8226     502.9951   1415.13245     742.8226     502.9951
   1415.11719     741.6808     502.0021   1415.11719     741.6808     502.0021
   1415.10193     740.8812     500.9679   1415.10193     740.8812     500.9679
   1415.08667     739.9633     501.2408   1415.08667     739.9633     501.2408
   1415.07141     739.9072     500.3952   1415.07141     739.9072     500.3952
   1415.05615     735.9981     499.9424   1415.05615     735.9981     499.9424
   1415.04089     734.8885     499.3187   1415.04089     734.8885     499.3187
   1415.02563     732.7839     498.6286   1415.02563     732.7839     498.6286
   1415.01038     733.1780     498.6240   1415.01038     733.1780     498.6240
   1414.99512     730.5230     497.0765   1414.99512     730.5230     497.0765
   1414.97986     728.9109     496.9146   1414.97986     728.9109     496.9146
   1414.96460     728.0649     497.1583   1414.96460     728.0649     497.1583
   1414.94934     725.9357     495.6547   1414.94934     725.9357     495.6547
   1414.93408     724.5253     495.2557   1414.93408     724.5253     495.2557
   1414.91882     723.8417     493.9274   1414.91882     723.8417     493.9274
   1414.90356     721.5321     493.8994   1414.90356     721.5321     493.8994
   1414.88831     719.0427     492.5371   1414.88831     719.0427     492.5371
   1414.87305     718.4103     493.1318   1414.87305     718.4103     493.1318
   1414.85779     716.8630     491.7729   1414.85779     716.8630     491.7729
   1414.84253     715.8109     491.5086   1414.84253     715.8109     491.5086
   1414.82727     714.0106     490.3206   1414.82727     714.0106     490.3206
   1414.81201     713.0118     489.0751   1414.81201     713.0118     489.0751
   1414.79675     710.2321     489.1444   1414.79675     710.2321     489.1444
   1414.78149     707.6426     488.2967   1414.78149     707.6426     488.2967
   1414.76624     706.6282     486.7767   1414.76624     706.6282     486.7767
   1414.75098     705.8004     486.7257   1414.75098     705.8004     486.7257
   1414.73572     702.5637     485.7059   1414.73572     702.5637     485.7059
   1414.72046     701.0903     484.7478   1414.72046     701.0903     484.7478
   1414.70520     699.0361     483.9507   1414.70520     699.0361     483.9507
   1414.68994     698.1027     483.3409   1414.68994     698.1027     483.3409
   1414.67468     695.8525     482.3665   1414.67468     695.8525     482.3665
   1414.65942     694.2704     481.0957   1414.65942     694.2704     481.0957
   1414.64417     691.0566     480.1907   1414.64417     691.0566     480.1907
   1414.62891     690.6985     479.2236   1414.62891     690.6985     479.2236
   1414.61365     687.2838     478.7561   1414.61365     687.2838     478.7561
   1414.59839     686.0353     477.6710   1414.59839     686.0353     477.6710
   1414.58313     684.1647     476.4250   1414.58313     684.1647     476.4250
   1414.56787     681.3030     475.5388   1414.56787     681.3030     475.5388
   1414.55261     680.5615     473.9713   1414.55261     680.5615     473.9713
   1414.53735     677.5208     473.4515   1414.53735     677.5208     473.4515
   1414.52209     675.1700     471.9203   1414.52209     675.1700     471.9203
   1414.50684     674.5858     471.0878   1414.50684     674.5858     471.0878
   1414.49158     671.8575     469.7184   1414.49158     671.8575     469.7184
   1414.47632     668.5788     468.8198   1414.47632     668.5788     468.8198
   1414.46106     666.4662     467.4164   1414.46106     666.4662     467.4164
   1414.44580     663.7878     467.3172   1414.44580     663.7878     467.3172
   1414.43054     661.8834     465.4200   1414.43054     661.8834     465.4200
   1414.41528     660.2786     464.3244   1414.41528     660.2786     464.3244
   1414.40002     658.0817     462.4144   1414.40002     658.0817     462.4144
   1414.38477     655.5026     461.8873   1414.38477     655.5026     461.8873
   1414.36951     653.3842     461.1598   1414.36951     653.3842     461.1598
   1414.35425     651.1227     460.1589   1414.35425     651.1227     460.1589
   1414.33899     648.7184     458.5432   1414.33899     648.7184     458.5432
   1414.32373     647.0132     456.8630   1414.32373     647.0132     456.8630
   1414.30847     643.8541     456.0579   1414.30847     643.8541     456.0579
   1414.29321     642.6255     454.5125   1414.29321     642.6255     454.5125
   1414.27795     640.3214     453.0670   1414.27795     640.3214     453.0670
   1414.26270     636.9778     452.4794   1414.26270     636.9778     452.4794
   1414.24744     634.8193     450.7985   1414.24744     634.8193     450.7985
   1414.23218     632.1152     448.9800   1414.23218     632.1152     448.9800
   1414.21692     630.7782     448.1512   1414.21692     630.7782     448.1512
   1414.20166     627.3697     446.6074   1414.20166     627.3697     446.6074
   1414.18640     625.1124     445.5502   1414.18640     625.1124     445.5502
   1414.17114     622.4134     443.9603   1414.17114     622.4134     443.9603
   1414.15588     620.2574     442.2137   1414.15588     620.2574     442.2137
   1414.14062     616.7501     441.3477   1414.14062     616.7501     441.3477
   1414.12537     615.4430     439.0230   1414.12537     615.4430     439.0230
   1414.11011     612.2803     438.2398   1414.11011     612.2803     438.2398
   1414.09485     609.6649     436.7872   1414.09485     609.6649     436.7872
   1414.07959     606.7803     435.3552   1414.07959     606.7803     435.3552
   1414.06433     604.7850     433.1612   1414.06433     604.7850     433.1612
   1414.04907     601.7468     432.1139   1414.04907     601.7468     432.1139
   1414.03381     599.0187     430.9838   1414.03381     599.0187     430.9838
   1414.01855     597.4136     429.4457   1414.01855     597.4136     429.4457
   1414.00330     623.8838     436.1437   1414.00330     623.8838     436.1437
   1413.98804     593.9865     426.8956   1413.98804     593.9865     426.8956
   1413.97278     587.9767     424.7064   1413.97278     587.9767     424.7064
   1413.95752     586.0267     422.6843   1413.95752     586.0267     422.6843
   1413.94226     583.0552     421.4392   1413.94226     583.0552     421.4392
   1413.92700     580.4736     420.1567   1413.92700     580.4736     420.1567
   1413.91174     577.3885     417.7307   1413.91174     577.3885     417.7307
   1413.89648     574.0927     416.4872   1413.89648     574.0927     416.4872
   1413.88123     572.2689     414.7022   1413.88123     572.2689     414.7022
   1413.86597     569.4203     414.1735   1413.86597     569.4203     414.1735
   1413.85071     565.8027     412.3393   1413.85071     565.8027     412.3393
   1413.83545     563.6639     410.5375   1413.83545     563.6639     410.5375
   1413.82019     560.8485     408.8911   1413.82019     560.8485     408.8911
   1413.80493     558.0050     407.0323   1413.80493     558.0050     407.0323
   1413.78967     554.6533     405.2245   1413.78967     554.6533     405.2245
   1413.77441     552.5642     403.9796   1413.77441     552.5642     403.9796
   1413.75916     549.1125     402.2829   1413.75916     549.1125     402.2829
   1413.74390     547.6678     399.9785   1413.74390     547.6678     399.9785
   1413.72864     545.1667     398.6411   1413.72864     545.1667     398.6411
   1413.71338     540.8878     397.0161   1413.71338     540.8878     397.0161
   1413.69812     539.2961     395.4479   1413.69812     539.2961     395.4479
   1413.68286     535.0267     393.6667   1413.68286     535.0267     393.6667
   1413.66760     532.7841     392.6250   1413.66760     532.7841     392.6250
   1413.65234     529.9088     390.2555   1413.65234     529.9088     390.2555
   1413.63708     527.0862     388.9198   1413.63708     527.0862     388.9198
   1413.62183     524.0568     387.5104   1413.62183     524.0568     387.5104
   1413.60657     521.9105     385.8632   1413.60657     521.9105     385.8632
   1413.59131     519.3412     384.7418   1413.59131     519.3412     384.7418
   1413.57605     516.0816     382.0804   1413.57605     516.0816     382.0804
   1413.56079     513.0256     380.5599   1413.56079     513.0256     380.5599
   1413.54553     510.5673     379.0974   1413.54553     510.5673     379.0974
   1413.53027     508.0298     377.4245   1413.53027     508.0298     377.4245
   1413.51501     504.4919     375.6598   1413.51501     504.4919     375.6598
   1413.49976     502.5884     374.7838   1413.49976     502.5884     374.7838
   1413.48450     498.8293     372.9456   1413.48450     498.8293     372.9456
   1413.46924     497.1333     370.8409   1413.46924     497.1333     370.8409
   1413.45398     493.8164     369.5707   1413.45398     493.8164     369.5707
   1413.43872     491.5494     368.0640   1413.43872     491.5494     368.0640
   1413.42346     489.2475     366.3601   1413.42346     489.2475     366.3601
   1413.40820     485.6278     365.1517   1413.40820     485.6278     365.1517
   1413.39294     483.1697     363.8356   1413.39294     483.1697     363.8356
   1413.37769     480.2186     361.5109   1413.37769     480.2186     361.5109
   1413.36243     477.6801     360.3195   1413.36243     477.6801     360.3195
   1413.34717     475.1911     358.9131   1413.34717     475.1911     358.9131
   1413.33191     472.3394     356.7650   1413.33191     472.3394     356.7650
   1413.31665     469.7563     356.2344   1413.31665     469.7563     356.2344
   1413.30139     467.8342     354.0960   1413.30139     467.8342     354.0960
   1413.28613     465.2518     353.5745   1413.28613     465.2518     353.5745
   1413.27087     462.0776     351.1220   1413.27087     462.0776     351.1220
   1413.25562     459.5567     349.3400   1413.25562     459.5567     349.3400
   1413.24036     457.2855     348.6258   1413.24036     457.2855     348.6258
   1413.22510     455.3365     347.2114   1413.22510     455.3365     347.2114
   1413.20984     452.3538     345.7251   1413.20984     452.3538     345.7251
   1413.19458     449.4271     344.5669   1413.19458     449.4271     344.5669
   1413.17932     447.3317     343.1899   1413.17932     447.3317     343.1899
   1413.16406     444.7101     341.6030   1413.16406     444.7101     341.6030
   1413.14880     443.1752     340.1194   1413.14880     443.1752     340.1194
   1413.13354     440.8422     339.6941   1413.13354     440.8422     339.6941
   1413.11829     437.8071     338.2259   1413.11829     437.8071     338.2259
   1413.10303     435.5168     337.2160   1413.10303     435.5168     337.2160
   1413.08777     433.2070     336.4827   1413.08777     433.2070     336.4827
   1413.07251     431.2125     334.8563   1413.07251     431.2125     334.8563
   1413.05725     429.0757     333.9380   1413.05725     429.0757     333.9380
   1413.04199     427.3196     332.5753   1413.04199     427.3196     332.5753
   1413.02673     425.0216     331.5974   1413.02673     425.0216     331.5974
   1413.01147     422.0907     330.6554   1413.01147     422.0907     330.6554
   1412.99622     420.3989     329.7204   1412.99622     420.3989     329.7204
   1412.98096     418.6713     328.8438   1412.98096     418.6713     328.8438
   1412.96570     416.1195     328.2678   1412.96570     416.1195     328.2678
   1412.95044     414.8429     326.8897   1412.95044     414.8429     326.8897
   1412.93518     413.0642     326.1921   1412.93518     413.0642     326.1921
   1412.91992     410.8456     325.1110   1412.91992     410.8456     325.1110
   1412.90466     408.7744     324.3660   1412.90466     408.7744     324.3660
   1412.88940     407.4665     324.3548   1412.88940     407.4665     324.3548
   1412.87415     404.7950     323.0528   1412.87415     404.7950     323.0528
   1412.85889     403.9267     322.5027   1412.85889     403.9267     322.5027
   1412.84363     402.3901     322.2693   1412.84363     402.3901     322.2693
   1412.82837     401.0990     321.8765   1412.82837     401.0990     321.8765
   1412.81311     398.6561     320.9814   1412.81311     398.6561     320.9814
   1412.79785     396.8595     320.2988   1412.79785     396.8595     320.2988
   1412.78259     395.3818     319.5931   1412.78259     395.3818     319.5931
   1412.76733     394.9851     319.5710   1412.76733     394.9851     319.5710
   1412.75208     393.1476     319.0865   1412.75208     393.1476     319.0865
   1412.73682     391.3064     318.5659   1412.73682     391.3064     318.5659
   1412.72156     389.6491     318.6813   1412.72156     389.6491     318.6813
   1412.70630     388.5806     318.7802   1412.70630     388.5806     318.7802
   1412.69104     387.7246     318.2334   1412.69104     387.7246     318.2334
   1412.67578     387.1405     317.7448   1412.67578     387.1405     317.7448
   1412.66052     385.5020     318.4272   1412.66052     385.5020     318.4272
   1412.64526     384.1672     318.1398   1412.64526     384.1672     318.1398
   1412.63000     383.8214     318.2238   1412.63000     383.8214     318.2238
   1412.61475     382.5641     318.0857   1412.61475     382.5641     318.0857
   1412.59949     382.0805     318.2397   1412.59949     382.0805     318.2397
   1412.58423     380.7254     317.8087   1412.58423     380.7254     317.8087
   1412.56897     379.1512     318.7549   1412.56897     379.1512     318.7549
   1412.55371     379.3592     319.2361   1412.55371     379.3592     319.2361
   1412.53845     378.1866     319.1909   1412.53845     378.1866     319.1909
   1412.52319     377.7833     320.3380   1412.52319     377.7833     320.3380
   1412.50793     377.5724     320.7670   1412.50793     377.5724     320.7670
   1412.49268     376.8924     320.5712   1412.49268     376.8924     320.5712
   1412.47742     375.9065     321.2527   1412.47742     375.9065     321.2527
   1412.46216     375.5175     322.0797   1412.46216     375.5175     322.0797
   1412.44690     375.0861     322.6363   1412.44690     375.0861     322.6363
   1412.43164     374.7582     323.1663   1412.43164     374.7582     323.1663
   1412.41638     374.4424     324.2002   1412.41638     374.4424     324.2002
   1412.40112     374.4559     325.0824   1412.40112     374.4559     325.0824
   1412.38586     374.4953     325.4508   1412.38586     374.4953     325.4508
   1412.37061     374.3168     326.8118   1412.37061     374.3168     326.8118
   1412.35535     373.9899     327.6632   1412.35535     373.9899     327.6632
   1412.34009     373.5762     328.3203   1412.34009     373.5762     328.3203
   1412.32483     373.7809     329.8358   1412.32483     373.7809     329.8358
   1412.30957     374.6976     331.1195   1412.30957     374.6976     331.1195
   1412.29431     374.1859     331.5378   1412.29431     374.1859     331.5378
   1412.27905     374.0789     332.7447   1412.27905     374.0789     332.7447
   1412.26379     374.8120     335.3263   1412.26379     374.8120     335.3263
   1412.24854     375.7005     335.5299   1412.24854     375.7005     335.5299
   1412.23328     376.1705     337.5557   1412.23328     376.1705     337.5557
   1412.21802     375.7944     339.1728   1412.21802     375.7944     339.1728
   1412.20276     375.8758     339.8865   1412.20276     375.8758     339.8865