#     FILENAME=!Skynet_57528_lach-cc-88_20537_20934.cyb.fits
#     BASENAME=Skynet_57528_lach-cc-88_20537_20934
#     SRC_NAME=lach-cc-88
#     OBSERVER=ccmadison16_9505
#     DATE_OBS=2016-05-20T16:17:33.680
#        OBSID=20537
#      SCANNUM=20934
#          MJD=57528.6799
#          UTC=58742
#     SCANTYPE=track
#     DATAMODE=HIRES
#     TUNEFREQ=1420.0000
# Actual_FREQ1=1420.0000
# Actual_FREQ2=1420.0000
#    LO1Tuning=6870.000
#     RFFILTER=1355_1435
#        OBSBW=-15.6250
#        NCHAN=1024 
#        FOCUS=37.0709
#           RA=21:03:56.20
#          DEC=46:51:24.06
#      RA(hrs)=21.065600
#     DEC(deg)=46.856700
#    AZIM(deg)=308.413
#    ELEV(deg)=28.580
#     IFattens=11.00, 9.00
#      WARNING=None
#    TCAL_XL1=7.9635
#    TCAL_YR1=9.1340
#    TCAL_XL2=7.9635
#    TCAL_YR2=9.1340
#     TRX_XL1=11.7060
#     TRX_YR1=11.7060
#     TRX_XL2=11.7060
#     TRX_YR2=11.7060
#        TAVE=1.0000
#Freq1(MHz)          XL1          YR1  Freq2(MHz)          XL2          YR2 

   1427.81250     380.0143     244.5142   1427.81250     380.0143     244.5142
   1427.79724     380.6845     245.1475   1427.79724     380.6845     245.1475
   1427.78198     380.8154     245.8177   1427.78198     380.8154     245.8177
   1427.76672     381.4625     246.0261   1427.76672     381.4625     246.0261
   1427.75146     383.4622     246.9506   1427.75146     383.4622     246.9506
   1427.73621     384.1089     247.5214   1427.73621     384.1089     247.5214
   1427.72095     384.6478     248.4724   1427.72095     384.6478     248.4724
   1427.70569     385.5389     249.0372   1427.70569     385.5389     249.0372
   1427.69043     386.7777     249.7977   1427.69043     386.7777     249.7977
   1427.67517     388.6533     250.1358   1427.67517     388.6533     250.1358
   1427.65991     390.2112     251.4145   1427.65991     390.2112     251.4145
   1427.64465     390.5393     252.1934   1427.64465     390.5393     252.1934
   1427.62939     391.6965     253.5831   1427.62939     391.6965     253.5831
   1427.61414     392.5164     253.8915   1427.61414     392.5164     253.8915
   1427.59888     394.7782     255.0899   1427.59888     394.7782     255.0899
   1427.58362     395.4458     255.9685   1427.58362     395.4458     255.9685
   1427.56836     396.8475     257.0291   1427.56836     396.8475     257.0291
   1427.55310     398.4911     258.0881   1427.55310     398.4911     258.0881
   1427.53784     399.9069     259.8446   1427.53784     399.9069     259.8446
   1427.52258     402.3464     260.1701   1427.52258     402.3464     260.1701
   1427.50732     404.3748     260.9829   1427.50732     404.3748     260.9829
   1427.49207     404.9132     262.6249   1427.49207     404.9132     262.6249
   1427.47681     407.1559     263.8492   1427.47681     407.1559     263.8492
   1427.46155     408.8941     265.4553   1427.46155     408.8941     265.4553
   1427.44629     411.3856     266.7266   1427.44629     411.3856     266.7266
   1427.43103     413.0632     268.2247   1427.43103     413.0632     268.2247
   1427.41577     414.9827     269.2232   1427.41577     414.9827     269.2232
   1427.40051     417.3843     270.6063   1427.40051     417.3843     270.6063
   1427.38525     418.9792     272.5793   1427.38525     418.9792     272.5793
   1427.37000     420.9932     273.5789   1427.37000     420.9932     273.5789
   1427.35474     423.0879     274.9272   1427.35474     423.0879     274.9272
   1427.33948     425.0160     277.0110   1427.33948     425.0160     277.0110
   1427.32422     426.7819     277.8990   1427.32422     426.7819     277.8990
   1427.30896     430.0585     280.1937   1427.30896     430.0585     280.1937
   1427.29370     432.5863     281.4921   1427.29370     432.5863     281.4921
   1427.27844     434.7017     282.6647   1427.27844     434.7017     282.6647
   1427.26318     436.9373     284.3869   1427.26318     436.9373     284.3869
   1427.24792     439.1507     286.3181   1427.24792     439.1507     286.3181
   1427.23267     442.2698     288.3101   1427.23267     442.2698     288.3101
   1427.21741     444.1510     289.4935   1427.21741     444.1510     289.4935
   1427.20215     447.2074     291.3841   1427.20215     447.2074     291.3841
   1427.18689     449.8283     293.1653   1427.18689     449.8283     293.1653
   1427.17163     452.0203     295.3062   1427.17163     452.0203     295.3062
   1427.15637     454.5846     296.6888   1427.15637     454.5846     296.6888
   1427.14111     457.3492     299.0901   1427.14111     457.3492     299.0901
   1427.12585     460.1724     300.0455   1427.12585     460.1724     300.0455
   1427.11060     462.9282     301.6212   1427.11060     462.9282     301.6212
   1427.09534     465.6522     304.1194   1427.09534     465.6522     304.1194
   1427.08008     468.5055     305.9498   1427.08008     468.5055     305.9498
   1427.06482     471.6685     307.5113   1427.06482     471.6685     307.5113
   1427.04956     474.6374     309.9882   1427.04956     474.6374     309.9882
   1427.03430     477.8596     311.6300   1427.03430     477.8596     311.6300
   1427.01904     480.0781     314.1395   1427.01904     480.0781     314.1395
   1427.00378     483.0828     315.6390   1427.00378     483.0828     315.6390
   1426.98853     485.6018     317.7566   1426.98853     485.6018     317.7566
   1426.97327     488.6425     319.5979   1426.97327     488.6425     319.5979
   1426.95801     491.1130     321.6903   1426.95801     491.1130     321.6903
   1426.94275     494.8108     323.8499   1426.94275     494.8108     323.8499
   1426.92749     497.1346     326.4427   1426.92749     497.1346     326.4427
   1426.91223     499.8584     327.7109   1426.91223     499.8584     327.7109
   1426.89697     503.2327     329.9265   1426.89697     503.2327     329.9265
   1426.88171     507.0536     332.1198   1426.88171     507.0536     332.1198
   1426.86646     510.0705     334.2875   1426.86646     510.0705     334.2875
   1426.85120     513.7776     335.9254   1426.85120     513.7776     335.9254
   1426.83594     515.5266     338.5173   1426.83594     515.5266     338.5173
   1426.82068     519.3856     340.3586   1426.82068     519.3856     340.3586
   1426.80542     522.0488     342.3908   1426.80542     522.0488     342.3908
   1426.79016     525.1454     344.9799   1426.79016     525.1454     344.9799
   1426.77490     528.6284     346.5712   1426.77490     528.6284     346.5712
   1426.75964     530.9101     349.3131   1426.75964     530.9101     349.3131
   1426.74438     535.1417     350.5256   1426.74438     535.1417     350.5256
   1426.72913     537.9030     353.1618   1426.72913     537.9030     353.1618
   1426.71387     540.7882     355.7180   1426.71387     540.7882     355.7180
   1426.69861     545.1382     357.4387   1426.69861     545.1382     357.4387
   1426.68335     547.4000     358.6865   1426.68335     547.4000     358.6865
   1426.66809     550.2778     361.1536   1426.66809     550.2778     361.1536
   1426.65283     552.7689     363.7866   1426.65283     552.7689     363.7866
   1426.63757     556.8351     366.5261   1426.63757     556.8351     366.5261
   1426.62231     560.9780     370.4286   1426.62231     560.9780     370.4286
   1426.60706     564.5139     370.6398   1426.60706     564.5139     370.6398
   1426.59180     566.8354     372.0442   1426.59180     566.8354     372.0442
   1426.57654     569.3234     374.5850   1426.57654     569.3234     374.5850
   1426.56128     572.2954     376.4962   1426.56128     572.2954     376.4962
   1426.54602     575.1143     378.0828   1426.54602     575.1143     378.0828
   1426.53076     577.5154     380.7496   1426.53076     577.5154     380.7496
   1426.51550     582.2315     382.1896   1426.51550     582.2315     382.1896
   1426.50024     584.5755     384.3213   1426.50024     584.5755     384.3213
   1426.48499     588.3172     385.9156   1426.48499     588.3172     385.9156
   1426.46973     590.9592     388.5989   1426.46973     590.9592     388.5989
   1426.45447     594.7491     390.9374   1426.45447     594.7491     390.9374
   1426.43921     596.8134     392.2199   1426.43921     596.8134     392.2199
   1426.42395     599.6030     394.8114   1426.42395     599.6030     394.8114
   1426.40869     603.5302     397.4966   1426.40869     603.5302     397.4966
   1426.39343     606.2792     398.7173   1426.39343     606.2792     398.7173
   1426.37817     609.1116     401.2394   1426.37817     609.1116     401.2394
   1426.36292     611.3798     403.1609   1426.36292     611.3798     403.1609
   1426.34766     615.8904     405.0628   1426.34766     615.8904     405.0628
   1426.33240     618.0585     405.8771   1426.33240     618.0585     405.8771
   1426.31714     621.1348     408.9582   1426.31714     621.1348     408.9582
   1426.30188     624.2056     410.2372   1426.30188     624.2056     410.2372
   1426.28662     627.3625     412.3237   1426.28662     627.3625     412.3237
   1426.27136     629.7105     414.3782   1426.27136     629.7105     414.3782
   1426.25610     632.5497     416.5240   1426.25610     632.5497     416.5240
   1426.24084     635.9828     418.0151   1426.24084     635.9828     418.0151
   1426.22559     637.8848     420.5533   1426.22559     637.8848     420.5533
   1426.21033     640.8395     422.4371   1426.21033     640.8395     422.4371
   1426.19507     643.9453     424.2635   1426.19507     643.9453     424.2635
   1426.17981     647.4293     425.7450   1426.17981     647.4293     425.7450
   1426.16455     648.4969     427.7268   1426.16455     648.4969     427.7268
   1426.14929     651.7750     429.6541   1426.14929     651.7750     429.6541
   1426.13403     655.9330     431.2883   1426.13403     655.9330     431.2883
   1426.11877     657.3782     432.8219   1426.11877     657.3782     432.8219
   1426.10352     659.5995     434.9575   1426.10352     659.5995     434.9575
   1426.08826     662.8533     436.8145   1426.08826     662.8533     436.8145
   1426.07300     664.7706     438.1868   1426.07300     664.7706     438.1868
   1426.05774     668.3694     440.5282   1426.05774     668.3694     440.5282
   1426.04248     669.7939     442.3145   1426.04248     669.7939     442.3145
   1426.02722     671.9152     443.5352   1426.02722     671.9152     443.5352
   1426.01196     674.1611     444.9902   1426.01196     674.1611     444.9902
   1425.99670     676.5287     446.2393   1425.99670     676.5287     446.2393
   1425.98145     679.2477     448.0094   1425.98145     679.2477     448.0094
   1425.96619     682.1675     449.9947   1425.96619     682.1675     449.9947
   1425.95093     684.3406     451.6631   1425.95093     684.3406     451.6631
   1425.93567     687.2414     453.3367   1425.93567     687.2414     453.3367
   1425.92041     688.1039     454.7336   1425.92041     688.1039     454.7336
   1425.90515     690.9410     457.1201   1425.90515     690.9410     457.1201
   1425.88989     693.8281     458.1451   1425.88989     693.8281     458.1451
   1425.87463     696.4125     460.1236   1425.87463     696.4125     460.1236
   1425.85938     698.0978     460.9354   1425.85938     698.0978     460.9354
   1425.84412     699.3632     462.6868   1425.84412     699.3632     462.6868
   1425.82886     701.3881     463.6907   1425.82886     701.3881     463.6907
   1425.81360     704.6080     464.9442   1425.81360     704.6080     464.9442
   1425.79834     706.4985     467.1160   1425.79834     706.4985     467.1160
   1425.78308     708.9100     467.8747   1425.78308     708.9100     467.8747
   1425.76782     709.5986     469.9308   1425.76782     709.5986     469.9308
   1425.75256     712.3144     471.5300   1425.75256     712.3144     471.5300
   1425.73730     713.5769     473.7198   1425.73730     713.5769     473.7198
   1425.72205     716.5930     473.8669   1425.72205     716.5930     473.8669
   1425.70679     718.0671     474.1151   1425.70679     718.0671     474.1151
   1425.69153     719.5212     476.7495   1425.69153     719.5212     476.7495
   1425.67627     721.1578     477.5658   1425.67627     721.1578     477.5658
   1425.66101     723.0005     479.5664   1425.66101     723.0005     479.5664
   1425.64575     724.6963     481.2134   1425.64575     724.6963     481.2134
   1425.63049     725.7137     482.0919   1425.63049     725.7137     482.0919
   1425.61523     726.8306     483.3391   1425.61523     726.8306     483.3391
   1425.59998     730.2245     484.8339   1425.59998     730.2245     484.8339
   1425.58472     732.1994     485.6464   1425.58472     732.1994     485.6464
   1425.56946     732.9780     486.9474   1425.56946     732.9780     486.9474
   1425.55420     733.8743     488.3174   1425.55420     733.8743     488.3174
   1425.53894     735.3907     488.9103   1425.53894     735.3907     488.9103
   1425.52368     735.7643     490.8380   1425.52368     735.7643     490.8380
   1425.50842     739.0887     492.0406   1425.50842     739.0887     492.0406
   1425.49316     738.5419     492.4276   1425.49316     738.5419     492.4276
   1425.47791     740.9009     494.7240   1425.47791     740.9009     494.7240
   1425.46265     742.8268     495.5862   1425.46265     742.8268     495.5862
   1425.44739     743.5619     496.4017   1425.44739     743.5619     496.4017
   1425.43213     745.3226     497.4832   1425.43213     745.3226     497.4832
   1425.41687     747.2729     500.2289   1425.41687     747.2729     500.2289
   1425.40161     747.6660     500.3098   1425.40161     747.6660     500.3098
   1425.38635     748.8855     500.5238   1425.38635     748.8855     500.5238
   1425.37109     749.5343     502.1971   1425.37109     749.5343     502.1971
   1425.35583     749.5298     502.9949   1425.35583     749.5298     502.9949
   1425.34058     752.7206     504.7487   1425.34058     752.7206     504.7487
   1425.32532     753.5961     504.2230   1425.32532     753.5961     504.2230
   1425.31006     755.2695     506.4103   1425.31006     755.2695     506.4103
   1425.29480     754.4766     507.2336   1425.29480     754.4766     507.2336
   1425.27954     756.4009     507.8606   1425.27954     756.4009     507.8606
   1425.26428     756.0572     509.3751   1425.26428     756.0572     509.3751
   1425.24902     757.5544     509.8816   1425.24902     757.5544     509.8816
   1425.23376     758.7471     511.2104   1425.23376     758.7471     511.2104
   1425.21851     759.2796     511.9619   1425.21851     759.2796     511.9619
   1425.20325     761.4280     513.3729   1425.20325     761.4280     513.3729
   1425.18799     762.3984     513.7784   1425.18799     762.3984     513.7784
   1425.17273     762.3654     514.2950   1425.17273     762.3654     514.2950
   1425.15747     762.8974     515.3886   1425.15747     762.8974     515.3886
   1425.14221     763.8454     516.3092   1425.14221     763.8454     516.3092
   1425.12695     765.7259     517.4551   1425.12695     765.7259     517.4551
   1425.11169     765.3664     518.4672   1425.11169     765.3664     518.4672
   1425.09644     766.9899     519.3882   1425.09644     766.9899     519.3882
   1425.08118     766.2916     520.0893   1425.08118     766.2916     520.0893
   1425.06592     766.4752     521.0800   1425.06592     766.4752     521.0800
   1425.05066     766.5921     522.6562   1425.05066     766.5921     522.6562
   1425.03540     768.6778     522.1799   1425.03540     768.6778     522.1799
   1425.02014     768.4704     522.9814   1425.02014     768.4704     522.9814
   1425.00488     770.1028     524.8652   1425.00488     770.1028     524.8652
   1424.98962     770.5927     525.6500   1424.98962     770.5927     525.6500
   1424.97437     770.1782     526.0592   1424.97437     770.1782     526.0592
   1424.95911     770.3991     526.4326   1424.95911     770.3991     526.4326
   1424.94385     770.7812     527.4471   1424.94385     770.7812     527.4471
   1424.92859     771.1957     527.9314   1424.92859     771.1957     527.9314
   1424.91333     771.3600     529.2941   1424.91333     771.3600     529.2941
   1424.89807     773.0443     529.8959   1424.89807     773.0443     529.8959
   1424.88281     772.6924     529.7184   1424.88281     772.6924     529.7184
   1424.86755     774.0861     530.6410   1424.86755     774.0861     530.6410
   1424.85229     774.5670     532.3888   1424.85229     774.5670     532.3888
   1424.83704     774.8619     532.3204   1424.83704     774.8619     532.3204
   1424.82178     774.0915     532.6854   1424.82178     774.0915     532.6854
   1424.80652     774.8029     534.4995   1424.80652     774.8029     534.4995
   1424.79126     775.1259     534.0838   1424.79126     775.1259     534.0838
   1424.77600     774.2905     535.6948   1424.77600     774.2905     535.6948
   1424.76074     775.8743     535.7318   1424.76074     775.8743     535.7318
   1424.74548     775.9969     536.7266   1424.74548     775.9969     536.7266
   1424.73022     774.6254     536.4670   1424.73022     774.6254     536.4670
   1424.71497     775.3526     537.3888   1424.71497     775.3526     537.3888
   1424.69971     776.9426     537.7837   1424.69971     776.9426     537.7837
   1424.68445     774.9846     539.2716   1424.68445     774.9846     539.2716
   1424.66919     776.0860     539.7935   1424.66919     776.0860     539.7935
   1424.65393     776.0707     540.3911   1424.65393     776.0707     540.3911
   1424.63867     776.2046     541.1396   1424.63867     776.2046     541.1396
   1424.62341     776.2214     540.9916   1424.62341     776.2214     540.9916
   1424.60815     777.1031     542.5820   1424.60815     777.1031     542.5820
   1424.59290     777.2299     542.7960   1424.59290     777.2299     542.7960
   1424.57764     776.1841     542.8777   1424.57764     776.1841     542.8777
   1424.56238     777.1836     543.9917   1424.56238     777.1836     543.9917
   1424.54712     774.9827     544.1045   1424.54712     774.9827     544.1045
   1424.53186     776.2186     544.3025   1424.53186     776.2186     544.3025
   1424.51660     776.8456     544.8170   1424.51660     776.8456     544.8170
   1424.50134     777.2255     545.7126   1424.50134     777.2255     545.7126
   1424.48608     776.9369     546.4789   1424.48608     776.9369     546.4789
   1424.47083     775.3606     546.8199   1424.47083     775.3606     546.8199
   1424.45557     776.5615     547.9944   1424.45557     776.5615     547.9944
   1424.44031     775.8372     548.1786   1424.44031     775.8372     548.1786
   1424.42505     776.2075     548.5569   1424.42505     776.2075     548.5569
   1424.40979     776.8913     547.7941   1424.40979     776.8913     547.7941
   1424.39453     776.2905     550.2098   1424.39453     776.2905     550.2098
   1424.37927     776.2150     549.7728   1424.37927     776.2150     549.7728
   1424.36401     775.8126     549.8851   1424.36401     775.8126     549.8851
   1424.34875     776.4755     550.6774   1424.34875     776.4755     550.6774
   1424.33350     775.3760     550.2969   1424.33350     775.3760     550.2969
   1424.31824     775.6820     551.5378   1424.31824     775.6820     551.5378
   1424.30298     776.7428     551.0690   1424.30298     776.7428     551.0690
   1424.28772     775.9022     551.6309   1424.28772     775.9022     551.6309
   1424.27246     777.1041     552.5146   1424.27246     777.1041     552.5146
   1424.25720     774.2599     552.4752   1424.25720     774.2599     552.4752
   1424.24194     776.0279     553.5667   1424.24194     776.0279     553.5667
   1424.22668     776.3469     553.6617   1424.22668     776.3469     553.6617
   1424.21143     774.8260     552.9705   1424.21143     774.8260     552.9705
   1424.19617     775.6083     555.1370   1424.19617     775.6083     555.1370
   1424.18091     773.3033     554.7065   1424.18091     773.3033     554.7065
   1424.16565     774.9718     556.7269   1424.16565     774.9718     556.7269
   1424.15039     775.3400     554.9724   1424.15039     775.3400     554.9724
   1424.13513     774.9634     555.6044   1424.13513     774.9634     555.6044
   1424.11987     774.2981     555.5966   1424.11987     774.2981     555.5966
   1424.10461     773.7202     555.3032   1424.10461     773.7202     555.3032
   1424.08936     773.6785     556.2023   1424.08936     773.6785     556.2023
   1424.07410     772.7784     555.7563   1424.07410     772.7784     555.7563
   1424.05884     773.1885     556.8964   1424.05884     773.1885     556.8964
   1424.04358     773.0678     556.6652   1424.04358     773.0678     556.6652
   1424.02832     772.2714     557.0385   1424.02832     772.2714     557.0385
   1424.01306     772.9174     556.9434   1424.01306     772.9174     556.9434
   1423.99780     773.5215     557.9179   1423.99780     773.5215     557.9179
   1423.98254     772.1434     557.8392   1423.98254     772.1434     557.8392
   1423.96729     771.3873     557.8155   1423.96729     771.3873     557.8155
   1423.95203     771.9067     558.6838   1423.95203     771.9067     558.6838
   1423.93677     770.7189     558.2452   1423.93677     770.7189     558.2452
   1423.92151     770.6112     558.3069   1423.92151     770.6112     558.3069
   1423.90625     771.2582     558.6371   1423.90625     771.2582     558.6371
   1423.89099     770.9185     558.6957   1423.89099     770.9185     558.6957
   1423.87573     772.3252     559.9852   1423.87573     772.3252     559.9852
   1423.86047     769.2267     559.4436   1423.86047     769.2267     559.4436
   1423.84521     769.2305     559.8824   1423.84521     769.2305     559.8824
   1423.82996     770.0976     558.9280   1423.82996     770.0976     558.9280
   1423.81470     769.0839     559.9151   1423.81470     769.0839     559.9151
   1423.79944     769.5191     559.9536   1423.79944     769.5191     559.9536
   1423.78418     768.5074     559.7585   1423.78418     768.5074     559.7585
   1423.76892     768.8909     559.4951   1423.76892     768.8909     559.4951
   1423.75366     768.7872     560.0103   1423.75366     768.7872     560.0103
   1423.73840     768.7975     559.5824   1423.73840     768.7975     559.5824
   1423.72314     768.4196     559.0709   1423.72314     768.4196     559.0709
   1423.70789     768.2719     560.1849   1423.70789     768.2719     560.1849
   1423.69263     767.7184     560.2446   1423.69263     767.7184     560.2446
   1423.67737     766.8668     560.5907   1423.67737     766.8668     560.5907
   1423.66211     767.5693     559.6375   1423.66211     767.5693     559.6375
   1423.64685     766.7302     559.6078   1423.64685     766.7302     559.6078
   1423.63159     765.6386     560.0935   1423.63159     765.6386     560.0935
   1423.61633     767.5796     559.8451   1423.61633     767.5796     559.8451
   1423.60107     765.7885     560.2414   1423.60107     765.7885     560.2414
   1423.58582     766.0093     559.4510   1423.58582     766.0093     559.4510
   1423.57056     764.4971     560.2358   1423.57056     764.4971     560.2358
   1423.55530     764.9664     559.7237   1423.55530     764.9664     559.7237
   1423.54004     765.0892     559.4397   1423.54004     765.0892     559.4397
   1423.52478     764.5065     560.3688   1423.52478     764.5065     560.3688
   1423.50952     766.3493     559.8962   1423.50952     766.3493     559.8962
   1423.49426     764.5212     559.1282   1423.49426     764.5212     559.1282
   1423.47900     763.7872     558.0878   1423.47900     763.7872     558.0878
   1423.46375     763.9022     558.4551   1423.46375     763.9022     558.4551
   1423.44849     762.9030     559.0997   1423.44849     762.9030     559.0997
   1423.43323     763.6180     558.5122   1423.43323     763.6180     558.5122
   1423.41797     763.8799     557.9025   1423.41797     763.8799     557.9025
   1423.40271     762.3805     558.0078   1423.40271     762.3805     558.0078
   1423.38745     763.1314     558.7025   1423.38745     763.1314     558.7025
   1423.37219     762.7507     558.4288   1423.37219     762.7507     558.4288
   1423.35693     762.1261     557.3248   1423.35693     762.1261     557.3248
   1423.34167     761.0510     556.8968   1423.34167     761.0510     556.8968
   1423.32642     762.2462     557.6520   1423.32642     762.2462     557.6520
   1423.31116     761.5403     556.6098   1423.31116     761.5403     556.6098
   1423.29590     761.8805     555.7357   1423.29590     761.8805     555.7357
   1423.28064     760.4978     556.0839   1423.28064     760.4978     556.0839
   1423.26538     759.5240     556.1278   1423.26538     759.5240     556.1278
   1423.25012     760.0419     555.5531   1423.25012     760.0419     555.5531
   1423.23486     760.6575     554.4835   1423.23486     760.6575     554.4835
   1423.21960     758.8600     554.7006   1423.21960     758.8600     554.7006
   1423.20435     760.3722     554.5109   1423.20435     760.3722     554.5109
   1423.18909     760.0829     553.2760   1423.18909     760.0829     553.2760
   1423.17383     758.3290     553.1166   1423.17383     758.3290     553.1166
   1423.15857     759.1561     552.7695   1423.15857     759.1561     552.7695
   1423.14331     758.9607     551.9047   1423.14331     758.9607     551.9047
   1423.12805     758.7337     551.6240   1423.12805     758.7337     551.6240
   1423.11279     758.0858     551.0687   1423.11279     758.0858     551.0687
   1423.09753     756.7393     551.7520   1423.09753     756.7393     551.7520
   1423.08228     757.1607     551.4865   1423.08228     757.1607     551.4865
   1423.06702     756.0374     550.1683   1423.06702     756.0374     550.1683
   1423.05176     756.6098     549.4592   1423.05176     756.6098     549.4592
   1423.03650     756.1766     549.3646   1423.03650     756.1766     549.3646
   1423.02124     755.5185     548.2483   1423.02124     755.5185     548.2483
   1423.00598     756.3911     546.8551   1423.00598     756.3911     546.8551
   1422.99072     756.1176     547.1984   1422.99072     756.1176     547.1984
   1422.97546     756.0748     547.0842   1422.97546     756.0748     547.0842
   1422.96021     754.9976     546.4116   1422.96021     754.9976     546.4116
   1422.94495     755.6992     545.7381   1422.94495     755.6992     545.7381
   1422.92969     755.1764     545.1030   1422.92969     755.1764     545.1030
   1422.91443     753.4446     544.2230   1422.91443     753.4446     544.2230
   1422.89917     754.6649     543.7350   1422.89917     754.6649     543.7350
   1422.88391     754.2491     543.1003   1422.88391     754.2491     543.1003
   1422.86865     754.4216     543.1958   1422.86865     754.4216     543.1958
   1422.85339     753.1343     541.2505   1422.85339     753.1343     541.2505
   1422.83813     754.8571     540.4396   1422.83813     754.8571     540.4396
   1422.82288     751.9479     541.0182   1422.82288     751.9479     541.0182
   1422.80762     752.1080     539.1965   1422.80762     752.1080     539.1965
   1422.79236     751.7311     540.2484   1422.79236     751.7311     540.2484
   1422.77710     753.3475     538.1243   1422.77710     753.3475     538.1243
   1422.76184     751.5150     537.4813   1422.76184     751.5150     537.4813
   1422.74658     751.8590     537.0291   1422.74658     751.8590     537.0291
   1422.73132     751.3916     536.7237   1422.73132     751.3916     536.7237
   1422.71606     750.2202     535.2084   1422.71606     750.2202     535.2084
   1422.70081     750.3672     535.4323   1422.70081     750.3672     535.4323
   1422.68555     750.5432     533.9239   1422.68555     750.5432     533.9239
   1422.67029     749.6169     532.8431   1422.67029     749.6169     532.8431
   1422.65503     749.4986     531.1317   1422.65503     749.4986     531.1317
   1422.63977     749.0403     531.1347   1422.63977     749.0403     531.1347
   1422.62451     750.0800     530.2412   1422.62451     750.0800     530.2412
   1422.60925     749.4119     529.8357   1422.60925     749.4119     529.8357
   1422.59399     749.6771     528.9208   1422.59399     749.6771     528.9208
   1422.57874     748.8213     528.4832   1422.57874     748.8213     528.4832
   1422.56348     748.7627     526.9847   1422.56348     748.7627     526.9847
   1422.54822     748.1596     525.9417   1422.54822     748.1596     525.9417
   1422.53296     749.2265     525.6973   1422.53296     749.2265     525.6973
   1422.51770     748.2317     523.8688   1422.51770     748.2317     523.8688
   1422.50244     747.2502     523.2860   1422.50244     747.2502     523.2860
   1422.48718     746.2474     522.0626   1422.48718     746.2474     522.0626
   1422.47192     746.9500     521.5911   1422.47192     746.9500     521.5911
   1422.45667     746.4024     520.7375   1422.45667     746.4024     520.7375
   1422.44141     747.5512     519.9579   1422.44141     747.5512     519.9579
   1422.42615     746.9587     517.9316   1422.42615     746.9587     517.9316
   1422.41089     745.3489     518.3392   1422.41089     745.3489     518.3392
   1422.39563     746.0271     517.4733   1422.39563     746.0271     517.4733
   1422.38037     745.5848     515.3038   1422.38037     745.5848     515.3038
   1422.36511     745.2813     514.1855   1422.36511     745.2813     514.1855
   1422.34985     745.5231     514.3030   1422.34985     745.5231     514.3030
   1422.33459     745.0674     512.0150   1422.33459     745.0674     512.0150
   1422.31934     743.4114     512.0027   1422.31934     743.4114     512.0027
   1422.30408     744.2182     510.3133   1422.30408     744.2182     510.3133
   1422.28882     745.6412     510.0565   1422.28882     745.6412     510.0565
   1422.27356     744.5389     508.3796   1422.27356     744.5389     508.3796
   1422.25830     743.1849     507.5636   1422.25830     743.1849     507.5636
   1422.24304     744.1666     507.0527   1422.24304     744.1666     507.0527
   1422.22778     743.9065     505.0058   1422.22778     743.9065     505.0058
   1422.21252     744.0292     504.3898   1422.21252     744.0292     504.3898
   1422.19727     743.0709     503.9695   1422.19727     743.0709     503.9695
   1422.18201     742.3176     502.9674   1422.18201     742.3176     502.9674
   1422.16675     742.6443     501.6046   1422.16675     742.6443     501.6046
   1422.15149     742.5435     500.3353   1422.15149     742.5435     500.3353
   1422.13623     741.1931     499.7982   1422.13623     741.1931     499.7982
   1422.12097     742.0796     498.6629   1422.12097     742.0796     498.6629
   1422.10571     741.9001     497.9555   1422.10571     741.9001     497.9555
   1422.09045     742.5495     496.7032   1422.09045     742.5495     496.7032
   1422.07520     740.0458     495.1188   1422.07520     740.0458     495.1188
   1422.05994     741.2360     493.1898   1422.05994     741.2360     493.1898
   1422.04468     741.7159     493.3852   1422.04468     741.7159     493.3852
   1422.02942     740.5604     492.4202   1422.02942     740.5604     492.4202
   1422.01416     741.3090     491.1234   1422.01416     741.3090     491.1234
   1421.99890     739.7086     489.0357   1421.99890     739.7086     489.0357
   1421.98364     740.2708     489.4731   1421.98364     740.2708     489.4731
   1421.96838     738.8998     487.7846   1421.96838     738.8998     487.7846
   1421.95312     739.2891     485.7858   1421.95312     739.2891     485.7858
   1421.93787     738.5018     485.5397   1421.93787     738.5018     485.5397
   1421.92261     739.3101     484.7099   1421.92261     739.3101     484.7099
   1421.90735     739.5796     483.5195   1421.90735     739.5796     483.5195
   1421.89209     738.8530     481.6631   1421.89209     738.8530     481.6631
   1421.87683     738.4645     480.7850   1421.87683     738.4645     480.7850
   1421.86157     737.1188     480.3513   1421.86157     737.1188     480.3513
   1421.84631     738.8144     479.3852   1421.84631     738.8144     479.3852
   1421.83105     737.8170     478.1767   1421.83105     737.8170     478.1767
   1421.81580     737.8591     477.1225   1421.81580     737.8591     477.1225
   1421.80054     737.1376     475.7122   1421.80054     737.1376     475.7122
   1421.78528     736.8325     473.8452   1421.78528     736.8325     473.8452
   1421.77002     737.7932     473.6003   1421.77002     737.7932     473.6003
   1421.75476     736.2334     471.9902   1421.75476     736.2334     471.9902
   1421.73950     736.6604     471.0202   1421.73950     736.6604     471.0202
   1421.72424     736.1715     470.5824   1421.72424     736.1715     470.5824
   1421.70898     736.1781     469.3806   1421.70898     736.1781     469.3806
   1421.69373     734.7672     467.9370   1421.69373     734.7672     467.9370
   1421.67847     736.4593     466.5106   1421.67847     736.4593     466.5106
   1421.66321     734.9108     465.7242   1421.66321     734.9108     465.7242
   1421.64795     735.4739     464.7570   1421.64795     735.4739     464.7570
   1421.63269     735.9776     463.4266   1421.63269     735.9776     463.4266
   1421.61743     735.7877     463.0990   1421.61743     735.7877     463.0990
   1421.60217     734.4604     461.5451   1421.60217     734.4604     461.5451
   1421.58691     734.3849     460.0587   1421.58691     734.3849     460.0587
   1421.57166     735.2046     459.0976   1421.57166     735.2046     459.0976
   1421.55640     734.8838     457.7112   1421.55640     734.8838     457.7112
   1421.54114     735.4847     457.1412   1421.54114     735.4847     457.1412
   1421.52588     733.6345     455.7097   1421.52588     733.6345     455.7097
   1421.51062     734.9313     454.5175   1421.51062     734.9313     454.5175
   1421.49536     734.2972     453.1902   1421.49536     734.2972     453.1902
   1421.48010     733.7725     452.1605   1421.48010     733.7725     452.1605
   1421.46484     732.7538     451.6026   1421.46484     732.7538     451.6026
   1421.44958     733.4747     450.2356   1421.44958     733.4747     450.2356
   1421.43433     732.7179     448.6325   1421.43433     732.7179     448.6325
   1421.41907     733.2570     448.5153   1421.41907     733.2570     448.5153
   1421.40381     732.1159     447.4580   1421.40381     732.1159     447.4580
   1421.38855     731.7034     446.1632   1421.38855     731.7034     446.1632
   1421.37329     733.1933     444.7018   1421.37329     733.1933     444.7018
   1421.35803     732.7169     443.7036   1421.35803     732.7169     443.7036
   1421.34277     732.1019     443.1013   1421.34277     732.1019     443.1013
   1421.32751     733.2862     442.1252   1421.32751     733.2862     442.1252
   1421.31226     732.5297     441.4919   1421.31226     732.5297     441.4919
   1421.29700     732.0848     439.6789   1421.29700     732.0848     439.6789
   1421.28174     732.3949     438.7043   1421.28174     732.3949     438.7043
   1421.26648     732.6017     437.7530   1421.26648     732.6017     437.7530
   1421.25122     733.2557     437.4527   1421.25122     733.2557     437.4527
   1421.23596     734.3510     436.7006   1421.23596     734.3510     436.7006
   1421.22070     734.4470     436.7697   1421.22070     734.4470     436.7697
   1421.20544     735.7068     436.3924   1421.20544     735.7068     436.3924
   1421.19019     739.7807     436.8874   1421.19019     739.7807     436.8874
   1421.17493     743.0278     438.8936   1421.17493     743.0278     438.8936
   1421.15967     750.2188     441.6930   1421.15967     750.2188     441.6930
   1421.14441     760.4958     446.0316   1421.14441     760.4958     446.0316
   1421.12915     775.1842     453.7054   1421.12915     775.1842     453.7054
   1421.11389     794.0046     463.4487   1421.11389     794.0046     463.4487
   1421.09863     816.7901     475.5945   1421.09863     816.7901     475.5945
   1421.08337     839.4932     487.2421   1421.08337     839.4932     487.2421
   1421.06812     858.3813     496.3994   1421.06812     858.3813     496.3994
   1421.05286     873.0983     503.4793   1421.05286     873.0983     503.4793
   1421.03760     891.4858     513.4409   1421.03760     891.4858     513.4409
   1421.02234     914.2515     525.6431   1421.02234     914.2515     525.6431
   1421.00708     942.4554     540.0040   1421.00708     942.4554     540.0040
   1420.99182     981.8245     561.0064   1420.99182     981.8245     561.0064
   1420.97656    1047.7051     596.0883   1420.97656    1047.7051     596.0883
   1420.96130    1134.6202     641.9478   1420.96130    1134.6202     641.9478
   1420.94604    1207.5681     681.7512   1420.94604    1207.5681     681.7512
   1420.93079    1281.0481     720.1488   1420.93079    1281.0481     720.1488
   1420.91553    1414.0917     790.3640   1420.91553    1414.0917     790.3640
   1420.90027    1526.6504     850.2087   1420.90027    1526.6504     850.2087
   1420.88501    1456.3306     810.8815   1420.88501    1456.3306     810.8815
   1420.86975    1294.0527     721.9946   1420.86975    1294.0527     721.9946
   1420.85449    1218.6790     678.7775   1420.85449    1218.6790     678.7775
   1420.83923    1277.5938     708.4637   1420.83923    1277.5938     708.4637
   1420.82397    1433.5280     790.6011   1420.82397    1433.5280     790.6011
   1420.80872    1588.0280     873.4213   1420.80872    1588.0280     873.4213
   1420.79346    1708.2345     936.0744   1420.79346    1708.2345     936.0744
   1420.77820    1847.7524    1005.3503   1420.77820    1847.7524    1005.3503
   1420.76294    1967.9659    1070.1698   1420.76294    1967.9659    1070.1698
   1420.74768    1883.6674    1026.0320   1420.74768    1883.6674    1026.0320
   1420.73242    1478.7078     808.9891   1420.73242    1478.7078     808.9891
   1420.71716    1176.1417     642.6913   1420.71716    1176.1417     642.6913
   1420.70190    1163.3353     634.2343   1420.70190    1163.3353     634.2343
   1420.68665    1222.4858     665.4535   1420.68665    1222.4858     665.4535
   1420.67139    1480.4495     799.0355   1420.67139    1480.4495     799.0355
   1420.65613    1778.2710     954.5492   1420.65613    1778.2710     954.5492
   1420.64087    1864.2434     997.8868   1420.64087    1864.2434     997.8868
   1420.62561    1769.4608     945.4669   1420.62561    1769.4608     945.4669
   1420.61035    1599.8549     855.5816   1420.61035    1599.8549     855.5816
   1420.59509    1418.6849     760.1618   1420.59509    1418.6849     760.1618
   1420.57983    1292.3091     692.4148   1420.57983    1292.3091     692.4148
   1420.56458    1267.8677     677.6847   1420.56458    1267.8677     677.6847
   1420.54932    1364.6829     727.5561   1420.54932    1364.6829     727.5561
   1420.53406    1487.5079     789.6204   1420.53406    1487.5079     789.6204
   1420.51880    1524.0641     805.8168   1420.51880    1524.0641     805.8168
   1420.50354    1375.2101     726.2872   1420.50354    1375.2101     726.2872
   1420.48828    1189.9707     628.6013   1420.48828    1189.9707     628.6013
   1420.47302    1039.0829     550.0709   1420.47302    1039.0829     550.0709
   1420.45776     908.9274     482.0567   1420.45776     908.9274     482.0567
   1420.44250     825.4153     437.1678   1420.44250     825.4153     437.1678
   1420.42725     778.5461     413.0747   1420.42725     778.5461     413.0747
   1420.41199     757.4528     401.1450   1420.41199     757.4528     401.1450
   1420.39673     746.1468     395.1472   1420.39673     746.1468     395.1472
   1420.38147     741.1811     391.5546   1420.38147     741.1811     391.5546
   1420.36621     739.6931     388.9746   1420.36621     739.6931     388.9746
   1420.35095     736.8270     387.0898   1420.35095     736.8270     387.0898
   1420.33569     735.3900     385.6131   1420.33569     735.3900     385.6131
   1420.32043     734.6832     384.6927   1420.32043     734.6832     384.6927
   1420.30518     734.0054     383.9080   1420.30518     734.0054     383.9080
   1420.28992     734.2495     382.5589   1420.28992     734.2495     382.5589
   1420.27466     734.5989     381.9129   1420.27466     734.5989     381.9129
   1420.25940     734.9241     381.5374   1420.25940     734.9241     381.5374
   1420.24414     734.0697     381.3472   1420.24414     734.0697     381.3472
   1420.22888     733.5220     380.3679   1420.22888     733.5220     380.3679
   1420.21362     732.9410     379.4539   1420.21362     732.9410     379.4539
   1420.19836     730.2890     378.2318   1420.19836     730.2890     378.2318
   1420.18311     729.3099     376.7739   1420.18311     729.3099     376.7739
   1420.16785     729.2434     374.9036   1420.16785     729.2434     374.9036
   1420.15259     728.0253     374.1922   1420.15259     728.0253     374.1922
   1420.13733     727.3975     372.9263   1420.13733     727.3975     372.9263
   1420.12207     727.0900     372.9000   1420.12207     727.0900     372.9000
   1420.10681     726.3270     371.8296   1420.10681     726.3270     371.8296
   1420.09155     726.1943     370.7065   1420.09155     726.1943     370.7065
   1420.07629     725.2878     369.7994   1420.07629     725.2878     369.7994
   1420.06104     724.7953     369.7243   1420.06104     724.7953     369.7243
   1420.04578     724.0463     368.2684   1420.04578     724.0463     368.2684
   1420.03052     724.6494     368.0737   1420.03052     724.6494     368.0737
   1420.01526     724.5964     368.2256   1420.01526     724.5964     368.2256
   1420.00000     725.8188     368.8179   1420.00000     725.8188     368.8179
   1419.98474     727.0411     369.4101   1419.98474     727.0411     369.4101
   1419.96948     726.9690     367.3425   1419.96948     726.9690     367.3425
   1419.95422     724.4238     365.5117   1419.95422     724.4238     365.5117
   1419.93896     724.3507     364.5633   1419.93896     724.3507     364.5633
   1419.92371     724.4294     364.3522   1419.92371     724.4294     364.3522
   1419.90845     724.7283     364.2218   1419.90845     724.7283     364.2218
   1419.89319     726.3051     363.6065   1419.89319     726.3051     363.6065
   1419.87793     727.3842     363.0328   1419.87793     727.3842     363.0328
   1419.86267     724.8599     363.0163   1419.86267     724.8599     363.0163
   1419.84741     725.5859     362.6650   1419.84741     725.5859     362.6650
   1419.83215     726.3360     361.5494   1419.83215     726.3360     361.5494
   1419.81689     726.5613     361.8541   1419.81689     726.5613     361.8541
   1419.80164     727.3910     360.8427   1419.80164     727.3910     360.8427
   1419.78638     728.1209     360.7877   1419.78638     728.1209     360.7877
   1419.77112     727.2979     360.6413   1419.77112     727.2979     360.6413
   1419.75586     728.1313     360.2995   1419.75586     728.1313     360.2995
   1419.74060     728.3795     359.3856   1419.74060     728.3795     359.3856
   1419.72534     728.9117     359.4660   1419.72534     728.9117     359.4660
   1419.71008     728.8217     359.2859   1419.71008     728.8217     359.2859
   1419.69482     728.6663     358.9296   1419.69482     728.6663     358.9296
   1419.67957     729.4422     358.3472   1419.67957     729.4422     358.3472
   1419.66431     729.6091     358.2300   1419.66431     729.6091     358.2300
   1419.64905     730.4391     358.6832   1419.64905     730.4391     358.6832
   1419.63379     730.2052     358.1066   1419.63379     730.2052     358.1066
   1419.61853     731.3372     357.7690   1419.61853     731.3372     357.7690
   1419.60327     732.4313     357.6320   1419.60327     732.4313     357.6320
   1419.58801     732.1989     357.2894   1419.58801     732.1989     357.2894
   1419.57275     732.3599     357.3329   1419.57275     732.3599     357.3329
   1419.55750     732.9008     357.0559   1419.55750     732.9008     357.0559
   1419.54224     732.7183     356.6840   1419.54224     732.7183     356.6840
   1419.52698     732.3374     356.6168   1419.52698     732.3374     356.6168
   1419.51172     732.3248     355.9971   1419.51172     732.3248     355.9971
   1419.49646     733.6008     356.0611   1419.49646     733.6008     356.0611
   1419.48120     733.8160     356.0096   1419.48120     733.8160     356.0096
   1419.46594     735.3683     355.6156   1419.46594     735.3683     355.6156
   1419.45068     734.2432     355.8874   1419.45068     734.2432     355.8874
   1419.43542     734.3594     355.7678   1419.43542     734.3594     355.7678
   1419.42017     736.7876     355.6338   1419.42017     736.7876     355.6338
   1419.40491     736.0195     355.2345   1419.40491     736.0195     355.2345
   1419.38965     735.8400     354.8188   1419.38965     735.8400     354.8188
   1419.37439     736.2389     355.1104   1419.37439     736.2389     355.1104
   1419.35913     736.0385     355.4381   1419.35913     736.0385     355.4381
   1419.34387     737.8304     354.6263   1419.34387     737.8304     354.6263
   1419.32861     737.4214     355.3164   1419.32861     737.4214     355.3164
   1419.31335     737.8935     355.3988   1419.31335     737.8935     355.3988
   1419.29810     738.8705     355.3415   1419.29810     738.8705     355.3415
   1419.28284     739.3800     355.0687   1419.28284     739.3800     355.0687
   1419.26758     739.9846     354.9665   1419.26758     739.9846     354.9665
   1419.25232     738.8716     354.9315   1419.25232     738.8716     354.9315
   1419.23706     740.7054     354.1928   1419.23706     740.7054     354.1928
   1419.22180     741.0948     355.2041   1419.22180     741.0948     355.2041
   1419.20654     742.0787     354.0948   1419.20654     742.0787     354.0948
   1419.19128     741.6068     355.5508   1419.19128     741.6068     355.5508
   1419.17603     742.2496     354.6026   1419.17603     742.2496     354.6026
   1419.16077     743.3080     354.7386   1419.16077     743.3080     354.7386
   1419.14551     743.0498     354.8926   1419.14551     743.0498     354.8926
   1419.13025     743.2442     354.4996   1419.13025     743.2442     354.4996
   1419.11499     744.6488     355.1411   1419.11499     744.6488     355.1411
   1419.09973     744.4652     355.0855   1419.09973     744.4652     355.0855
   1419.08447     744.7567     355.1254   1419.08447     744.7567     355.1254
   1419.06921     745.2788     355.6382   1419.06921     745.2788     355.6382
   1419.05396     745.1558     354.8643   1419.05396     745.1558     354.8643
   1419.03870     745.9938     355.6665   1419.03870     745.9938     355.6665
   1419.02344     747.2907     355.6761   1419.02344     747.2907     355.6761
   1419.00818     749.1570     355.9499   1419.00818     749.1570     355.9499
   1418.99292     748.6478     355.8189   1418.99292     748.6478     355.8189
   1418.97766     748.9775     356.2524   1418.97766     748.9775     356.2524
   1418.96240     750.1221     355.9402   1418.96240     750.1221     355.9402
   1418.94714     750.0479     355.8587   1418.94714     750.0479     355.8587
   1418.93188     750.0551     356.3930   1418.93188     750.0551     356.3930
   1418.91663     750.7640     356.5168   1418.91663     750.7640     356.5168
   1418.90137     751.9362     356.7634   1418.90137     751.9362     356.7634
   1418.88611     751.9116     356.6018   1418.88611     751.9116     356.6018
   1418.87085     752.9728     357.5254   1418.87085     752.9728     357.5254
   1418.85559     753.2642     357.0814   1418.85559     753.2642     357.0814
   1418.84033     754.5875     357.6648   1418.84033     754.5875     357.6648
   1418.82507     754.6400     357.8672   1418.82507     754.6400     357.8672
   1418.80981     753.7413     357.6456   1418.80981     753.7413     357.6456
   1418.79456     755.9280     357.2677   1418.79456     755.9280     357.2677
   1418.77930     757.1699     358.1740   1418.77930     757.1699     358.1740
   1418.76404     756.9179     358.3854   1418.76404     756.9179     358.3854
   1418.74878     757.9918     358.6184   1418.74878     757.9918     358.6184
   1418.73352     757.2623     359.1047   1418.73352     757.2623     359.1047
   1418.71826     757.6240     359.6961   1418.71826     757.6240     359.6961
   1418.70300     758.4589     359.8014   1418.70300     758.4589     359.8014
   1418.68774     760.4018     359.9877   1418.68774     760.4018     359.9877
   1418.67249     761.6807     360.1892   1418.67249     761.6807     360.1892
   1418.65723     762.9969     360.8588   1418.65723     762.9969     360.8588
   1418.64197     761.9321     360.9201   1418.64197     761.9321     360.9201
   1418.62671     764.3157     361.2410   1418.62671     764.3157     361.2410
   1418.61145     762.7523     360.8864   1418.61145     762.7523     360.8864
   1418.59619     763.5717     361.9205   1418.59619     763.5717     361.9205
   1418.58093     764.6363     362.8755   1418.58093     764.6363     362.8755
   1418.56567     765.4976     363.1129   1418.56567     765.4976     363.1129
   1418.55042     765.4976     363.1656   1418.55042     765.4976     363.1656
   1418.53516     767.7897     363.1047   1418.53516     767.7897     363.1047
   1418.51990     766.9204     363.4233   1418.51990     766.9204     363.4233
   1418.50464     768.9176     364.6633   1418.50464     768.9176     364.6633
   1418.48938     769.9040     364.2079   1418.48938     769.9040     364.2079
   1418.47412     768.9976     364.9368   1418.47412     768.9976     364.9368
   1418.45886     770.6003     365.5010   1418.45886     770.6003     365.5010
   1418.44360     772.0651     365.0985   1418.44360     772.0651     365.0985
   1418.42834     771.7006     366.1314   1418.42834     771.7006     366.1314
   1418.41309     772.7362     365.7592   1418.41309     772.7362     365.7592
   1418.39783     773.8470     367.0092   1418.39783     773.8470     367.0092
   1418.38257     775.1094     367.4131   1418.38257     775.1094     367.4131
   1418.36731     775.2578     367.8296   1418.36731     775.2578     367.8296
   1418.35205     777.0287     367.5301   1418.35205     777.0287     367.5301
   1418.33679     776.5201     368.6887   1418.33679     776.5201     368.6887
   1418.32153     778.8701     368.7798   1418.32153     778.8701     368.7798
   1418.30627     778.4461     369.4004   1418.30627     778.4461     369.4004
   1418.29102     779.0610     369.9046   1418.29102     779.0610     369.9046
   1418.27576     780.0010     370.1662   1418.27576     780.0010     370.1662
   1418.26050     781.7905     370.5525   1418.26050     781.7905     370.5525
   1418.24524     782.1064     371.3860   1418.24524     782.1064     371.3860
   1418.22998     782.5566     371.5225   1418.22998     782.5566     371.5225
   1418.21472     784.5076     371.8197   1418.21472     784.5076     371.8197
   1418.19946     785.7605     373.5497   1418.19946     785.7605     373.5497
   1418.18420     786.1749     373.6839   1418.18420     786.1749     373.6839
   1418.16895     786.6287     373.6268   1418.16895     786.6287     373.6268
   1418.15369     787.5189     374.1482   1418.15369     787.5189     374.1482
   1418.13843     787.1931     374.8443   1418.13843     787.1931     374.8443
   1418.12317     788.7474     375.2119   1418.12317     788.7474     375.2119
   1418.10791     790.3315     375.7898   1418.10791     790.3315     375.7898
   1418.09265     789.7734     376.4150   1418.09265     789.7734     376.4150
   1418.07739     791.2443     376.1430   1418.07739     791.2443     376.1430
   1418.06213     790.7750     377.2051   1418.06213     790.7750     377.2051
   1418.04688     793.1364     376.9867   1418.04688     793.1364     376.9867
   1418.03162     794.0366     378.5456   1418.03162     794.0366     378.5456
   1418.01636     794.6423     378.5344   1418.01636     794.6423     378.5344
   1418.00110     795.5195     379.6424   1418.00110     795.5195     379.6424
   1417.98584     797.0530     379.5970   1417.98584     797.0530     379.5970
   1417.97058     796.7532     380.1324   1417.97058     796.7532     380.1324
   1417.95532     799.1475     381.0892   1417.95532     799.1475     381.0892
   1417.94006     799.6578     381.7805   1417.94006     799.6578     381.7805
   1417.92480     801.2732     381.6563   1417.92480     801.2732     381.6563
   1417.90955     802.2051     382.7854   1417.90955     802.2051     382.7854
   1417.89429     802.1841     382.6251   1417.89429     802.1841     382.6251
   1417.87903     803.1591     383.7250   1417.87903     803.1591     383.7250
   1417.86377     803.3666     383.9511   1417.86377     803.3666     383.9511
   1417.84851     804.8389     384.5099   1417.84851     804.8389     384.5099
   1417.83325     804.4404     385.4344   1417.83325     804.4404     385.4344
   1417.81799     806.3098     385.5866   1417.81799     806.3098     385.5866
   1417.80273     808.8995     386.4280   1417.80273     808.8995     386.4280
   1417.78748     809.0383     386.7539   1417.78748     809.0383     386.7539
   1417.77222     809.5576     387.6096   1417.77222     809.5576     387.6096
   1417.75696     811.8718     388.0966   1417.75696     811.8718     388.0966
   1417.74170     813.8736     389.2479   1417.74170     813.8736     389.2479
   1417.72644     812.8059     389.1192   1417.72644     812.8059     389.1192
   1417.71118     815.5144     389.7210   1417.71118     815.5144     389.7210
   1417.69592     815.2989     390.2684   1417.69592     815.2989     390.2684
   1417.68066     816.2382     391.1537   1417.68066     816.2382     391.1537
   1417.66541     817.8806     391.6079   1417.66541     817.8806     391.6079
   1417.65015     817.9838     392.5391   1417.65015     817.9838     392.5391
   1417.63489     819.9437     392.3034   1417.63489     819.9437     392.3034
   1417.61963     820.8398     393.7765   1417.61963     820.8398     393.7765
   1417.60437     819.9001     393.9324   1417.60437     819.9001     393.9324
   1417.58911     821.9825     393.7162   1417.58911     821.9825     393.7162
   1417.57385     822.6595     394.2600   1417.57385     822.6595     394.2600
   1417.55859     823.7109     395.7072   1417.55859     823.7109     395.7072
   1417.54333     824.4141     396.0680   1417.54333     824.4141     396.0680
   1417.52808     826.3019     397.2092   1417.52808     826.3019     397.2092
   1417.51282     826.6434     396.5193   1417.51282     826.6434     396.5193
   1417.49756     827.4726     398.2866   1417.49756     827.4726     398.2866
   1417.48230     829.9802     398.5555   1417.48230     829.9802     398.5555
   1417.46704     830.6708     398.8249   1417.46704     830.6708     398.8249
   1417.45178     831.7056     399.4765   1417.45178     831.7056     399.4765
   1417.43652     832.1106     400.3970   1417.43652     832.1106     400.3970
   1417.42126     831.1423     400.8102   1417.42126     831.1423     400.8102
   1417.40601     833.3986     401.4963   1417.40601     833.3986     401.4963
   1417.39075     834.8148     402.3192   1417.39075     834.8148     402.3192
   1417.37549     835.2919     402.7910   1417.37549     835.2919     402.7910
   1417.36023     836.8123     403.3010   1417.36023     836.8123     403.3010
   1417.34497     838.2184     403.6929   1417.34497     838.2184     403.6929
   1417.32971     839.7307     403.6342   1417.32971     839.7307     403.6342
   1417.31445     839.5345     404.5462   1417.31445     839.5345     404.5462
   1417.29919     840.5651     405.1889   1417.29919     840.5651     405.1889
   1417.28394     841.3282     405.9442   1417.28394     841.3282     405.9442
   1417.26868     841.4654     406.5370   1417.26868     841.4654     406.5370
   1417.25342     844.0193     407.1492   1417.25342     844.0193     407.1492
   1417.23816     844.3997     408.3211   1417.23816     844.3997     408.3211
   1417.22290     845.0714     408.0087   1417.22290     845.0714     408.0087
   1417.20764     846.9031     408.4285   1417.20764     846.9031     408.4285
   1417.19238     847.1706     408.8560   1417.19238     847.1706     408.8560
   1417.17712     848.6754     409.7722   1417.17712     848.6754     409.7722
   1417.16187     847.9662     410.1192   1417.16187     847.9662     410.1192
   1417.14661     848.9558     410.5947   1417.14661     848.9558     410.5947
   1417.13135     849.6993     411.0494   1417.13135     849.6993     411.0494
   1417.11609     851.7029     411.4478   1417.11609     851.7029     411.4478
   1417.10083     852.5866     412.2591   1417.10083     852.5866     412.2591
   1417.08557     853.5275     413.0716   1417.08557     853.5275     413.0716
   1417.07031     852.5967     413.1133   1417.07031     852.5967     413.1133
   1417.05505     854.0845     414.2057   1417.05505     854.0845     414.2057
   1417.03979     855.4439     414.5761   1417.03979     855.4439     414.5761
   1417.02454     856.4962     414.8530   1417.02454     856.4962     414.8530
   1417.00928     856.8573     414.4316   1417.00928     856.8573     414.4316
   1416.99402     858.0162     416.0242   1416.99402     858.0162     416.0242
   1416.97876     856.9385     416.5134   1416.97876     856.9385     416.5134
   1416.96350     861.1375     416.5882   1416.96350     861.1375     416.5882
   1416.94824     858.7634     417.0399   1416.94824     858.7634     417.0399
   1416.93298     860.1169     417.2188   1416.93298     860.1169     417.2188
   1416.91772     859.7037     417.8822   1416.91772     859.7037     417.8822
   1416.90247     861.2217     418.5451   1416.90247     861.2217     418.5451
   1416.88721     862.8765     418.8098   1416.88721     862.8765     418.8098
   1416.87195     863.3860     419.1844   1416.87195     863.3860     419.1844
   1416.85669     864.6712     419.4993   1416.85669     864.6712     419.4993
   1416.84143     863.6221     419.7840   1416.84143     863.6221     419.7840
   1416.82617     864.4789     420.7018   1416.82617     864.4789     420.7018
   1416.81091     865.3026     420.6071   1416.81091     865.3026     420.6071
   1416.79565     866.1344     421.4386   1416.79565     866.1344     421.4386
   1416.78040     867.0923     421.7167   1416.78040     867.0923     421.7167
   1416.76514     867.8940     421.5265   1416.76514     867.8940     421.5265
   1416.74988     867.3997     420.7562   1416.74988     867.3997     420.7562
   1416.73462     868.2313     422.8654   1416.73462     868.2313     422.8654
   1416.71936     867.8553     422.5575   1416.71936     867.8553     422.5575
   1416.70410     867.3297     423.3715   1416.70410     867.3297     423.3715
   1416.68884     870.0026     423.1423   1416.68884     870.0026     423.1423
   1416.67358     869.7103     422.9869   1416.67358     869.7103     422.9869
   1416.65833     870.8925     423.2962   1416.65833     870.8925     423.2962
   1416.64307     869.7257     424.1579   1416.64307     869.7257     424.1579
   1416.62781     870.6927     424.7586   1416.62781     870.6927     424.7586
   1416.61255     872.0993     423.9451   1416.61255     872.0993     423.9451
   1416.59729     871.1801     424.7135   1416.59729     871.1801     424.7135
   1416.58203     872.9926     424.6815   1416.58203     872.9926     424.6815
   1416.56677     872.3121     425.0601   1416.56677     872.3121     425.0601
   1416.55151     872.0501     425.1814   1416.55151     872.0501     425.1814
   1416.53625     873.7083     425.4188   1416.53625     873.7083     425.4188
   1416.52100     871.5942     425.6984   1416.52100     871.5942     425.6984
   1416.50574     872.5245     425.6674   1416.50574     872.5245     425.6674
   1416.49048     872.3370     425.6914   1416.49048     872.3370     425.6914
   1416.47522     872.4633     426.0445   1416.47522     872.4633     426.0445
   1416.45996     872.5977     426.2692   1416.45996     872.5977     426.2692
   1416.44470     872.2454     425.5089   1416.44470     872.2454     425.5089
   1416.42944     872.8110     425.8050   1416.42944     872.8110     425.8050
   1416.41418     873.0241     425.7406   1416.41418     873.0241     425.7406
   1416.39893     873.8993     426.3425   1416.39893     873.8993     426.3425
   1416.38367     874.1334     426.7463   1416.38367     874.1334     426.7463
   1416.36841     873.9823     425.6744   1416.36841     873.9823     425.6744
   1416.35315     873.2975     426.9333   1416.35315     873.2975     426.9333
   1416.33789     872.5405     426.8366   1416.33789     872.5405     426.8366
   1416.32263     872.4412     426.6054   1416.32263     872.4412     426.6054
   1416.30737     872.6094     426.0150   1416.30737     872.6094     426.0150
   1416.29211     872.1000     426.3839   1416.29211     872.1000     426.3839
   1416.27686     872.9355     426.0862   1416.27686     872.9355     426.0862
   1416.26160     871.4503     426.7008   1416.26160     871.4503     426.7008
   1416.24634     871.7813     426.4809   1416.24634     871.7813     426.4809
   1416.23108     872.1351     426.9634   1416.23108     872.1351     426.9634
   1416.21582     872.2593     426.3676   1416.21582     872.2593     426.3676
   1416.20056     871.1147     426.9894   1416.20056     871.1147     426.9894
   1416.18530     871.1357     426.3596   1416.18530     871.1357     426.3596
   1416.17004     870.0576     425.9592   1416.17004     870.0576     425.9592
   1416.15479     871.5679     425.5631   1416.15479     871.5679     425.5631
   1416.13953     869.9433     425.9996   1416.13953     869.9433     425.9996
   1416.12427     870.7169     426.1345   1416.12427     870.7169     426.1345
   1416.10901     869.4879     425.9108   1416.10901     869.4879     425.9108
   1416.09375     868.2476     424.9461   1416.09375     868.2476     424.9461
   1416.07849     867.0138     425.9995   1416.07849     867.0138     425.9995
   1416.06323     868.7939     425.3055   1416.06323     868.7939     425.3055
   1416.04797     867.4170     424.6247   1416.04797     867.4170     424.6247
   1416.03271     868.2109     425.2570   1416.03271     868.2109     425.2570
   1416.01746     868.1172     425.1618   1416.01746     868.1172     425.1618
   1416.00220     867.4708     425.0070   1416.00220     867.4708     425.0070
   1415.98694     866.4243     425.2753   1415.98694     866.4243     425.2753
   1415.97168     865.0130     424.3677   1415.97168     865.0130     424.3677
   1415.95642     864.9103     423.9802   1415.95642     864.9103     423.9802
   1415.94116     864.1760     424.1014   1415.94116     864.1760     424.1014
   1415.92590     864.2843     423.9393   1415.92590     864.2843     423.9393
   1415.91064     863.6566     424.4243   1415.91064     863.6566     424.4243
   1415.89539     862.2400     423.8700   1415.89539     862.2400     423.8700
   1415.88013     860.4757     423.5375   1415.88013     860.4757     423.5375
   1415.86487     861.2065     423.1401   1415.86487     861.2065     423.1401
   1415.84961     862.4315     422.9948   1415.84961     862.4315     422.9948
   1415.83435     860.3547     422.9263   1415.83435     860.3547     422.9263
   1415.81909     861.0676     423.0583   1415.81909     861.0676     423.0583
   1415.80383     859.6111     422.7333   1415.80383     859.6111     422.7333
   1415.78857     858.3596     422.3402   1415.78857     858.3596     422.3402
   1415.77332     858.3697     421.4247   1415.77332     858.3697     421.4247
   1415.75806     855.6259     421.7561   1415.75806     855.6259     421.7561
   1415.74280     855.7578     421.2073   1415.74280     855.7578     421.2073
   1415.72754     854.8090     421.6005   1415.72754     854.8090     421.6005
   1415.71228     854.4245     421.2293   1415.71228     854.4245     421.2293
   1415.69702     852.8174     421.9027   1415.69702     852.8174     421.9027
   1415.68176     851.6490     420.6660   1415.68176     851.6490     420.6660
   1415.66650     851.4257     420.9345   1415.66650     851.4257     420.9345
   1415.65125     852.0419     419.8924   1415.65125     852.0419     419.8924
   1415.63599     851.3772     420.2786   1415.63599     851.3772     420.2786
   1415.62073     848.9317     419.6179   1415.62073     848.9317     419.6179
   1415.60547     848.8999     419.0350   1415.60547     848.8999     419.0350
   1415.59021     847.6328     419.0442   1415.59021     847.6328     419.0442
   1415.57495     847.5107     418.8725   1415.57495     847.5107     418.8725
   1415.55969     844.3748     417.6818   1415.55969     844.3748     417.6818
   1415.54443     844.1675     418.3170   1415.54443     844.1675     418.3170
   1415.52917     843.0646     418.8064   1415.52917     843.0646     418.8064
   1415.51392     842.7546     417.6184   1415.51392     842.7546     417.6184
   1415.49866     841.7522     417.2596   1415.49866     841.7522     417.2596
   1415.48340     841.1096     416.6502   1415.48340     841.1096     416.6502
   1415.46814     840.6852     417.0408   1415.46814     840.6852     417.0408
   1415.45288     837.9359     416.5709   1415.45288     837.9359     416.5709
   1415.43762     836.4847     416.1500   1415.43762     836.4847     416.1500
   1415.42236     837.4655     415.9780   1415.42236     837.4655     415.9780
   1415.40710     834.4704     415.1088   1415.40710     834.4704     415.1088
   1415.39185     832.4204     415.4397   1415.39185     832.4204     415.4397
   1415.37659     832.5021     415.0048   1415.37659     832.5021     415.0048
   1415.36133     830.9175     414.1500   1415.36133     830.9175     414.1500
   1415.34607     830.9347     413.9831   1415.34607     830.9347     413.9831
   1415.33081     827.8190     413.5862   1415.33081     827.8190     413.5862
   1415.31555     826.8114     413.0960   1415.31555     826.8114     413.0960
   1415.30029     826.8629     413.0418   1415.30029     826.8629     413.0418
   1415.28503     826.2212     411.8861   1415.28503     826.2212     411.8861
   1415.26978     824.9175     411.7475   1415.26978     824.9175     411.7475
   1415.25452     823.2430     411.4146   1415.25452     823.2430     411.4146
   1415.23926     820.1472     411.0871   1415.23926     820.1472     411.0871
   1415.22400     818.5411     410.2466   1415.22400     818.5411     410.2466
   1415.20874     818.0292     410.1498   1415.20874     818.0292     410.1498
   1415.19348     816.0723     410.0817   1415.19348     816.0723     410.0817
   1415.17822     814.8550     410.1507   1415.17822     814.8550     410.1507
   1415.16296     813.5711     408.6680   1415.16296     813.5711     408.6680
   1415.14771     812.0930     408.4550   1415.14771     812.0930     408.4550
   1415.13245     810.1156     408.4116   1415.13245     810.1156     408.4116
   1415.11719     809.0897     408.2766   1415.11719     809.0897     408.2766
   1415.10193     807.6484     407.4578   1415.10193     807.6484     407.4578
   1415.08667     805.4167     406.6971   1415.08667     805.4167     406.6971
   1415.07141     804.9332     406.3511   1415.07141     804.9332     406.3511
   1415.05615     802.9330     405.6056   1415.05615     802.9330     405.6056
   1415.04089     800.2994     405.4481   1415.04089     800.2994     405.4481
   1415.02563     798.6724     405.3510   1415.02563     798.6724     405.3510
   1415.01038     795.8982     404.4865   1415.01038     795.8982     404.4865
   1414.99512     794.1140     403.8769   1414.99512     794.1140     403.8769
   1414.97986     792.3422     403.2460   1414.97986     792.3422     403.2460
   1414.96460     791.1201     403.0918   1414.96460     791.1201     403.0918
   1414.94934     789.6357     402.9861   1414.94934     789.6357     402.9861
   1414.93408     787.6133     401.4071   1414.93408     787.6133     401.4071
   1414.91882     786.8575     401.3675   1414.91882     786.8575     401.3675
   1414.90356     783.6302     400.7973   1414.90356     783.6302     400.7973
   1414.88831     781.3010     400.6443   1414.88831     781.3010     400.6443
   1414.87305     781.0791     398.7758   1414.87305     781.0791     398.7758
   1414.85779     777.2899     398.5129   1414.85779     777.2899     398.5129
   1414.84253     775.8326     398.6809   1414.84253     775.8326     398.6809
   1414.82727     775.0401     397.5628   1414.82727     775.0401     397.5628
   1414.81201     772.0436     397.0381   1414.81201     772.0436     397.0381
   1414.79675     769.6849     396.9829   1414.79675     769.6849     396.9829
   1414.78149     767.4009     395.8240   1414.78149     767.4009     395.8240
   1414.76624     765.6523     396.2522   1414.76624     765.6523     396.2522
   1414.75098     762.9275     394.4635   1414.75098     762.9275     394.4635
   1414.73572     760.9385     393.7032   1414.73572     760.9385     393.7032
   1414.72046     758.0995     393.1352   1414.72046     758.0995     393.1352
   1414.70520     755.9537     392.0502   1414.70520     755.9537     392.0502
   1414.68994     754.7590     391.1610   1414.68994     754.7590     391.1610
   1414.67468     752.0853     390.7185   1414.67468     752.0853     390.7185
   1414.65942     749.3382     390.6092   1414.65942     749.3382     390.6092
   1414.64417     747.4609     388.7796   1414.64417     747.4609     388.7796
   1414.62891     745.7173     388.9829   1414.62891     745.7173     388.9829
   1414.61365     742.9022     387.7993   1414.61365     742.9022     387.7993
   1414.59839     740.7313     387.7397   1414.59839     740.7313     387.7397
   1414.58313     738.3644     386.7425   1414.58313     738.3644     386.7425
   1414.56787     735.4429     385.7859   1414.56787     735.4429     385.7859
   1414.55261     734.3985     384.8505   1414.55261     734.3985     384.8505
   1414.53735     730.2396     383.4114   1414.53735     730.2396     383.4114
   1414.52209     727.3376     383.5100   1414.52209     727.3376     383.5100
   1414.50684     724.2935     382.8625   1414.50684     724.2935     382.8625
   1414.49158     722.4303     381.1069   1414.49158     722.4303     381.1069
   1414.47632     720.5947     379.9620   1414.47632     720.5947     379.9620
   1414.46106     716.2387     379.4090   1414.46106     716.2387     379.4090
   1414.44580     713.4725     378.4643   1414.44580     713.4725     378.4643
   1414.43054     711.3367     378.1286   1414.43054     711.3367     378.1286
   1414.41528     709.2745     376.3563   1414.41528     709.2745     376.3563
   1414.40002     706.2950     376.1041   1414.40002     706.2950     376.1041
   1414.38477     703.7882     375.1930   1414.38477     703.7882     375.1930
   1414.36951     699.6603     373.6982   1414.36951     699.6603     373.6982
   1414.35425     697.1380     373.7907   1414.35425     697.1380     373.7907
   1414.33899     694.3881     372.1820   1414.33899     694.3881     372.1820
   1414.32373     692.1392     371.0990   1414.32373     692.1392     371.0990
   1414.30847     689.8505     369.6996   1414.30847     689.8505     369.6996
   1414.29321     685.6972     369.3821   1414.29321     685.6972     369.3821
   1414.27795     683.0847     368.3679   1414.27795     683.0847     368.3679
   1414.26270     680.3046     367.4897   1414.26270     680.3046     367.4897
   1414.24744     676.5524     365.8423   1414.24744     676.5524     365.8423
   1414.23218     674.1027     365.3078   1414.23218     674.1027     365.3078
   1414.21692     671.0244     363.8177   1414.21692     671.0244     363.8177
   1414.20166     668.3275     362.8246   1414.20166     668.3275     362.8246
   1414.18640     665.5624     362.1078   1414.18640     665.5624     362.1078
   1414.17114     662.7289     360.6524   1414.17114     662.7289     360.6524
   1414.15588     658.7653     359.9966   1414.15588     658.7653     359.9966
   1414.14062     656.0646     358.6220   1414.14062     656.0646     358.6220
   1414.12537     653.3662     357.5476   1414.12537     653.3662     357.5476
   1414.11011     649.4727     356.1668   1414.11011     649.4727     356.1668
   1414.09485     645.9659     355.4896   1414.09485     645.9659     355.4896
   1414.07959     642.9116     354.5103   1414.07959     642.9116     354.5103
   1414.06433     639.3062     353.0899   1414.06433     639.3062     353.0899
   1414.04907     637.1287     352.0377   1414.04907     637.1287     352.0377
   1414.03381     633.5853     350.4803   1414.03381     633.5853     350.4803
   1414.01855     632.1870     349.3719   1414.01855     632.1870     349.3719
   1414.00330     654.1863     356.5536   1414.00330     654.1863     356.5536
   1413.98804     626.6186     347.7413   1413.98804     626.6186     347.7413
   1413.97278     621.1230     346.2237   1413.97278     621.1230     346.2237
   1413.95752     617.9280     344.4951   1413.95752     617.9280     344.4951
   1413.94226     614.5067     343.4398   1413.94226     614.5067     343.4398
   1413.92700     611.0281     342.1190   1413.92700     611.0281     342.1190
   1413.91174     607.9222     340.6464   1413.91174     607.9222     340.6464
   1413.89648     604.5286     339.6158   1413.89648     604.5286     339.6158
   1413.88123     600.5797     338.1299   1413.88123     600.5797     338.1299
   1413.86597     598.2414     336.6469   1413.86597     598.2414     336.6469
   1413.85071     594.4428     335.7187   1413.85071     594.4428     335.7187
   1413.83545     591.8531     333.9545   1413.83545     591.8531     333.9545
   1413.82019     587.8961     333.0455   1413.82019     587.8961     333.0455
   1413.80493     585.4446     332.2571   1413.80493     585.4446     332.2571
   1413.78967     582.3185     330.3775   1413.78967     582.3185     330.3775
   1413.77441     578.0491     329.4977   1413.77441     578.0491     329.4977
   1413.75916     576.1464     327.9338   1413.75916     576.1464     327.9338
   1413.74390     571.1552     326.8324   1413.74390     571.1552     326.8324
   1413.72864     568.4693     325.2924   1413.72864     568.4693     325.2924
   1413.71338     565.6893     324.1868   1413.71338     565.6893     324.1868
   1413.69812     561.2419     322.6994   1413.69812     561.2419     322.6994
   1413.68286     558.4089     321.2426   1413.68286     558.4089     321.2426
   1413.66760     555.4656     320.2765   1413.66760     555.4656     320.2765
   1413.65234     551.0211     318.5363   1413.65234     551.0211     318.5363
   1413.63708     548.2242     317.3594   1413.63708     548.2242     317.3594
   1413.62183     545.2722     316.2039   1413.62183     545.2722     316.2039
   1413.60657     541.5908     314.9307   1413.60657     541.5908     314.9307
   1413.59131     538.6743     313.4373   1413.59131     538.6743     313.4373
   1413.57605     535.2648     312.1358   1413.57605     535.2648     312.1358
   1413.56079     532.6974     310.5103   1413.56079     532.6974     310.5103
   1413.54553     528.8422     309.2421   1413.54553     528.8422     309.2421
   1413.53027     525.5839     307.9432   1413.53027     525.5839     307.9432
   1413.51501     522.2938     306.3176   1413.51501     522.2938     306.3176
   1413.49976     519.5123     305.2007   1413.49976     519.5123     305.2007
   1413.48450     515.7130     304.0468   1413.48450     515.7130     304.0468
   1413.46924     513.0955     302.9898   1413.46924     513.0955     302.9898
   1413.45398     509.6638     301.6132   1413.45398     509.6638     301.6132
   1413.43872     506.0994     299.8762   1413.43872     506.0994     299.8762
   1413.42346     504.4168     298.5109   1413.42346     504.4168     298.5109
   1413.40820     499.8636     297.3319   1413.40820     499.8636     297.3319
   1413.39294     497.3597     295.5748   1413.39294     497.3597     295.5748
   1413.37769     493.9067     294.5515   1413.37769     493.9067     294.5515
   1413.36243     491.5991     293.4098   1413.36243     491.5991     293.4098
   1413.34717     487.8463     291.9704   1413.34717     487.8463     291.9704
   1413.33191     485.2321     290.8579   1413.33191     485.2321     290.8579
   1413.31665     482.1984     289.2190   1413.31665     482.1984     289.2190
   1413.30139     480.2197     287.8895   1413.30139     480.2197     287.8895
   1413.28613     476.3898     286.5535   1413.28613     476.3898     286.5535
   1413.27087     473.7551     285.2299   1413.27087     473.7551     285.2299
   1413.25562     470.7372     284.0659   1413.25562     470.7372     284.0659
   1413.24036     467.9694     283.0330   1413.24036     467.9694     283.0330
   1413.22510     465.2905     281.6435   1413.22510     465.2905     281.6435
   1413.20984     462.1629     280.3901   1413.20984     462.1629     280.3901
   1413.19458     458.8376     278.9652   1413.19458     458.8376     278.9652
   1413.17932     456.7069     278.4789   1413.17932     456.7069     278.4789
   1413.16406     453.6787     276.8235   1413.16406     453.6787     276.8235
   1413.14880     451.7833     275.5613   1413.14880     451.7833     275.5613
   1413.13354     448.7505     274.3451   1413.13354     448.7505     274.3451
   1413.11829     446.9586     272.7640   1413.11829     446.9586     272.7640
   1413.10303     443.3513     272.1237   1413.10303     443.3513     272.1237
   1413.08777     441.5189     270.7525   1413.08777     441.5189     270.7525
   1413.07251     438.7208     269.2369   1413.07251     438.7208     269.2369
   1413.05725     436.1423     268.4647   1413.05725     436.1423     268.4647
   1413.04199     433.9460     267.3778   1413.04199     433.9460     267.3778
   1413.02673     431.0118     266.2925   1413.02673     431.0118     266.2925
   1413.01147     429.2338     265.5327   1413.01147     429.2338     265.5327
   1412.99622     427.2740     264.0453   1412.99622     427.2740     264.0453
   1412.98096     424.7588     263.1628   1412.98096     424.7588     263.1628
   1412.96570     422.6005     262.0649   1412.96570     422.6005     262.0649
   1412.95044     420.2962     261.2022   1412.95044     420.2962     261.2022
   1412.93518     418.2403     260.0458   1412.93518     418.2403     260.0458
   1412.91992     416.8260     259.4445   1412.91992     416.8260     259.4445
   1412.90466     413.9892     257.7156   1412.90466     413.9892     257.7156
   1412.88940     412.1861     257.9429   1412.88940     412.1861     257.9429
   1412.87415     409.9144     255.9584   1412.87415     409.9144     255.9584
   1412.85889     408.3723     255.4737   1412.85889     408.3723     255.4737
   1412.84363     406.7299     254.1567   1412.84363     406.7299     254.1567
   1412.82837     404.5350     254.2500   1412.82837     404.5350     254.2500
   1412.81311     403.3380     253.1464   1412.81311     403.3380     253.1464
   1412.79785     400.9122     251.8544   1412.79785     400.9122     251.8544
   1412.78259     399.6147     251.3907   1412.78259     399.6147     251.3907
   1412.76733     397.9500     250.6533   1412.76733     397.9500     250.6533
   1412.75208     396.9704     249.7483   1412.75208     396.9704     249.7483
   1412.73682     394.9891     248.9903   1412.73682     394.9891     248.9903
   1412.72156     393.5511     248.4398   1412.72156     393.5511     248.4398
   1412.70630     392.6978     247.4890   1412.70630     392.6978     247.4890
   1412.69104     391.2420     247.1698   1412.69104     391.2420     247.1698
   1412.67578     390.0340     246.5237   1412.67578     390.0340     246.5237
   1412.66052     388.6683     245.8171   1412.66052     388.6683     245.8171
   1412.64526     387.6325     245.5272   1412.64526     387.6325     245.5272
   1412.63000     386.7407     245.2846   1412.63000     386.7407     245.2846
   1412.61475     385.4961     244.5742   1412.61475     385.4961     244.5742
   1412.59949     384.1794     244.3805   1412.59949     384.1794     244.3805
   1412.58423     383.5327     243.9765   1412.58423     383.5327     243.9765
   1412.56897     382.2516     243.3722   1412.56897     382.2516     243.3722
   1412.55371     381.4053     243.0395   1412.55371     381.4053     243.0395
   1412.53845     380.7501     242.4289   1412.53845     380.7501     242.4289
   1412.52319     380.3164     242.9316   1412.52319     380.3164     242.9316
   1412.50793     379.1621     242.4190   1412.50793     379.1621     242.4190
   1412.49268     379.1744     241.8478   1412.49268     379.1744     241.8478
   1412.47742     378.7973     241.6017   1412.47742     378.7973     241.6017
   1412.46216     378.0860     241.2084   1412.46216     378.0860     241.2084
   1412.44690     377.7169     241.3097   1412.44690     377.7169     241.3097
   1412.43164     377.0741     241.4296   1412.43164     377.0741     241.4296
   1412.41638     377.5002     241.0163   1412.41638     377.5002     241.0163
   1412.40112     376.9227     241.1758   1412.40112     376.9227     241.1758
   1412.38586     376.2497     241.1265   1412.38586     376.2497     241.1265
   1412.37061     376.7542     241.5683   1412.37061     376.7542     241.5683
   1412.35535     376.8956     241.3573   1412.35535     376.8956     241.3573
   1412.34009     376.1868     241.6649   1412.34009     376.1868     241.6649
   1412.32483     376.9935     241.5930   1412.32483     376.9935     241.5930
   1412.30957     376.7783     241.8637   1412.30957     376.7783     241.8637
   1412.29431     377.1633     242.3888   1412.29431     377.1633     242.3888
   1412.27905     377.3590     242.1788   1412.27905     377.3590     242.1788
   1412.26379     377.6966     242.4531   1412.26379     377.6966     242.4531
   1412.24854     378.6425     242.9743   1412.24854     378.6425     242.9743
   1412.23328     377.8863     243.3490   1412.23328     377.8863     243.3490
   1412.21802     378.3805     243.6401   1412.21802     378.3805     243.6401
   1412.20276     379.3367     244.4054   1412.20276     379.3367     244.4054