#     FILENAME=!Skynet_57528_lach-hhg-99_20344_20906.cyb.fits
#     BASENAME=Skynet_57528_lach-hhg-99_20344_20906
#     SRC_NAME=lach-hhg-99
#     OBSERVER=hhgmadison16_9500
#     DATE_OBS=2016-05-20T15:21:35.930
#        OBSID=20344
#      SCANNUM=20906
#          MJD=57528.6410
#          UTC=55384
#     SCANTYPE=track
#     DATAMODE=HIRES
#     TUNEFREQ=1420.0000
# Actual_FREQ1=1420.0000
# Actual_FREQ2=1420.0000
#    LO1Tuning=6870.000
#     RFFILTER=1355_1435
#        OBSBW=-15.6250
#        NCHAN=1024 
#        FOCUS=37.1368
#           RA=21:54:29.45
#          DEC=54:26:08.02
#      RA(hrs)=21.908200
#     DEC(deg)=54.435600
#    AZIM(deg)=311.785
#    ELEV(deg)=46.765
#     IFattens=10.00, 9.00
#      WARNING=None
#    TCAL_XL1=7.9635
#    TCAL_YR1=9.1340
#    TCAL_XL2=7.9635
#    TCAL_YR2=9.1340
#     TRX_XL1=11.7060
#     TRX_YR1=11.7060
#     TRX_XL2=11.7060
#     TRX_YR2=11.7060
#        TAVE=1.0000
#Freq1(MHz)          XL1          YR1  Freq2(MHz)          XL2          YR2 

   1427.81250     369.6903     284.9409   1427.81250     369.6903     284.9409
   1427.79724     370.5418     285.9603   1427.79724     370.5418     285.9603
   1427.78198     371.7067     286.8295   1427.78198     371.7067     286.8295
   1427.76672     371.8684     287.1054   1427.76672     371.8684     287.1054
   1427.75146     373.3422     287.7658   1427.75146     373.3422     287.7658
   1427.73621     374.2602     288.9624   1427.73621     374.2602     288.9624
   1427.72095     375.4286     290.1692   1427.72095     375.4286     290.1692
   1427.70569     376.4839     290.8647   1427.70569     376.4839     290.8647
   1427.69043     376.4800     291.7639   1427.69043     376.4800     291.7639
   1427.67517     378.3759     292.6112   1427.67517     378.3759     292.6112
   1427.65991     379.7637     293.4520   1427.65991     379.7637     293.4520
   1427.64465     380.7692     294.4680   1427.64465     380.7692     294.4680
   1427.62939     382.1370     296.4664   1427.62939     382.1370     296.4664
   1427.61414     383.3904     297.0029   1427.61414     383.3904     297.0029
   1427.59888     384.8565     298.6017   1427.59888     384.8565     298.6017
   1427.58362     386.2693     299.7193   1427.58362     386.2693     299.7193
   1427.56836     387.5221     301.2844   1427.56836     387.5221     301.2844
   1427.55310     389.2959     302.4263   1427.55310     389.2959     302.4263
   1427.53784     390.8356     303.8597   1427.53784     390.8356     303.8597
   1427.52258     393.1270     304.7670   1427.52258     393.1270     304.7670
   1427.50732     393.9627     306.5360   1427.50732     393.9627     306.5360
   1427.49207     396.1410     307.4191   1427.49207     396.1410     307.4191
   1427.47681     398.0059     309.4257   1427.47681     398.0059     309.4257
   1427.46155     399.9749     311.0413   1427.46155     399.9749     311.0413
   1427.44629     401.6101     311.9982   1427.44629     401.6101     311.9982
   1427.43103     403.6384     314.1541   1427.43103     403.6384     314.1541
   1427.41577     405.3129     315.1505   1427.41577     405.3129     315.1505
   1427.40051     407.2693     317.3324   1427.40051     407.2693     317.3324
   1427.38525     409.0504     318.2293   1427.38525     409.0504     318.2293
   1427.37000     411.8238     319.7775   1427.37000     411.8238     319.7775
   1427.35474     413.7366     322.4561   1427.35474     413.7366     322.4561
   1427.33948     415.9767     323.8731   1427.33948     415.9767     323.8731
   1427.32422     418.4284     325.4292   1427.32422     418.4284     325.4292
   1427.30896     420.6525     327.0346   1427.30896     420.6525     327.0346
   1427.29370     422.9434     328.7599   1427.29370     422.9434     328.7599
   1427.27844     424.9289     330.8153   1427.27844     424.9289     330.8153
   1427.26318     427.7670     332.8063   1427.26318     427.7670     332.8063
   1427.24792     430.2488     334.7992   1427.24792     430.2488     334.7992
   1427.23267     432.5191     336.4399   1427.23267     432.5191     336.4399
   1427.21741     435.3995     338.5208   1427.21741     435.3995     338.5208
   1427.20215     437.4062     340.5012   1427.20215     437.4062     340.5012
   1427.18689     439.9155     342.3675   1427.18689     439.9155     342.3675
   1427.17163     443.2891     343.9637   1427.17163     443.2891     343.9637
   1427.15637     444.9901     346.5540   1427.15637     444.9901     346.5540
   1427.14111     447.4395     347.9012   1427.14111     447.4395     347.9012
   1427.12585     449.9798     350.4583   1427.12585     449.9798     350.4583
   1427.11060     453.7284     352.4147   1427.11060     453.7284     352.4147
   1427.09534     456.3062     354.4308   1427.09534     456.3062     354.4308
   1427.08008     458.7502     356.5820   1427.08008     458.7502     356.5820
   1427.06482     461.5223     358.8272   1427.06482     461.5223     358.8272
   1427.04956     464.5898     361.3443   1427.04956     464.5898     361.3443
   1427.03430     466.9440     362.4637   1427.03430     466.9440     362.4637
   1427.01904     470.6253     364.8488   1427.01904     470.6253     364.8488
   1427.00378     473.0393     367.6964   1427.00378     473.0393     367.6964
   1426.98853     475.7621     369.6759   1426.98853     475.7621     369.6759
   1426.97327     479.0255     371.7078   1426.97327     479.0255     371.7078
   1426.95801     482.1250     373.9996   1426.95801     482.1250     373.9996
   1426.94275     484.4402     376.1330   1426.94275     484.4402     376.1330
   1426.92749     487.9154     377.8334   1426.92749     487.9154     377.8334
   1426.91223     489.8141     379.7832   1426.91223     489.8141     379.7832
   1426.89697     493.6175     382.6137   1426.89697     493.6175     382.6137
   1426.88171     496.5085     384.4632   1426.88171     496.5085     384.4632
   1426.86646     498.6447     386.9422   1426.86646     498.6447     386.9422
   1426.85120     502.6750     389.3274   1426.85120     502.6750     389.3274
   1426.83594     505.1855     391.2939   1426.83594     505.1855     391.2939
   1426.82068     509.2633     393.6291   1426.82068     509.2633     393.6291
   1426.80542     512.0630     396.0979   1426.80542     512.0630     396.0979
   1426.79016     515.3900     397.9293   1426.79016     515.3900     397.9293
   1426.77490     517.4907     399.7406   1426.77490     517.4907     399.7406
   1426.75964     521.3466     402.3519   1426.75964     521.3466     402.3519
   1426.74438     523.5403     405.0966   1426.74438     523.5403     405.0966
   1426.72913     526.9640     407.3673   1426.72913     526.9640     407.3673
   1426.71387     531.0372     409.3059   1426.71387     531.0372     409.3059
   1426.69861     533.6749     411.7787   1426.69861     533.6749     411.7787
   1426.68335     537.1126     414.0956   1426.68335     537.1126     414.0956
   1426.66809     540.1784     415.7941   1426.66809     540.1784     415.7941
   1426.65283     542.6925     418.2135   1426.65283     542.6925     418.2135
   1426.63757     545.4815     421.0999   1426.63757     545.4815     421.0999
   1426.62231     548.9968     427.0567   1426.62231     548.9968     427.0567
   1426.60706     552.8658     425.8076   1426.60706     552.8658     425.8076
   1426.59180     554.9361     427.4669   1426.59180     554.9361     427.4669
   1426.57654     558.0715     429.0509   1426.57654     558.0715     429.0509
   1426.56128     561.3036     431.9338   1426.56128     561.3036     431.9338
   1426.54602     564.5596     434.2348   1426.54602     564.5596     434.2348
   1426.53076     567.7404     436.7081   1426.53076     567.7404     436.7081
   1426.51550     570.2692     438.3354   1426.51550     570.2692     438.3354
   1426.50024     574.0418     440.6834   1426.50024     574.0418     440.6834
   1426.48499     575.7905     442.6218   1426.48499     575.7905     442.6218
   1426.46973     578.6289     445.2853   1426.46973     578.6289     445.2853
   1426.45447     582.1314     447.1556   1426.45447     582.1314     447.1556
   1426.43921     586.0075     448.7164   1426.43921     586.0075     448.7164
   1426.42395     588.2290     451.5339   1426.42395     588.2290     451.5339
   1426.40869     591.5334     453.4500   1426.40869     591.5334     453.4500
   1426.39343     594.5121     455.2530   1426.39343     594.5121     455.2530
   1426.37817     597.0302     458.0532   1426.37817     597.0302     458.0532
   1426.36292     600.0414     459.8839   1426.36292     600.0414     459.8839
   1426.34766     603.6648     461.4940   1426.34766     603.6648     461.4940
   1426.33240     604.9929     464.8481   1426.33240     604.9929     464.8481
   1426.31714     609.0704     465.9624   1426.31714     609.0704     465.9624
   1426.30188     611.9704     468.1622   1426.30188     611.9704     468.1622
   1426.28662     614.8876     470.7499   1426.28662     614.8876     470.7499
   1426.27136     617.8201     472.0867   1426.27136     617.8201     472.0867
   1426.25610     619.7771     475.0164   1426.25610     619.7771     475.0164
   1426.24084     622.5683     475.9245   1426.24084     622.5683     475.9245
   1426.22559     625.9277     478.6275   1426.22559     625.9277     478.6275
   1426.21033     628.4211     480.3073   1426.21033     628.4211     480.3073
   1426.19507     631.2347     482.7975   1426.19507     631.2347     482.7975
   1426.17981     632.4842     484.5588   1426.17981     632.4842     484.5588
   1426.16455     636.7186     486.2557   1426.16455     636.7186     486.2557
   1426.14929     639.5872     487.0498   1426.14929     639.5872     487.0498
   1426.13403     642.5806     490.2581   1426.13403     642.5806     490.2581
   1426.11877     643.5471     492.1278   1426.11877     643.5471     492.1278
   1426.10352     647.1117     494.0349   1426.10352     647.1117     494.0349
   1426.08826     648.2101     495.9552   1426.08826     648.2101     495.9552
   1426.07300     651.1478     497.4634   1426.07300     651.1478     497.4634
   1426.05774     653.8273     500.5429   1426.05774     653.8273     500.5429
   1426.04248     655.7268     500.9024   1426.04248     655.7268     500.9024
   1426.02722     659.2825     503.4132   1426.02722     659.2825     503.4132
   1426.01196     660.4434     504.4704   1426.01196     660.4434     504.4704
   1425.99670     662.7504     507.5541   1425.99670     662.7504     507.5541
   1425.98145     665.5279     508.1719   1425.98145     665.5279     508.1719
   1425.96619     667.7141     510.2210   1425.96619     667.7141     510.2210
   1425.95093     668.8366     512.1957   1425.95093     668.8366     512.1957
   1425.93567     672.6368     514.0955   1425.93567     672.6368     514.0955
   1425.92041     673.8062     515.5056   1425.92041     673.8062     515.5056
   1425.90515     677.1435     517.6866   1425.90515     677.1435     517.6866
   1425.88989     678.5319     519.8642   1425.88989     678.5319     519.8642
   1425.87463     680.6384     520.7873   1425.87463     680.6384     520.7873
   1425.85938     682.4786     521.8607   1425.85938     682.4786     521.8607
   1425.84412     684.2226     524.2896   1425.84412     684.2226     524.2896
   1425.82886     686.2897     525.6298   1425.82886     686.2897     525.6298
   1425.81360     688.3149     526.5466   1425.81360     688.3149     526.5466
   1425.79834     691.2629     528.0261   1425.79834     691.2629     528.0261
   1425.78308     692.8618     530.9638   1425.78308     692.8618     530.9638
   1425.76782     694.2759     532.5864   1425.76782     694.2759     532.5864
   1425.75256     696.5127     533.3661   1425.75256     696.5127     533.3661
   1425.73730     696.9463     535.7950   1425.73730     696.9463     535.7950
   1425.72205     699.6756     537.3763   1425.72205     699.6756     537.3763
   1425.70679     701.5811     538.3932   1425.70679     701.5811     538.3932
   1425.69153     703.8865     539.5546   1425.69153     703.8865     539.5546
   1425.67627     705.4725     540.6662   1425.67627     705.4725     540.6662
   1425.66101     706.5145     541.4722   1425.66101     706.5145     541.4722
   1425.64575     708.5001     543.8406   1425.64575     708.5001     543.8406
   1425.63049     708.7602     545.6538   1425.63049     708.7602     545.6538
   1425.61523     710.9897     546.5226   1425.61523     710.9897     546.5226
   1425.59998     712.3259     548.8832   1425.59998     712.3259     548.8832
   1425.58472     713.5451     549.3928   1425.58472     713.5451     549.3928
   1425.56946     714.8918     550.6411   1425.56946     714.8918     550.6411
   1425.55420     716.6823     552.1598   1425.55420     716.6823     552.1598
   1425.53894     717.6311     552.6700   1425.53894     717.6311     552.6700
   1425.52368     718.9428     554.2560   1425.52368     718.9428     554.2560
   1425.50842     720.1562     555.3396   1425.50842     720.1562     555.3396
   1425.49316     721.4133     558.3243   1425.49316     721.4133     558.3243
   1425.47791     722.6293     558.9894   1425.47791     722.6293     558.9894
   1425.46265     724.1008     559.8700   1425.46265     724.1008     559.8700
   1425.44739     725.5201     561.5579   1425.44739     725.5201     561.5579
   1425.43213     727.3249     562.5848   1425.43213     727.3249     562.5848
   1425.41687     729.5079     563.0525   1425.41687     729.5079     563.0525
   1425.40161     729.5298     565.0873   1425.40161     729.5298     565.0873
   1425.38635     729.8482     565.6891   1425.38635     729.8482     565.6891
   1425.37109     731.0867     566.9770   1425.37109     731.0867     566.9770
   1425.35583     731.5020     567.8661   1425.35583     731.5020     567.8661
   1425.34058     732.2424     568.9255   1425.34058     732.2424     568.9255
   1425.32532     733.3855     571.1768   1425.32532     733.3855     571.1768
   1425.31006     735.2557     572.2140   1425.31006     735.2557     572.2140
   1425.29480     735.7393     573.1235   1425.29480     735.7393     573.1235
   1425.27954     736.8108     573.9164   1425.27954     736.8108     573.9164
   1425.26428     736.9855     575.7498   1425.26428     736.9855     575.7498
   1425.24902     736.6694     574.5462   1425.24902     736.6694     574.5462
   1425.23376     739.4103     577.4968   1425.23376     739.4103     577.4968
   1425.21851     738.8178     578.2646   1425.21851     738.8178     578.2646
   1425.20325     739.1328     579.3690   1425.20325     739.1328     579.3690
   1425.18799     740.9050     579.9047   1425.18799     740.9050     579.9047
   1425.17273     742.5447     581.2919   1425.17273     742.5447     581.2919
   1425.15747     743.0449     582.9891   1425.15747     743.0449     582.9891
   1425.14221     742.4254     582.6706   1425.14221     742.4254     582.6706
   1425.12695     743.3270     584.1532   1425.12695     743.3270     584.1532
   1425.11169     742.5049     585.7858   1425.11169     742.5049     585.7858
   1425.09644     744.5181     586.1129   1425.09644     744.5181     586.1129
   1425.08118     743.4647     586.2875   1425.08118     743.4647     586.2875
   1425.06592     745.6123     587.7774   1425.06592     745.6123     587.7774
   1425.05066     747.2985     588.8096   1425.05066     747.2985     588.8096
   1425.03540     747.6851     589.3595   1425.03540     747.6851     589.3595
   1425.02014     746.5872     590.4007   1425.02014     746.5872     590.4007
   1425.00488     748.2546     591.8241   1425.00488     748.2546     591.8241
   1424.98962     747.7382     592.5687   1424.98962     747.7382     592.5687
   1424.97437     747.0740     593.4160   1424.97437     747.0740     593.4160
   1424.95911     748.0408     594.6730   1424.95911     748.0408     594.6730
   1424.94385     747.5026     595.7032   1424.94385     747.5026     595.7032
   1424.92859     748.6832     596.4239   1424.92859     748.6832     596.4239
   1424.91333     749.5982     597.7245   1424.91333     749.5982     597.7245
   1424.89807     749.3821     598.3389   1424.89807     749.3821     598.3389
   1424.88281     749.8519     598.2432   1424.88281     749.8519     598.2432
   1424.86755     748.9114     599.3148   1424.86755     748.9114     599.3148
   1424.85229     750.1990     600.5245   1424.85229     750.1990     600.5245
   1424.83704     749.6451     601.0629   1424.83704     749.6451     601.0629
   1424.82178     750.4022     602.2570   1424.82178     750.4022     602.2570
   1424.80652     751.6046     602.2606   1424.80652     751.6046     602.2606
   1424.79126     749.8531     602.6616   1424.79126     749.8531     602.6616
   1424.77600     749.8783     604.7945   1424.77600     749.8783     604.7945
   1424.76074     750.0880     604.9729   1424.76074     750.0880     604.9729
   1424.74548     751.6793     606.1503   1424.74548     751.6793     606.1503
   1424.73022     750.0419     605.9786   1424.73022     750.0419     605.9786
   1424.71497     750.6778     606.8117   1424.71497     750.6778     606.8117
   1424.69971     750.5103     607.5774   1424.69971     750.5103     607.5774
   1424.68445     750.2817     608.4427   1424.68445     750.2817     608.4427
   1424.66919     751.1770     609.7167   1424.66919     751.1770     609.7167
   1424.65393     751.1548     610.2990   1424.65393     751.1548     610.2990
   1424.63867     750.2759     609.9557   1424.63867     750.2759     609.9557
   1424.62341     750.1339     611.7333   1424.62341     750.1339     611.7333
   1424.60815     749.3135     611.6688   1424.60815     749.3135     611.6688
   1424.59290     750.5161     612.4418   1424.59290     750.5161     612.4418
   1424.57764     751.6914     613.5561   1424.57764     751.6914     613.5561
   1424.56238     750.1682     613.3922   1424.56238     750.1682     613.3922
   1424.54712     750.3633     613.5837   1424.54712     750.3633     613.5837
   1424.53186     750.5438     615.0813   1424.53186     750.5438     615.0813
   1424.51660     750.2361     615.9642   1424.51660     750.2361     615.9642
   1424.50134     749.6770     617.5241   1424.50134     749.6770     617.5241
   1424.48608     749.9583     617.3916   1424.48608     749.9583     617.3916
   1424.47083     749.8805     618.2652   1424.47083     749.8805     618.2652
   1424.45557     749.4545     619.1038   1424.45557     749.4545     619.1038
   1424.44031     750.0011     619.4417   1424.44031     750.0011     619.4417
   1424.42505     749.1840     619.5742   1424.42505     749.1840     619.5742
   1424.40979     748.7991     620.7200   1424.40979     748.7991     620.7200
   1424.39453     748.8309     622.4169   1424.39453     748.8309     622.4169
   1424.37927     748.6198     621.4354   1424.37927     748.6198     621.4354
   1424.36401     748.0316     621.5128   1424.36401     748.0316     621.5128
   1424.34875     749.3187     623.4935   1424.34875     749.3187     623.4935
   1424.33350     748.8970     623.7127   1424.33350     748.8970     623.7127
   1424.31824     748.4722     624.1497   1424.31824     748.4722     624.1497
   1424.30298     746.1970     624.3008   1424.30298     746.1970     624.3008
   1424.28772     746.0197     625.1846   1424.28772     746.0197     625.1846
   1424.27246     747.4867     625.5212   1424.27246     747.4867     625.5212
   1424.25720     747.1624     626.2900   1424.25720     747.1624     626.2900
   1424.24194     747.8441     626.8237   1424.24194     747.8441     626.8237
   1424.22668     746.6595     627.1557   1424.22668     746.6595     627.1557
   1424.21143     746.5670     627.4113   1424.21143     746.5670     627.4113
   1424.19617     745.4089     628.1804   1424.19617     745.4089     628.1804
   1424.18091     745.3951     629.3984   1424.18091     745.3951     629.3984
   1424.16565     745.9895     629.3102   1424.16565     745.9895     629.3102
   1424.15039     746.6523     629.1655   1424.15039     746.6523     629.1655
   1424.13513     744.4068     630.5971   1424.13513     744.4068     630.5971
   1424.11987     745.6530     630.3281   1424.11987     745.6530     630.3281
   1424.10461     745.1104     630.8876   1424.10461     745.1104     630.8876
   1424.08936     743.8544     632.1381   1424.08936     743.8544     632.1381
   1424.07410     744.6971     632.5567   1424.07410     744.6971     632.5567
   1424.05884     743.4856     632.5330   1424.05884     743.4856     632.5330
   1424.04358     742.4653     632.7552   1424.04358     742.4653     632.7552
   1424.02832     742.5640     632.8331   1424.02832     742.5640     632.8331
   1424.01306     742.6357     634.0579   1424.01306     742.6357     634.0579
   1423.99780     743.6685     634.0427   1423.99780     743.6685     634.0427
   1423.98254     741.9417     634.1494   1423.98254     741.9417     634.1494
   1423.96729     741.4682     635.0131   1423.96729     741.4682     635.0131
   1423.95203     741.6398     635.3094   1423.95203     741.6398     635.3094
   1423.93677     741.6250     635.8278   1423.93677     741.6250     635.8278
   1423.92151     740.7786     636.3577   1423.92151     740.7786     636.3577
   1423.90625     739.9373     635.3780   1423.90625     739.9373     635.3780
   1423.89099     739.6003     636.2892   1423.89099     739.6003     636.2892
   1423.87573     740.6534     635.8810   1423.87573     740.6534     635.8810
   1423.86047     738.9559     637.7780   1423.86047     738.9559     637.7780
   1423.84521     739.5936     637.3260   1423.84521     739.5936     637.3260
   1423.82996     739.0537     637.4947   1423.82996     739.0537     637.4947
   1423.81470     739.5646     638.3588   1423.81470     739.5646     638.3588
   1423.79944     738.2887     638.5596   1423.79944     738.2887     638.5596
   1423.78418     737.7350     638.9711   1423.78418     737.7350     638.9711
   1423.76892     737.6057     638.8234   1423.76892     737.6057     638.8234
   1423.75366     736.2264     639.4913   1423.75366     736.2264     639.4913
   1423.73840     736.6073     639.6270   1423.73840     736.6073     639.6270
   1423.72314     736.2790     639.8337   1423.72314     736.2790     639.8337
   1423.70789     737.4688     640.5181   1423.70789     737.4688     640.5181
   1423.69263     736.8896     639.5284   1423.69263     736.8896     639.5284
   1423.67737     736.8392     640.8578   1423.67737     736.8392     640.8578
   1423.66211     735.7661     640.6409   1423.66211     735.7661     640.6409
   1423.64685     735.3433     641.0937   1423.64685     735.3433     641.0937
   1423.63159     736.1990     640.5348   1423.63159     736.1990     640.5348
   1423.61633     736.7362     641.0749   1423.61633     736.7362     641.0749
   1423.60107     735.0540     641.0730   1423.60107     735.0540     641.0730
   1423.58582     735.1144     641.9662   1423.58582     735.1144     641.9662
   1423.57056     733.4065     641.5743   1423.57056     733.4065     641.5743
   1423.55530     734.1578     640.5818   1423.55530     734.1578     640.5818
   1423.54004     732.9320     642.5594   1423.54004     732.9320     642.5594
   1423.52478     734.0761     642.4911   1423.52478     734.0761     642.4911
   1423.50952     732.9294     643.3212   1423.50952     732.9294     643.3212
   1423.49426     733.3505     642.0627   1423.49426     733.3505     642.0627
   1423.47900     732.6097     642.0507   1423.47900     732.6097     642.0507
   1423.46375     732.2673     641.9299   1423.46375     732.2673     641.9299
   1423.44849     732.7163     642.3824   1423.44849     732.7163     642.3824
   1423.43323     732.6899     643.7491   1423.43323     732.6899     643.7491
   1423.41797     733.3312     642.5024   1423.41797     733.3312     642.5024
   1423.40271     732.2600     643.3350   1423.40271     732.2600     643.3350
   1423.38745     732.8822     642.9953   1423.38745     732.8822     642.9953
   1423.37219     731.0215     643.0498   1423.37219     731.0215     643.0498
   1423.35693     730.6583     643.3695   1423.35693     730.6583     643.3695
   1423.34167     731.9756     642.5963   1423.34167     731.9756     642.5963
   1423.32642     730.5693     641.2973   1423.32642     730.5693     641.2973
   1423.31116     730.4894     642.9885   1423.31116     730.4894     642.9885
   1423.29590     729.5372     642.8951   1423.29590     729.5372     642.8951
   1423.28064     728.5946     642.8497   1423.28064     728.5946     642.8497
   1423.26538     730.2514     642.9899   1423.26538     730.2514     642.9899
   1423.25012     729.7838     642.8967   1423.25012     729.7838     642.8967
   1423.23486     729.0310     642.3407   1423.23486     729.0310     642.3407
   1423.21960     727.5045     642.1565   1423.21960     727.5045     642.1565
   1423.20435     730.1470     642.5277   1423.20435     730.1470     642.5277
   1423.18909     728.1682     640.8981   1423.18909     728.1682     640.8981
   1423.17383     727.1520     641.3470   1423.17383     727.1520     641.3470
   1423.15857     728.9685     640.9138   1423.15857     728.9685     640.9138
   1423.14331     728.5742     642.7482   1423.14331     728.5742     642.7482
   1423.12805     727.8552     642.0256   1423.12805     727.8552     642.0256
   1423.11279     728.0994     640.5794   1423.11279     728.0994     640.5794
   1423.09753     727.8059     640.6869   1423.09753     727.8059     640.6869
   1423.08228     726.2109     640.4755   1423.08228     726.2109     640.4755
   1423.06702     725.6747     639.8226   1423.06702     725.6747     639.8226
   1423.05176     725.9540     639.6813   1423.05176     725.9540     639.6813
   1423.03650     726.6082     639.5339   1423.03650     726.6082     639.5339
   1423.02124     725.9626     639.4682   1423.02124     725.9626     639.4682
   1423.00598     726.5182     637.7038   1423.00598     726.5182     637.7038
   1422.99072     724.8942     638.4751   1422.99072     724.8942     638.4751
   1422.97546     725.5854     638.3846   1422.97546     725.5854     638.3846
   1422.96021     725.9211     636.8352   1422.96021     725.9211     636.8352
   1422.94495     723.8226     636.8912   1422.94495     723.8226     636.8912
   1422.92969     724.8961     636.5354   1422.92969     724.8961     636.5354
   1422.91443     723.5710     636.0033   1422.91443     723.5710     636.0033
   1422.89917     724.2215     636.1442   1422.89917     724.2215     636.1442
   1422.88391     724.5011     636.0717   1422.88391     724.5011     636.0717
   1422.86865     723.7047     634.9408   1422.86865     723.7047     634.9408
   1422.85339     723.6978     634.9858   1422.85339     723.6978     634.9858
   1422.83813     724.2385     633.8417   1422.83813     724.2385     633.8417
   1422.82288     722.1592     633.3943   1422.82288     722.1592     633.3943
   1422.80762     722.5410     632.7579   1422.80762     722.5410     632.7579
   1422.79236     723.3912     632.6511   1422.79236     723.3912     632.6511
   1422.77710     722.8589     632.4581   1422.77710     722.8589     632.4581
   1422.76184     722.8607     631.1534   1422.76184     722.8607     631.1534
   1422.74658     722.0126     630.1180   1422.74658     722.0126     630.1180
   1422.73132     723.1683     630.7446   1422.73132     723.1683     630.7446
   1422.71606     722.5798     629.2211   1422.71606     722.5798     629.2211
   1422.70081     722.8317     628.8371   1422.70081     722.8317     628.8371
   1422.68555     720.5109     628.0516   1422.68555     720.5109     628.0516
   1422.67029     721.7794     626.6592   1422.67029     721.7794     626.6592
   1422.65503     721.7775     625.9163   1422.65503     721.7775     625.9163
   1422.63977     722.6572     624.8253   1422.63977     722.6572     624.8253
   1422.62451     721.0881     624.9583   1422.62451     721.0881     624.9583
   1422.60925     720.5068     623.3899   1422.60925     720.5068     623.3899
   1422.59399     721.4367     622.9100   1422.59399     721.4367     622.9100
   1422.57874     721.4789     623.8447   1422.57874     721.4789     623.8447
   1422.56348     720.9023     622.2010   1422.56348     720.9023     622.2010
   1422.54822     719.3627     621.3577   1422.54822     719.3627     621.3577
   1422.53296     719.0244     620.2357   1422.53296     719.0244     620.2357
   1422.51770     720.0510     619.6561   1422.51770     720.0510     619.6561
   1422.50244     719.4599     617.6464   1422.50244     719.4599     617.6464
   1422.48718     720.6654     617.4238   1422.48718     720.6654     617.4238
   1422.47192     720.1860     616.4227   1422.47192     720.1860     616.4227
   1422.45667     719.0634     616.0831   1422.45667     719.0634     616.0831
   1422.44141     719.2896     614.5259   1422.44141     719.2896     614.5259
   1422.42615     718.4508     614.1282   1422.42615     718.4508     614.1282
   1422.41089     717.9858     613.3295   1422.41089     717.9858     613.3295
   1422.39563     717.8796     611.7308   1422.39563     717.8796     611.7308
   1422.38037     717.7599     611.5228   1422.38037     717.7599     611.5228
   1422.36511     716.7639     609.6257   1422.36511     716.7639     609.6257
   1422.34985     717.7302     608.4651   1422.34985     717.7302     608.4651
   1422.33459     718.4355     607.4912   1422.33459     718.4355     607.4912
   1422.31934     717.4948     606.7942   1422.31934     717.4948     606.7942
   1422.30408     717.6765     606.0416   1422.30408     717.6765     606.0416
   1422.28882     716.0807     604.7267   1422.28882     716.0807     604.7267
   1422.27356     717.5118     604.2510   1422.27356     717.5118     604.2510
   1422.25830     717.2899     603.1217   1422.25830     717.2899     603.1217
   1422.24304     715.9564     601.1670   1422.24304     715.9564     601.1670
   1422.22778     715.9965     600.5683   1422.22778     715.9965     600.5683
   1422.21252     717.4611     600.2242   1422.21252     717.4611     600.2242
   1422.19727     717.1858     598.0544   1422.19727     717.1858     598.0544
   1422.18201     716.7568     597.6929   1422.18201     716.7568     597.6929
   1422.16675     716.7623     595.8917   1422.16675     716.7623     595.8917
   1422.15149     716.7594     595.1880   1422.15149     716.7594     595.1880
   1422.13623     716.7010     593.2415   1422.13623     716.7010     593.2415
   1422.12097     715.1966     592.1182   1422.12097     715.1966     592.1182
   1422.10571     714.9564     591.8791   1422.10571     714.9564     591.8791
   1422.09045     715.5591     589.9179   1422.09045     715.5591     589.9179
   1422.07520     714.6661     589.0388   1422.07520     714.6661     589.0388
   1422.05994     714.5241     588.1356   1422.05994     714.5241     588.1356
   1422.04468     714.8825     586.5593   1422.04468     714.8825     586.5593
   1422.02942     715.1493     584.6156   1422.02942     715.1493     584.6156
   1422.01416     713.8824     583.1995   1422.01416     713.8824     583.1995
   1421.99890     714.0193     583.8341   1421.99890     714.0193     583.8341
   1421.98364     714.0586     582.3762   1421.98364     714.0586     582.3762
   1421.96838     713.3349     579.5690   1421.96838     713.3349     579.5690
   1421.95312     713.6619     579.2268   1421.95312     713.6619     579.2268
   1421.93787     714.4684     578.3210   1421.93787     714.4684     578.3210
   1421.92261     713.7702     576.7154   1421.92261     713.7702     576.7154
   1421.90735     713.6024     575.2726   1421.90735     713.6024     575.2726
   1421.89209     713.0062     574.2902   1421.89209     713.0062     574.2902
   1421.87683     713.2910     573.1006   1421.87683     713.2910     573.1006
   1421.86157     711.9507     571.2584   1421.86157     711.9507     571.2584
   1421.84631     712.2371     569.6240   1421.84631     712.2371     569.6240
   1421.83105     711.9386     569.3813   1421.83105     711.9386     569.3813
   1421.81580     711.9919     567.3549   1421.81580     711.9919     567.3549
   1421.80054     711.5770     566.3832   1421.80054     711.5770     566.3832
   1421.78528     712.7939     563.6414   1421.78528     712.7939     563.6414
   1421.77002     712.6069     562.6446   1421.77002     712.6069     562.6446
   1421.75476     711.7269     562.5166   1421.75476     711.7269     562.5166
   1421.73950     710.7200     560.5247   1421.73950     710.7200     560.5247
   1421.72424     709.7687     559.5196   1421.72424     709.7687     559.5196
   1421.70898     710.6515     557.6014   1421.70898     710.6515     557.6014
   1421.69373     710.8395     556.2564   1421.69373     710.8395     556.2564
   1421.67847     711.7476     555.8312   1421.67847     711.7476     555.8312
   1421.66321     710.9744     554.3507   1421.66321     710.9744     554.3507
   1421.64795     709.0633     552.2422   1421.64795     709.0633     552.2422
   1421.63269     710.9590     551.0321   1421.63269     710.9590     551.0321
   1421.61743     709.6398     549.2474   1421.61743     709.6398     549.2474
   1421.60217     711.1595     549.5004   1421.60217     711.1595     549.5004
   1421.58691     708.8422     546.5481   1421.58691     708.8422     546.5481
   1421.57166     709.2583     545.3044   1421.57166     709.2583     545.3044
   1421.55640     708.1777     544.4711   1421.55640     708.1777     544.4711
   1421.54114     709.2092     543.3832   1421.54114     709.2092     543.3832
   1421.52588     707.0518     541.4539   1421.52588     707.0518     541.4539
   1421.51062     708.5624     540.4433   1421.51062     708.5624     540.4433
   1421.49536     707.2045     538.8273   1421.49536     707.2045     538.8273
   1421.48010     708.0609     537.2575   1421.48010     708.0609     537.2575
   1421.46484     707.7044     536.2316   1421.46484     707.7044     536.2316
   1421.44958     706.9506     535.2059   1421.44958     706.9506     535.2059
   1421.43433     708.1585     533.8788   1421.43433     708.1585     533.8788
   1421.41907     706.6738     531.5950   1421.41907     706.6738     531.5950
   1421.40381     706.7153     530.3839   1421.40381     706.7153     530.3839
   1421.38855     707.5493     529.8289   1421.38855     707.5493     529.8289
   1421.37329     706.2344     528.2111   1421.37329     706.2344     528.2111
   1421.35803     707.4417     526.8351   1421.35803     707.4417     526.8351
   1421.34277     706.6684     525.8933   1421.34277     706.6684     525.8933
   1421.32751     706.8751     523.6843   1421.32751     706.8751     523.6843
   1421.31226     706.1141     522.7813   1421.31226     706.1141     522.7813
   1421.29700     706.8348     521.5490   1421.29700     706.8348     521.5490
   1421.28174     705.7190     520.5781   1421.28174     705.7190     520.5781
   1421.26648     707.2769     519.7792   1421.26648     707.2769     519.7792
   1421.25122     707.4823     519.5048   1421.25122     707.4823     519.5048
   1421.23596     706.9398     517.2680   1421.23596     706.9398     517.2680
   1421.22070     706.9470     517.0147   1421.22070     706.9470     517.0147
   1421.20544     708.0679     514.9628   1421.20544     708.0679     514.9628
   1421.19019     708.8414     515.2318   1421.19019     708.8414     515.2318
   1421.17493     708.3674     514.6876   1421.17493     708.3674     514.6876
   1421.15967     712.0391     513.6539   1421.15967     712.0391     513.6539
   1421.14441     713.2671     513.7186   1421.14441     713.2671     513.7186
   1421.12915     715.4086     515.7255   1421.12915     715.4086     515.7255
   1421.11389     721.1631     517.9205   1421.11389     721.1631     517.9205
   1421.09863     731.1379     523.2897   1421.09863     731.1379     523.2897
   1421.08337     747.9714     534.3923   1421.08337     747.9714     534.3923
   1421.06812     770.2689     548.3848   1421.06812     770.2689     548.3848
   1421.05286     801.3459     568.0405   1421.05286     801.3459     568.0405
   1421.03760     825.9399     583.4645   1421.03760     825.9399     583.4645
   1421.02234     834.8359     588.6873   1421.02234     834.8359     588.6873
   1421.00708     842.9991     594.4968   1421.00708     842.9991     594.4968
   1420.99182     856.0798     601.2252   1420.99182     856.0798     601.2252
   1420.97656     883.7626     618.6052   1420.97656     883.7626     618.6052
   1420.96130     913.3695     639.6576   1420.96130     913.3695     639.6576
   1420.94604     903.7339     630.5272   1420.94604     903.7339     630.5272
   1420.93079     855.3684     595.1614   1420.93079     855.3684     595.1614
   1420.91553     828.0284     575.7116   1420.91553     828.0284     575.7116
   1420.90027     845.8561     586.7517   1420.90027     845.8561     586.7517
   1420.88501     924.6924     638.0701   1420.88501     924.6924     638.0701
   1420.86975    1092.9397     748.4221   1420.86975    1092.9397     748.4221
   1420.85449    1297.1210     883.9036   1420.85449    1297.1210     883.9036
   1420.83923    1487.5955    1010.4262   1420.83923    1487.5955    1010.4262
   1420.82397    1707.4568    1154.3533   1420.82397    1707.4568    1154.3533
   1420.80872    1864.9865    1255.9807   1420.80872    1864.9865    1255.9807
   1420.79346    1792.2898    1205.3625   1420.79346    1792.2898    1205.3625
   1420.77820    1682.9878    1130.5790   1420.77820    1682.9878    1130.5790
   1420.76294    1817.1345    1213.8920   1420.76294    1817.1345    1213.8920
   1420.74768    1853.5774    1234.8973   1420.74768    1853.5774    1234.8973
   1420.73242    1737.0148    1154.5262   1420.73242    1737.0148    1154.5262
   1420.71716    1638.6669    1088.3875   1420.71716    1638.6669    1088.3875
   1420.70190    1777.9478    1176.7037   1420.70190    1777.9478    1176.7037
   1420.68665    1896.6443    1253.7068   1420.68665    1896.6443    1253.7068
   1420.67139    1697.3943    1123.9423   1420.67139    1697.3943    1123.9423
   1420.65613    1516.6554    1001.4350   1420.65613    1516.6554    1001.4350
   1420.64087    1561.3027    1027.4833   1420.64087    1561.3027    1027.4833
   1420.62561    1770.7291    1161.3361   1420.62561    1770.7291    1161.3361
   1420.61035    1880.4257    1227.3823   1420.61035    1880.4257    1227.3823
   1420.59509    1745.3718    1143.2032   1420.59509    1745.3718    1143.2032
   1420.57983    1804.9941    1180.2135   1420.57983    1804.9941    1180.2135
   1420.56458    1940.0067    1262.4276   1420.56458    1940.0067    1262.4276
   1420.54932    1924.4608    1251.1237   1420.54932    1924.4608    1251.1237
   1420.53406    1808.5103    1174.1189   1420.53406    1808.5103    1174.1189
   1420.51880    1847.3782    1194.4010   1420.51880    1847.3782    1194.4010
   1420.50354    1748.1049    1129.1902   1420.50354    1748.1049    1129.1902
   1420.48828    1129.4550     733.4161   1420.48828    1129.4550     733.4161
   1420.47302     871.3973     567.5883   1420.47302     871.3973     567.5883
   1420.45776     797.6700     519.5133   1420.45776     797.6700     519.5133
   1420.44250     764.1715     498.5572   1420.44250     764.1715     498.5572
   1420.42725     743.7343     484.1171   1420.42725     743.7343     484.1171
   1420.41199     728.7262     473.2101   1420.41199     728.7262     473.2101
   1420.39673     719.2032     466.5285   1420.39673     719.2032     466.5285
   1420.38147     713.4594     462.3780   1420.38147     713.4594     462.3780
   1420.36621     707.4268     458.1226   1420.36621     707.4268     458.1226
   1420.35095     704.9549     455.0534   1420.35095     704.9549     455.0534
   1420.33569     703.4361     453.3659   1420.33569     703.4361     453.3659
   1420.32043     701.9993     451.8169   1420.32043     701.9993     451.8169
   1420.30518     700.9041     449.8213   1420.30518     700.9041     449.8213
   1420.28992     702.2223     450.2587   1420.28992     702.2223     450.2587
   1420.27466     699.6902     448.8055   1420.27466     699.6902     448.8055
   1420.25940     700.5738     447.0641   1420.25940     700.5738     447.0641
   1420.24414     698.9351     446.6941   1420.24414     698.9351     446.6941
   1420.22888     700.2318     444.9750   1420.22888     700.2318     444.9750
   1420.21362     698.7222     443.5280   1420.21362     698.7222     443.5280
   1420.19836     699.0093     442.2968   1420.19836     699.0093     442.2968
   1420.18311     695.5436     441.3949   1420.18311     695.5436     441.3949
   1420.16785     694.6132     440.2095   1420.16785     694.6132     440.2095
   1420.15259     694.3558     438.5389   1420.15259     694.3558     438.5389
   1420.13733     694.2404     437.1606   1420.13733     694.2404     437.1606
   1420.12207     692.9210     436.5586   1420.12207     692.9210     436.5586
   1420.10681     692.6471     434.9005   1420.10681     692.6471     434.9005
   1420.09155     692.7282     435.3193   1420.09155     692.7282     435.3193
   1420.07629     692.2361     433.8580   1420.07629     692.2361     433.8580
   1420.06104     692.2159     433.3438   1420.06104     692.2159     433.3438
   1420.04578     692.6956     431.5230   1420.04578     692.6956     431.5230
   1420.03052     691.7178     432.0387   1420.03052     691.7178     432.0387
   1420.01526     692.1840     432.1497   1420.01526     692.1840     432.1497
   1420.00000     692.5202     431.7494   1420.00000     692.5202     431.7494
   1419.98474     692.8568     431.3491   1419.98474     692.8568     431.3491
   1419.96948     693.5399     429.9368   1419.96948     693.5399     429.9368
   1419.95422     691.3962     428.5065   1419.95422     691.3962     428.5065
   1419.93896     691.2660     427.8634   1419.93896     691.2660     427.8634
   1419.92371     690.6717     427.1636   1419.92371     690.6717     427.1636
   1419.90845     690.7367     426.1494   1419.90845     690.7367     426.1494
   1419.89319     691.3727     425.9059   1419.89319     691.3727     425.9059
   1419.87793     691.0013     426.3283   1419.87793     691.0013     426.3283
   1419.86267     692.2064     425.0480   1419.86267     692.2064     425.0480
   1419.84741     691.5624     424.5172   1419.84741     691.5624     424.5172
   1419.83215     691.8427     425.2642   1419.83215     691.8427     425.2642
   1419.81689     692.1446     424.1987   1419.81689     692.1446     424.1987
   1419.80164     692.9224     423.6456   1419.80164     692.9224     423.6456
   1419.78638     692.7264     423.8422   1419.78638     692.7264     423.8422
   1419.77112     693.4725     423.0421   1419.77112     693.4725     423.0421
   1419.75586     692.3958     422.4343   1419.75586     692.3958     422.4343
   1419.74060     693.2433     422.0316   1419.74060     693.2433     422.0316
   1419.72534     693.4272     422.0988   1419.72534     693.4272     422.0988
   1419.71008     694.0394     422.1472   1419.71008     694.0394     422.1472
   1419.69482     693.6524     421.6724   1419.69482     693.6524     421.6724
   1419.67957     695.6795     421.5520   1419.67957     695.6795     421.5520
   1419.66431     694.7805     420.8427   1419.66431     694.7805     420.8427
   1419.64905     693.7964     420.4569   1419.64905     693.7964     420.4569
   1419.63379     694.5483     420.9135   1419.63379     694.5483     420.9135
   1419.61853     695.0272     420.0552   1419.61853     695.0272     420.0552
   1419.60327     695.8756     420.1251   1419.60327     695.8756     420.1251
   1419.58801     696.4713     419.7216   1419.58801     696.4713     419.7216
   1419.57275     696.9167     420.0206   1419.57275     696.9167     420.0206
   1419.55750     696.0220     419.3783   1419.55750     696.0220     419.3783
   1419.54224     697.0382     419.4524   1419.54224     697.0382     419.4524
   1419.52698     697.7831     419.6268   1419.52698     697.7831     419.6268
   1419.51172     698.2663     419.4668   1419.51172     698.2663     419.4668
   1419.49646     698.4952     419.1380   1419.49646     698.4952     419.1380
   1419.48120     698.5477     419.8300   1419.48120     698.5477     419.8300
   1419.46594     698.1281     417.7441   1419.46594     698.1281     417.7441
   1419.45068     700.4042     418.3437   1419.45068     700.4042     418.3437
   1419.43542     699.5499     418.0180   1419.43542     699.5499     418.0180
   1419.42017     698.9807     418.7720   1419.42017     698.9807     418.7720
   1419.40491     700.2727     418.4763   1419.40491     700.2727     418.4763
   1419.38965     700.4175     418.7254   1419.38965     700.4175     418.7254
   1419.37439     700.1282     418.1389   1419.37439     700.1282     418.1389
   1419.35913     702.2181     418.5110   1419.35913     702.2181     418.5110
   1419.34387     700.7872     419.5319   1419.34387     700.7872     419.5319
   1419.32861     701.8914     418.3404   1419.32861     701.8914     418.3404
   1419.31335     702.2834     419.0347   1419.31335     702.2834     419.0347
   1419.29810     702.3295     419.1528   1419.29810     702.3295     419.1528
   1419.28284     702.2236     418.8886   1419.28284     702.2236     418.8886
   1419.26758     704.2841     419.4115   1419.26758     704.2841     419.4115
   1419.25232     704.9618     418.7590   1419.25232     704.9618     418.7590
   1419.23706     705.1892     418.9667   1419.23706     705.1892     418.9667
   1419.22180     704.1505     419.2618   1419.22180     704.1505     419.2618
   1419.20654     706.0062     419.1588   1419.20654     706.0062     419.1588
   1419.19128     705.8769     419.6485   1419.19128     705.8769     419.6485
   1419.17603     707.0847     420.2091   1419.17603     707.0847     420.2091
   1419.16077     706.4092     420.2413   1419.16077     706.4092     420.2413
   1419.14551     707.3729     420.2992   1419.14551     707.3729     420.2992
   1419.13025     708.0969     420.5154   1419.13025     708.0969     420.5154
   1419.11499     709.5630     420.2054   1419.11499     709.5630     420.2054
   1419.09973     709.5958     420.2970   1419.09973     709.5958     420.2970
   1419.08447     710.0842     421.5142   1419.08447     710.0842     421.5142
   1419.06921     708.9512     421.0081   1419.06921     708.9512     421.0081
   1419.05396     710.3411     421.2355   1419.05396     710.3411     421.2355
   1419.03870     711.0459     421.8949   1419.03870     711.0459     421.8949
   1419.02344     711.5233     421.3979   1419.02344     711.5233     421.3979
   1419.00818     713.5049     422.0756   1419.00818     713.5049     422.0756
   1418.99292     713.0670     422.8693   1418.99292     713.0670     422.8693
   1418.97766     714.3499     422.1133   1418.97766     714.3499     422.1133
   1418.96240     713.6094     422.8391   1418.96240     713.6094     422.8391
   1418.94714     714.9948     423.6905   1418.94714     714.9948     423.6905
   1418.93188     714.8923     423.5007   1418.93188     714.8923     423.5007
   1418.91663     716.1353     424.5984   1418.91663     716.1353     424.5984
   1418.90137     717.2386     424.2562   1418.90137     717.2386     424.2562
   1418.88611     716.6293     424.7243   1418.88611     716.6293     424.7243
   1418.87085     718.3833     425.5222   1418.87085     718.3833     425.5222
   1418.85559     717.5206     425.9457   1418.85559     717.5206     425.9457
   1418.84033     719.7578     425.7512   1418.84033     719.7578     425.7512
   1418.82507     720.3744     425.7513   1418.82507     720.3744     425.7513
   1418.80981     719.1567     426.8833   1418.80981     719.1567     426.8833
   1418.79456     721.9654     427.6462   1418.79456     721.9654     427.6462
   1418.77930     722.6271     427.1770   1418.77930     722.6271     427.1770
   1418.76404     722.5109     428.2550   1418.76404     722.5109     428.2550
   1418.74878     723.2303     427.9616   1418.74878     723.2303     427.9616
   1418.73352     724.5268     429.7546   1418.73352     724.5268     429.7546
   1418.71826     725.1611     429.8643   1418.71826     725.1611     429.8643
   1418.70300     724.5905     430.0055   1418.70300     724.5905     430.0055
   1418.68774     726.0579     430.6375   1418.68774     726.0579     430.6375
   1418.67249     727.1823     431.2594   1418.67249     727.1823     431.2594
   1418.65723     727.8193     431.5207   1418.65723     727.8193     431.5207
   1418.64197     728.5325     432.2044   1418.64197     728.5325     432.2044
   1418.62671     729.7194     432.3748   1418.62671     729.7194     432.3748
   1418.61145     728.2623     433.4107   1418.61145     728.2623     433.4107
   1418.59619     730.9327     434.0588   1418.59619     730.9327     434.0588
   1418.58093     731.8109     434.7090   1418.58093     731.8109     434.7090
   1418.56567     732.2444     435.4795   1418.56567     732.2444     435.4795
   1418.55042     732.7772     436.3077   1418.55042     732.7772     436.3077
   1418.53516     733.2850     435.9564   1418.53516     733.2850     435.9564
   1418.51990     734.9589     437.3098   1418.51990     734.9589     437.3098
   1418.50464     735.0354     438.0417   1418.50464     735.0354     438.0417
   1418.48938     735.3545     438.7094   1418.48938     735.3545     438.7094
   1418.47412     737.0315     439.3662   1418.47412     737.0315     439.3662
   1418.45886     737.2147     439.9733   1418.45886     737.2147     439.9733
   1418.44360     738.1105     440.7204   1418.44360     738.1105     440.7204
   1418.42834     738.7916     441.1321   1418.42834     738.7916     441.1321
   1418.41309     739.9118     442.1044   1418.41309     739.9118     442.1044
   1418.39783     740.8329     442.5016   1418.39783     740.8329     442.5016
   1418.38257     741.8279     443.1630   1418.38257     741.8279     443.1630
   1418.36731     742.9622     443.6817   1418.36731     742.9622     443.6817
   1418.35205     743.5327     444.9806   1418.35205     743.5327     444.9806
   1418.33679     744.4551     445.8244   1418.33679     744.4551     445.8244
   1418.32153     745.5066     446.0242   1418.32153     745.5066     446.0242
   1418.30627     745.3758     446.8750   1418.30627     745.3758     446.8750
   1418.29102     747.8964     447.3475   1418.29102     747.8964     447.3475
   1418.27576     747.9899     448.2335   1418.27576     747.9899     448.2335
   1418.26050     748.5287     449.0575   1418.26050     748.5287     449.0575
   1418.24524     748.9368     449.8089   1418.24524     748.9368     449.8089
   1418.22998     750.8731     450.5317   1418.22998     750.8731     450.5317
   1418.21472     751.0900     451.9485   1418.21472     751.0900     451.9485
   1418.19946     752.4424     452.6159   1418.19946     752.4424     452.6159
   1418.18420     752.4210     453.3182   1418.18420     752.4210     453.3182
   1418.16895     754.1777     453.6727   1418.16895     754.1777     453.6727
   1418.15369     754.9755     454.8498   1418.15369     754.9755     454.8498
   1418.13843     755.2813     455.2482   1418.13843     755.2813     455.2482
   1418.12317     757.5117     457.3179   1418.12317     757.5117     457.3179
   1418.10791     757.9683     457.3201   1418.10791     757.9683     457.3201
   1418.09265     758.6476     458.9438   1418.09265     758.6476     458.9438
   1418.07739     759.1059     459.2872   1418.07739     759.1059     459.2872
   1418.06213     760.6411     459.8829   1418.06213     760.6411     459.8829
   1418.04688     761.9546     460.6541   1418.04688     761.9546     460.6541
   1418.03162     762.6396     461.4600   1418.03162     762.6396     461.4600
   1418.01636     763.6112     462.1155   1418.01636     763.6112     462.1155
   1418.00110     763.5748     463.5053   1418.00110     763.5748     463.5053
   1417.98584     765.9520     463.7831   1417.98584     765.9520     463.7831
   1417.97058     766.0280     464.8861   1417.97058     766.0280     464.8861
   1417.95532     767.6313     466.5007   1417.95532     767.6313     466.5007
   1417.94006     769.5026     466.8649   1417.94006     769.5026     466.8649
   1417.92480     769.0862     467.2778   1417.92480     769.0862     467.2778
   1417.90955     771.0341     469.3195   1417.90955     771.0341     469.3195
   1417.89429     771.1421     469.4739   1417.89429     771.1421     469.4739
   1417.87903     771.7734     470.3851   1417.87903     771.7734     470.3851
   1417.86377     772.6791     471.9140   1417.86377     772.6791     471.9140
   1417.84851     774.0742     472.2398   1417.84851     774.0742     472.2398
   1417.83325     774.4608     472.5435   1417.83325     774.4608     472.5435
   1417.81799     776.2478     473.9114   1417.81799     776.2478     473.9114
   1417.80273     777.5358     474.7318   1417.80273     777.5358     474.7318
   1417.78748     777.9521     475.6255   1417.78748     777.9521     475.6255
   1417.77222     778.5889     477.3383   1417.77222     778.5889     477.3383
   1417.75696     779.5837     477.2915   1417.75696     779.5837     477.2915
   1417.74170     779.6699     477.9904   1417.74170     779.6699     477.9904
   1417.72644     781.8177     478.9865   1417.72644     781.8177     478.9865
   1417.71118     782.7144     480.2048   1417.71118     782.7144     480.2048
   1417.69592     784.5403     481.1582   1417.69592     784.5403     481.1582
   1417.68066     784.7629     482.0520   1417.68066     784.7629     482.0520
   1417.66541     784.6126     482.0606   1417.66541     784.6126     482.0606
   1417.65015     786.5393     483.6847   1417.65015     786.5393     483.6847
   1417.63489     786.9944     485.0517   1417.63489     786.9944     485.0517
   1417.61963     788.0715     486.0916   1417.61963     788.0715     486.0916
   1417.60437     789.6613     486.5706   1417.60437     789.6613     486.5706
   1417.58911     790.0680     487.6983   1417.58911     790.0680     487.6983
   1417.57385     790.8643     487.9645   1417.57385     790.8643     487.9645
   1417.55859     791.7551     489.1085   1417.55859     791.7551     489.1085
   1417.54333     792.7609     489.9797   1417.54333     792.7609     489.9797
   1417.52808     794.1013     490.9553   1417.52808     794.1013     490.9553
   1417.51282     795.3344     491.9662   1417.51282     795.3344     491.9662
   1417.49756     794.7061     493.0029   1417.49756     794.7061     493.0029
   1417.48230     796.8647     494.0377   1417.48230     796.8647     494.0377
   1417.46704     797.7122     494.5695   1417.46704     797.7122     494.5695
   1417.45178     797.6154     495.3962   1417.45178     797.6154     495.3962
   1417.43652     798.4311     496.5842   1417.43652     798.4311     496.5842
   1417.42126     798.8456     497.4975   1417.42126     798.8456     497.4975
   1417.40601     799.9229     497.0727   1417.40601     799.9229     497.0727
   1417.39075     801.7705     498.9102   1417.39075     801.7705     498.9102
   1417.37549     803.2570     499.5829   1417.37549     803.2570     499.5829
   1417.36023     802.7227     499.8624   1417.36023     802.7227     499.8624
   1417.34497     803.9942     501.8074   1417.34497     803.9942     501.8074
   1417.32971     804.9286     501.7375   1417.32971     804.9286     501.7375
   1417.31445     805.4912     501.7451   1417.31445     805.4912     501.7451
   1417.29919     805.4996     503.8054   1417.29919     805.4996     503.8054
   1417.28394     807.9373     504.1443   1417.28394     807.9373     504.1443
   1417.26868     808.0759     505.1037   1417.26868     808.0759     505.1037
   1417.25342     808.4804     506.0827   1417.25342     808.4804     506.0827
   1417.23816     810.0350     506.7679   1417.23816     810.0350     506.7679
   1417.22290     809.7144     508.1607   1417.22290     809.7144     508.1607
   1417.20764     811.7637     508.0987   1417.20764     811.7637     508.0987
   1417.19238     811.0052     508.3224   1417.19238     811.0052     508.3224
   1417.17712     812.2385     509.4093   1417.17712     812.2385     509.4093
   1417.16187     814.0498     509.8434   1417.16187     814.0498     509.8434
   1417.14661     813.0458     511.4970   1417.14661     813.0458     511.4970
   1417.13135     813.4882     511.0606   1417.13135     813.4882     511.0606
   1417.11609     815.0566     511.5141   1417.11609     815.0566     511.5141
   1417.10083     817.7148     512.0477   1417.10083     817.7148     512.0477
   1417.08557     817.2294     513.3458   1417.08557     817.2294     513.3458
   1417.07031     817.6205     513.5512   1417.07031     817.6205     513.5512
   1417.05505     816.9870     513.8475   1417.05505     816.9870     513.8475
   1417.03979     817.5596     514.6909   1417.03979     817.5596     514.6909
   1417.02454     819.9024     514.6235   1417.02454     819.9024     514.6235
   1417.00928     819.4055     516.1693   1417.00928     819.4055     516.1693
   1416.99402     819.4227     516.0382   1416.99402     819.4227     516.0382
   1416.97876     820.3684     517.5026   1416.97876     820.3684     517.5026
   1416.96350     820.3236     516.9637   1416.96350     820.3236     516.9637
   1416.94824     823.2952     517.8546   1416.94824     823.2952     517.8546
   1416.93298     822.4638     518.5377   1416.93298     822.4638     518.5377
   1416.91772     822.0731     519.4503   1416.91772     822.0731     519.4503
   1416.90247     824.3369     519.2457   1416.90247     824.3369     519.2457
   1416.88721     823.4021     519.6230   1416.88721     823.4021     519.6230
   1416.87195     824.0722     519.9276   1416.87195     824.0722     519.9276
   1416.85669     825.2866     520.5416   1416.85669     825.2866     520.5416
   1416.84143     825.9197     520.3578   1416.84143     825.9197     520.3578
   1416.82617     825.3220     520.6144   1416.82617     825.3220     520.6144
   1416.81091     826.6462     521.5160   1416.81091     826.6462     521.5160
   1416.79565     825.8157     521.8198   1416.79565     825.8157     521.8198
   1416.78040     825.5272     522.6235   1416.78040     825.5272     522.6235
   1416.76514     826.0782     522.3424   1416.76514     826.0782     522.3424
   1416.74988     827.1369     523.2736   1416.74988     827.1369     523.2736
   1416.73462     826.1969     522.5905   1416.73462     826.1969     522.5905
   1416.71936     826.3072     522.6965   1416.71936     826.3072     522.6965
   1416.70410     828.5779     523.1434   1416.70410     828.5779     523.1434
   1416.68884     827.7819     523.2814   1416.68884     827.7819     523.2814
   1416.67358     827.7205     523.2744   1416.67358     827.7205     523.2744
   1416.65833     828.6291     523.3389   1416.65833     828.6291     523.3389
   1416.64307     828.6229     523.9697   1416.64307     828.6229     523.9697
   1416.62781     828.3002     523.6132   1416.62781     828.3002     523.6132
   1416.61255     829.0020     522.9844   1416.61255     829.0020     522.9844
   1416.59729     828.5583     523.8731   1416.59729     828.5583     523.8731
   1416.58203     828.7507     522.8716   1416.58203     828.7507     522.8716
   1416.56677     828.7123     523.2035   1416.56677     828.7123     523.2035
   1416.55151     829.4735     523.6750   1416.55151     829.4735     523.6750
   1416.53625     828.4603     523.9991   1416.53625     828.4603     523.9991
   1416.52100     828.5944     524.3564   1416.52100     828.5944     524.3564
   1416.50574     828.2444     523.6989   1416.50574     828.2444     523.6989
   1416.49048     828.9247     522.8708   1416.49048     828.9247     522.8708
   1416.47522     828.6889     523.6400   1416.47522     828.6889     523.6400
   1416.45996     828.7411     524.1407   1416.45996     828.7411     524.1407
   1416.44470     829.0793     523.0211   1416.44470     829.0793     523.0211
   1416.42944     829.2267     522.7433   1416.42944     829.2267     522.7433
   1416.41418     829.0964     523.1290   1416.41418     829.0964     523.1290
   1416.39893     828.6003     521.8545   1416.39893     828.6003     521.8545
   1416.38367     828.3499     522.0524   1416.38367     828.3499     522.0524
   1416.36841     828.5839     522.3049   1416.36841     828.5839     522.3049
   1416.35315     829.0361     522.0647   1416.35315     829.0361     522.0647
   1416.33789     827.3848     521.6879   1416.33789     827.3848     521.6879
   1416.32263     827.6982     520.8673   1416.32263     827.6982     520.8673
   1416.30737     828.7278     521.1339   1416.30737     828.7278     521.1339
   1416.29211     826.8800     520.8953   1416.29211     826.8800     520.8953
   1416.27686     828.1303     520.1286   1416.27686     828.1303     520.1286
   1416.26160     826.5483     520.4265   1416.26160     826.5483     520.4265
   1416.24634     826.7988     520.4034   1416.24634     826.7988     520.4034
   1416.23108     825.6974     519.4288   1416.23108     825.6974     519.4288
   1416.21582     827.2635     518.9852   1416.21582     827.2635     518.9852
   1416.20056     826.4101     518.2609   1416.20056     826.4101     518.2609
   1416.18530     825.0643     518.0958   1416.18530     825.0643     518.0958
   1416.17004     824.2159     517.7821   1416.17004     824.2159     517.7821
   1416.15479     824.8615     518.6478   1416.15479     824.8615     518.6478
   1416.13953     823.3864     517.4046   1416.13953     823.3864     517.4046
   1416.12427     822.8744     516.4901   1416.12427     822.8744     516.4901
   1416.10901     823.3189     516.2089   1416.10901     823.3189     516.2089
   1416.09375     822.7181     515.3186   1416.09375     822.7181     515.3186
   1416.07849     822.2422     515.3401   1416.07849     822.2422     515.3401
   1416.06323     821.5354     515.1533   1416.06323     821.5354     515.1533
   1416.04797     821.6038     515.0653   1416.04797     821.6038     515.0653
   1416.03271     820.2831     514.2266   1416.03271     820.2831     514.2266
   1416.01746     821.8234     513.6805   1416.01746     821.8234     513.6805
   1416.00220     820.7934     512.6400   1416.00220     820.7934     512.6400
   1415.98694     819.8575     512.6804   1415.98694     819.8575     512.6804
   1415.97168     819.1828     512.1046   1415.97168     819.1828     512.1046
   1415.95642     818.1523     511.8431   1415.95642     818.1523     511.8431
   1415.94116     817.4091     510.8346   1415.94116     817.4091     510.8346
   1415.92590     817.0830     510.6461   1415.92590     817.0830     510.6461
   1415.91064     815.8811     509.9930   1415.91064     815.8811     509.9930
   1415.89539     815.6096     509.6568   1415.89539     815.6096     509.6568
   1415.88013     815.1210     508.7561   1415.88013     815.1210     508.7561
   1415.86487     815.1821     508.0508   1415.86487     815.1821     508.0508
   1415.84961     814.4667     508.1116   1415.84961     814.4667     508.1116
   1415.83435     812.5979     507.3664   1415.83435     812.5979     507.3664
   1415.81909     811.4502     507.2982   1415.81909     811.4502     507.2982
   1415.80383     812.4666     505.5556   1415.80383     812.4666     505.5556
   1415.78857     810.5172     505.7397   1415.78857     810.5172     505.7397
   1415.77332     809.9702     505.1924   1415.77332     809.9702     505.1924
   1415.75806     808.8292     504.6479   1415.75806     808.8292     504.6479
   1415.74280     808.9421     504.1509   1415.74280     808.9421     504.1509
   1415.72754     807.2134     502.9175   1415.72754     807.2134     502.9175
   1415.71228     807.0731     502.9352   1415.71228     807.0731     502.9352
   1415.69702     805.0925     502.1900   1415.69702     805.0925     502.1900
   1415.68176     805.3844     501.5189   1415.68176     805.3844     501.5189
   1415.66650     805.0335     501.1433   1415.66650     805.0335     501.1433
   1415.65125     803.2191     500.5550   1415.65125     803.2191     500.5550
   1415.63599     802.3488     499.2150   1415.63599     802.3488     499.2150
   1415.62073     800.2800     498.9396   1415.62073     800.2800     498.9396
   1415.60547     800.2907     499.0439   1415.60547     800.2907     499.0439
   1415.59021     799.5197     497.8438   1415.59021     799.5197     497.8438
   1415.57495     799.1363     497.3256   1415.57495     799.1363     497.3256
   1415.55969     799.2018     496.5973   1415.55969     799.2018     496.5973
   1415.54443     796.1388     496.1586   1415.54443     796.1388     496.1586
   1415.52917     796.4321     496.4825   1415.52917     796.4321     496.4825
   1415.51392     794.8251     494.7444   1415.51392     794.8251     494.7444
   1415.49866     793.5992     494.6375   1415.49866     793.5992     494.6375
   1415.48340     793.0485     494.2267   1415.48340     793.0485     494.2267
   1415.46814     792.3008     492.9584   1415.46814     792.3008     492.9584
   1415.45288     790.7483     492.7359   1415.45288     790.7483     492.7359
   1415.43762     788.5216     491.5030   1415.43762     788.5216     491.5030
   1415.42236     788.4451     491.2318   1415.42236     788.4451     491.2318
   1415.40710     786.4535     490.6562   1415.40710     786.4535     490.6562
   1415.39185     786.8458     489.9593   1415.39185     786.8458     489.9593
   1415.37659     784.3566     488.6437   1415.37659     784.3566     488.6437
   1415.36133     784.3548     487.4276   1415.36133     784.3548     487.4276
   1415.34607     782.4782     486.6226   1415.34607     782.4782     486.6226
   1415.33081     780.2981     487.0895   1415.33081     780.2981     487.0895
   1415.31555     779.3742     486.1348   1415.31555     779.3742     486.1348
   1415.30029     780.1667     485.8109   1415.30029     780.1667     485.8109
   1415.28503     777.1598     484.4826   1415.28503     777.1598     484.4826
   1415.26978     776.6544     483.9504   1415.26978     776.6544     483.9504
   1415.25452     774.1784     483.1181   1415.25452     774.1784     483.1181
   1415.23926     773.5042     482.9747   1415.23926     773.5042     482.9747
   1415.22400     771.1785     482.1694   1415.22400     771.1785     482.1694
   1415.20874     770.8568     481.4305   1415.20874     770.8568     481.4305
   1415.19348     769.0001     480.3529   1415.19348     769.0001     480.3529
   1415.17822     767.4344     479.5998   1415.17822     767.4344     479.5998
   1415.16296     765.4352     478.8614   1415.16296     765.4352     478.8614
   1415.14771     764.4287     477.1689   1415.14771     764.4287     477.1689
   1415.13245     764.4443     477.4352   1415.13245     764.4443     477.4352
   1415.11719     761.9249     476.0669   1415.11719     761.9249     476.0669
   1415.10193     760.5634     475.1254   1415.10193     760.5634     475.1254
   1415.08667     758.8491     474.2921   1415.08667     758.8491     474.2921
   1415.07141     756.9167     473.6886   1415.07141     756.9167     473.6886
   1415.05615     755.8253     472.5476   1415.05615     755.8253     472.5476
   1415.04089     754.4775     471.8966   1415.04089     754.4775     471.8966
   1415.02563     752.2291     470.6518   1415.02563     752.2291     470.6518
   1415.01038     751.7164     470.8573   1415.01038     751.7164     470.8573
   1414.99512     748.3063     469.3669   1414.99512     748.3063     469.3669
   1414.97986     747.4830     468.8872   1414.97986     747.4830     468.8872
   1414.96460     745.9061     468.3115   1414.96460     745.9061     468.3115
   1414.94934     744.0370     467.0697   1414.94934     744.0370     467.0697
   1414.93408     742.5046     465.9201   1414.93408     742.5046     465.9201
   1414.91882     740.8540     464.2413   1414.91882     740.8540     464.2413
   1414.90356     739.3398     465.0220   1414.90356     739.3398     465.0220
   1414.88831     737.3903     462.8922   1414.88831     737.3903     462.8922
   1414.87305     736.2181     461.8340   1414.87305     736.2181     461.8340
   1414.85779     734.2420     461.6658   1414.85779     734.2420     461.6658
   1414.84253     731.6480     459.6264   1414.84253     731.6480     459.6264
   1414.82727     729.5084     458.9089   1414.82727     729.5084     458.9089
   1414.81201     727.3964     457.9897   1414.81201     727.3964     457.9897
   1414.79675     725.6312     457.6905   1414.79675     725.6312     457.6905
   1414.78149     724.8223     456.2468   1414.78149     724.8223     456.2468
   1414.76624     721.5640     455.1180   1414.76624     721.5640     455.1180
   1414.75098     719.3160     454.2064   1414.75098     719.3160     454.2064
   1414.73572     718.0457     453.2272   1414.73572     718.0457     453.2272
   1414.72046     716.4484     451.7700   1414.72046     716.4484     451.7700
   1414.70520     714.1804     450.9597   1414.70520     714.1804     450.9597
   1414.68994     710.7745     449.9130   1414.68994     710.7745     449.9130
   1414.67468     710.1917     448.5590   1414.67468     710.1917     448.5590
   1414.65942     707.0202     448.1868   1414.65942     707.0202     448.1868
   1414.64417     704.7906     446.1690   1414.64417     704.7906     446.1690
   1414.62891     703.3447     444.7348   1414.62891     703.3447     444.7348
   1414.61365     701.4636     444.0053   1414.61365     701.4636     444.0053
   1414.59839     699.8284     443.5935   1414.59839     699.8284     443.5935
   1414.58313     695.4904     442.0559   1414.58313     695.4904     442.0559
   1414.56787     694.0819     440.0645   1414.56787     694.0819     440.0645
   1414.55261     691.1241     438.5634   1414.55261     691.1241     438.5634
   1414.53735     688.9229     438.5692   1414.53735     688.9229     438.5692
   1414.52209     688.0333     437.5848   1414.52209     688.0333     437.5848
   1414.50684     685.2231     435.5166   1414.50684     685.2231     435.5166
   1414.49158     682.3552     434.7972   1414.49158     682.3552     434.7972
   1414.47632     680.6431     433.9210   1414.47632     680.6431     433.9210
   1414.46106     678.7784     432.3214   1414.46106     678.7784     432.3214
   1414.44580     676.1705     431.6488   1414.44580     676.1705     431.6488
   1414.43054     673.6242     429.8464   1414.43054     673.6242     429.8464
   1414.41528     670.2713     428.9373   1414.41528     670.2713     428.9373
   1414.40002     667.6858     427.5351   1414.40002     667.6858     427.5351
   1414.38477     664.6839     426.5349   1414.38477     664.6839     426.5349
   1414.36951     662.9608     424.3186   1414.36951     662.9608     424.3186
   1414.35425     659.7706     423.9519   1414.35425     659.7706     423.9519
   1414.33899     657.3609     421.9692   1414.33899     657.3609     421.9692
   1414.32373     655.0810     421.4790   1414.32373     655.0810     421.4790
   1414.30847     651.5205     419.5296   1414.30847     651.5205     419.5296
   1414.29321     651.4230     418.8529   1414.29321     651.4230     418.8529
   1414.27795     647.9362     416.4815   1414.27795     647.9362     416.4815
   1414.26270     644.2516     415.3140   1414.26270     644.2516     415.3140
   1414.24744     642.9282     414.7276   1414.24744     642.9282     414.7276
   1414.23218     639.5884     413.2538   1414.23218     639.5884     413.2538
   1414.21692     636.0370     411.7734   1414.21692     636.0370     411.7734
   1414.20166     633.8004     409.9910   1414.20166     633.8004     409.9910
   1414.18640     631.4849     408.9310   1414.18640     631.4849     408.9310
   1414.17114     628.2481     408.0165   1414.17114     628.2481     408.0165
   1414.15588     625.2609     406.4424   1414.15588     625.2609     406.4424
   1414.14062     622.0835     404.3300   1414.14062     622.0835     404.3300
   1414.12537     619.6682     403.1769   1414.12537     619.6682     403.1769
   1414.11011     617.1656     401.5906   1414.11011     617.1656     401.5906
   1414.09485     613.6231     400.2878   1414.09485     613.6231     400.2878
   1414.07959     612.0722     398.9843   1414.07959     612.0722     398.9843
   1414.06433     608.5829     397.3332   1414.06433     608.5829     397.3332
   1414.04907     604.7172     395.4254   1414.04907     604.7172     395.4254
   1414.03381     603.0114     394.5692   1414.03381     603.0114     394.5692
   1414.01855     599.6912     393.3965   1414.01855     599.6912     393.3965
   1414.00330     605.2942     396.6060   1414.00330     605.2942     396.6060
   1413.98804     594.4052     390.4707   1413.98804     594.4052     390.4707
   1413.97278     591.6805     388.2961   1413.97278     591.6805     388.2961
   1413.95752     588.6134     387.0476   1413.95752     588.6134     387.0476
   1413.94226     585.2225     385.2284   1413.94226     585.2225     385.2284
   1413.92700     582.2536     384.2009   1413.92700     582.2536     384.2009
   1413.91174     578.8326     382.2408   1413.91174     578.8326     382.2408
   1413.89648     576.6532     380.7636   1413.89648     576.6532     380.7636
   1413.88123     572.9116     380.1835   1413.88123     572.9116     380.1835
   1413.86597     569.9751     378.3643   1413.86597     569.9751     378.3643
   1413.85071     567.2634     376.3447   1413.85071     567.2634     376.3447
   1413.83545     564.2971     374.6698   1413.83545     564.2971     374.6698
   1413.82019     561.2178     373.4245   1413.82019     561.2178     373.4245
   1413.80493     557.8734     371.3471   1413.80493     557.8734     371.3471
   1413.78967     556.1184     370.4090   1413.78967     556.1184     370.4090
   1413.77441     552.1217     368.5899   1413.77441     552.1217     368.5899
   1413.75916     549.7907     367.3644   1413.75916     549.7907     367.3644
   1413.74390     545.9392     365.7126   1413.74390     545.9392     365.7126
   1413.72864     543.1729     364.3676   1413.72864     543.1729     364.3676
   1413.71338     540.1646     362.8643   1413.71338     540.1646     362.8643
   1413.69812     536.5881     361.1624   1413.69812     536.5881     361.1624
   1413.68286     533.6946     359.3637   1413.68286     533.6946     359.3637
   1413.66760     530.9125     358.1493   1413.66760     530.9125     358.1493
   1413.65234     528.6873     356.1399   1413.65234     528.6873     356.1399
   1413.63708     525.3635     355.2422   1413.63708     525.3635     355.2422
   1413.62183     522.0489     352.9298   1413.62183     522.0489     352.9298
   1413.60657     518.8226     351.5141   1413.60657     518.8226     351.5141
   1413.59131     516.5255     350.0002   1413.59131     516.5255     350.0002
   1413.57605     512.5300     348.3749   1413.57605     512.5300     348.3749
   1413.56079     509.9896     346.9668   1413.56079     509.9896     346.9668
   1413.54553     507.0826     345.5277   1413.54553     507.0826     345.5277
   1413.53027     504.9601     344.3195   1413.53027     504.9601     344.3195
   1413.51501     500.9830     342.2965   1413.51501     500.9830     342.2965
   1413.49976     497.8481     340.7995   1413.49976     497.8481     340.7995
   1413.48450     495.3360     339.5643   1413.48450     495.3360     339.5643
   1413.46924     493.0011     338.4962   1413.46924     493.0011     338.4962
   1413.45398     489.2323     336.7814   1413.45398     489.2323     336.7814
   1413.43872     486.2810     335.8653   1413.43872     486.2810     335.8653
   1413.42346     483.7200     333.6764   1413.42346     483.7200     333.6764
   1413.40820     481.4465     332.6972   1413.40820     481.4465     332.6972
   1413.39294     478.4385     330.8821   1413.39294     478.4385     330.8821
   1413.37769     474.8705     329.6949   1413.37769     474.8705     329.6949
   1413.36243     473.3564     328.0771   1413.36243     473.3564     328.0771
   1413.34717     469.5142     326.6767   1413.34717     469.5142     326.6767
   1413.33191     466.3405     324.6308   1413.33191     466.3405     324.6308
   1413.31665     464.5594     324.2033   1413.31665     464.5594     324.2033
   1413.30139     461.6066     322.5080   1413.30139     461.6066     322.5080
   1413.28613     459.0770     320.7135   1413.28613     459.0770     320.7135
   1413.27087     456.8387     319.3880   1413.27087     456.8387     319.3880
   1413.25562     453.5264     317.9962   1413.25562     453.5264     317.9962
   1413.24036     450.8000     316.9364   1413.24036     450.8000     316.9364
   1413.22510     447.9654     315.0135   1413.22510     447.9654     315.0135
   1413.20984     445.6185     314.4450   1413.20984     445.6185     314.4450
   1413.19458     443.5441     312.1757   1413.19458     443.5441     312.1757
   1413.17932     440.5875     311.5493   1413.17932     440.5875     311.5493
   1413.16406     438.0705     310.7156   1413.16406     438.0705     310.7156
   1413.14880     435.9748     308.9668   1413.14880     435.9748     308.9668
   1413.13354     432.8925     307.4789   1413.13354     432.8925     307.4789
   1413.11829     430.9755     306.1941   1413.11829     430.9755     306.1941
   1413.10303     428.3664     305.8239   1413.10303     428.3664     305.8239
   1413.08777     426.5947     304.5313   1413.08777     426.5947     304.5313
   1413.07251     423.2784     302.9321   1413.07251     423.2784     302.9321
   1413.05725     421.4038     301.6149   1413.05725     421.4038     301.6149
   1413.04199     418.2293     300.9925   1413.04199     418.2293     300.9925
   1413.02673     417.2293     299.7686   1413.02673     417.2293     299.7686
   1413.01147     414.7689     299.1912   1413.01147     414.7689     299.1912
   1412.99622     413.3569     297.5360   1412.99622     413.3569     297.5360
   1412.98096     410.5580     296.5406   1412.98096     410.5580     296.5406
   1412.96570     408.2774     294.9666   1412.96570     408.2774     294.9666
   1412.95044     406.4791     294.4750   1412.95044     406.4791     294.4750
   1412.93518     404.4989     293.8083   1412.93518     404.4989     293.8083
   1412.91992     402.8228     292.8881   1412.91992     402.8228     292.8881
   1412.90466     400.1542     291.8867   1412.90466     400.1542     291.8867
   1412.88940     398.9387     290.7272   1412.88940     398.9387     290.7272
   1412.87415     397.8272     290.0933   1412.87415     397.8272     290.0933
   1412.85889     395.5730     288.9600   1412.85889     395.5730     288.9600
   1412.84363     393.6147     288.4472   1412.84363     393.6147     288.4472
   1412.82837     392.0414     287.7629   1412.82837     392.0414     287.7629
   1412.81311     390.6754     286.9971   1412.81311     390.6754     286.9971
   1412.79785     388.6042     286.2971   1412.79785     388.6042     286.2971
   1412.78259     387.2041     284.9966   1412.78259     387.2041     284.9966
   1412.76733     386.6810     284.5668   1412.76733     386.6810     284.5668
   1412.75208     384.9379     284.1245   1412.75208     384.9379     284.1245
   1412.73682     383.3137     283.9307   1412.73682     383.3137     283.9307
   1412.72156     381.0867     282.7221   1412.72156     381.0867     282.7221
   1412.70630     381.3423     282.4529   1412.70630     381.3423     282.4529
   1412.69104     378.9051     281.8980   1412.69104     378.9051     281.8980
   1412.67578     377.9942     281.3102   1412.67578     377.9942     281.3102
   1412.66052     376.9886     280.5513   1412.66052     376.9886     280.5513
   1412.64526     376.1821     280.3564   1412.64526     376.1821     280.3564
   1412.63000     374.9397     279.9276   1412.63000     374.9397     279.9276
   1412.61475     374.0482     280.0290   1412.61475     374.0482     280.0290
   1412.59949     373.5395     279.3813   1412.59949     373.5395     279.3813
   1412.58423     372.4979     279.4269   1412.58423     372.4979     279.4269
   1412.56897     372.0538     278.7830   1412.56897     372.0538     278.7830
   1412.55371     371.0612     278.9341   1412.55371     371.0612     278.9341
   1412.53845     370.5269     278.8769   1412.53845     370.5269     278.8769
   1412.52319     369.2999     278.8568   1412.52319     369.2999     278.8568
   1412.50793     369.3927     278.2921   1412.50793     369.3927     278.2921
   1412.49268     367.9417     277.9118   1412.49268     367.9417     277.9118
   1412.47742     367.7683     278.4261   1412.47742     367.7683     278.4261
   1412.46216     367.9021     278.5624   1412.46216     367.9021     278.5624
   1412.44690     366.9263     278.1808   1412.44690     366.9263     278.1808
   1412.43164     366.8137     278.5217   1412.43164     366.8137     278.5217
   1412.41638     366.7625     279.0534   1412.41638     366.7625     279.0534
   1412.40112     366.0866     278.5994   1412.40112     366.0866     278.5994
   1412.38586     365.9572     279.3797   1412.38586     365.9572     279.3797
   1412.37061     366.7839     279.3766   1412.37061     366.7839     279.3766
   1412.35535     365.6398     279.5166   1412.35535     365.6398     279.5166
   1412.34009     366.2115     280.0170   1412.34009     366.2115     280.0170
   1412.32483     366.6606     280.0457   1412.32483     366.6606     280.0457
   1412.30957     366.5421     280.4359   1412.30957     366.5421     280.4359
   1412.29431     366.9008     280.5681   1412.29431     366.9008     280.5681
   1412.27905     367.6020     281.4649   1412.27905     367.6020     281.4649
   1412.26379     367.4911     281.6745   1412.26379     367.4911     281.6745
   1412.24854     367.4615     282.6277   1412.24854     367.4615     282.6277
   1412.23328     368.4556     282.9889   1412.23328     368.4556     282.9889
   1412.21802     369.2743     283.6028   1412.21802     369.2743     283.6028
   1412.20276     369.4893     284.1104   1412.20276     369.4893     284.1104