#     FILENAME=!Skynet_57528_lach-hhg-133_20440_20957.cyb.fits
#     BASENAME=Skynet_57528_lach-hhg-133_20440_20957
#     SRC_NAME=lach-hhg-133
#     OBSERVER=hhgmadison16_9500
#     DATE_OBS=2016-05-20T17:03:34.120
#        OBSID=20440
#      SCANNUM=20957
#          MJD=57528.7119
#          UTC=61503
#     SCANTYPE=track
#     DATAMODE=HIRES
#     TUNEFREQ=1420.0000
# Actual_FREQ1=1420.0000
# Actual_FREQ2=1420.0000
#    LO1Tuning=6870.000
#     RFFILTER=1355_1435
#        OBSBW=-15.6250
#        NCHAN=1024 
#        FOCUS=37.0709
#           RA=02:16:36.56
#          DEC=61:11:51.93
#      RA(hrs)=2.276800
#     DEC(deg)=61.197800
#    AZIM(deg)=337.105
#    ELEV(deg)=63.803
#     IFattens=11.00, 10.00
#      WARNING=None
#    TCAL_XL1=7.9635
#    TCAL_YR1=9.1340
#    TCAL_XL2=7.9635
#    TCAL_YR2=9.1340
#     TRX_XL1=11.7060
#     TRX_YR1=11.7060
#     TRX_XL2=11.7060
#     TRX_YR2=11.7060
#        TAVE=1.0000
#Freq1(MHz)          XL1          YR1  Freq2(MHz)          XL2          YR2 

   1427.81250     300.9268     239.3555   1427.81250     300.9268     239.3555
   1427.79724     300.9807     240.1570   1427.79724     300.9807     240.1570
   1427.78198     301.5112     240.4235   1427.78198     301.5112     240.4235
   1427.76672     301.7600     241.5044   1427.76672     301.7600     241.5044
   1427.75146     302.3729     242.4426   1427.75146     302.3729     242.4426
   1427.73621     303.0855     242.8745   1427.73621     303.0855     242.8745
   1427.72095     304.1461     244.1409   1427.72095     304.1461     244.1409
   1427.70569     304.8369     245.2115   1427.70569     304.8369     245.2115
   1427.69043     305.4914     246.0024   1427.69043     305.4914     246.0024
   1427.67517     306.7008     246.6137   1427.67517     306.7008     246.6137
   1427.65991     307.2466     248.2295   1427.65991     307.2466     248.2295
   1427.64465     308.4941     249.2425   1427.64465     308.4941     249.2425
   1427.62939     309.5106     250.5916   1427.62939     309.5106     250.5916
   1427.61414     310.7073     251.4917   1427.61414     310.7073     251.4917
   1427.59888     311.5638     252.5639   1427.59888     311.5638     252.5639
   1427.58362     312.4454     253.4640   1427.58362     312.4454     253.4640
   1427.56836     313.6887     254.7983   1427.56836     313.6887     254.7983
   1427.55310     315.4074     255.8457   1427.55310     315.4074     255.8457
   1427.53784     316.5293     257.2820   1427.53784     316.5293     257.2820
   1427.52258     317.6389     258.8532   1427.52258     317.6389     258.8532
   1427.50732     318.7460     259.9856   1427.50732     318.7460     259.9856
   1427.49207     320.1023     261.3630   1427.49207     320.1023     261.3630
   1427.47681     321.9576     263.2223   1427.47681     321.9576     263.2223
   1427.46155     322.6681     264.4423   1427.46155     322.6681     264.4423
   1427.44629     324.3319     265.8416   1427.44629     324.3319     265.8416
   1427.43103     326.3704     267.6025   1427.43103     326.3704     267.6025
   1427.41577     327.9937     269.5072   1427.41577     327.9937     269.5072
   1427.40051     329.3315     270.2489   1427.40051     329.3315     270.2489
   1427.38525     331.2779     272.0572   1427.38525     331.2779     272.0572
   1427.37000     332.1248     274.1735   1427.37000     332.1248     274.1735
   1427.35474     333.5744     275.4948   1427.35474     333.5744     275.4948
   1427.33948     335.7955     276.6828   1427.33948     335.7955     276.6828
   1427.32422     337.4557     278.1403   1427.32422     337.4557     278.1403
   1427.30896     339.8858     280.3681   1427.30896     339.8858     280.3681
   1427.29370     341.2889     281.8125   1427.29370     341.2889     281.8125
   1427.27844     343.1402     283.9477   1427.27844     343.1402     283.9477
   1427.26318     345.1891     285.2693   1427.26318     345.1891     285.2693
   1427.24792     346.8248     287.7328   1427.24792     346.8248     287.7328
   1427.23267     348.9777     289.0052   1427.23267     348.9777     289.0052
   1427.21741     351.4494     290.6985   1427.21741     351.4494     290.6985
   1427.20215     352.8284     292.5853   1427.20215     352.8284     292.5853
   1427.18689     355.2645     294.1833   1427.18689     355.2645     294.1833
   1427.17163     356.9659     296.4668   1427.17163     356.9659     296.4668
   1427.15637     359.7325     298.1566   1427.15637     359.7325     298.1566
   1427.14111     361.5201     300.1923   1427.14111     361.5201     300.1923
   1427.12585     363.9324     302.0782   1427.12585     363.9324     302.0782
   1427.11060     365.8159     304.1158   1427.11060     365.8159     304.1158
   1427.09534     368.1374     306.1990   1427.09534     368.1374     306.1990
   1427.08008     370.3098     307.9149   1427.08008     370.3098     307.9149
   1427.06482     373.2486     310.1517   1427.06482     373.2486     310.1517
   1427.04956     375.0773     312.0344   1427.04956     375.0773     312.0344
   1427.03430     377.4677     313.6165   1427.03430     377.4677     313.6165
   1427.01904     379.6275     315.9356   1427.01904     379.6275     315.9356
   1427.00378     381.7540     318.4014   1427.00378     381.7540     318.4014
   1426.98853     384.9145     320.4142   1426.98853     384.9145     320.4142
   1426.97327     386.3476     322.6628   1426.97327     386.3476     322.6628
   1426.95801     389.3704     324.5364   1426.95801     389.3704     324.5364
   1426.94275     391.8817     326.5879   1426.94275     391.8817     326.5879
   1426.92749     394.0604     328.8365   1426.92749     394.0604     328.8365
   1426.91223     396.7780     330.5502   1426.91223     396.7780     330.5502
   1426.89697     399.2541     332.5526   1426.89697     399.2541     332.5526
   1426.88171     401.7503     335.1326   1426.88171     401.7503     335.1326
   1426.86646     403.0279     336.9607   1426.86646     403.0279     336.9607
   1426.85120     407.1708     338.7335   1426.85120     407.1708     338.7335
   1426.83594     408.8990     341.8430   1426.83594     408.8990     341.8430
   1426.82068     411.3696     343.6737   1426.82068     411.3696     343.6737
   1426.80542     414.0699     345.4721   1426.80542     414.0699     345.4721
   1426.79016     417.4808     347.8503   1426.79016     417.4808     347.8503
   1426.77490     419.8216     349.7582   1426.77490     419.8216     349.7582
   1426.75964     421.8685     352.4514   1426.75964     421.8685     352.4514
   1426.74438     423.9623     354.2048   1426.74438     423.9623     354.2048
   1426.72913     426.8381     356.0275   1426.72913     426.8381     356.0275
   1426.71387     429.8922     357.9862   1426.71387     429.8922     357.9862
   1426.69861     432.2693     360.2978   1426.69861     432.2693     360.2978
   1426.68335     434.8164     362.6664   1426.68335     434.8164     362.6664
   1426.66809     437.3199     364.3218   1426.66809     437.3199     364.3218
   1426.65283     439.3723     366.7389   1426.65283     439.3723     366.7389
   1426.63757     442.6418     369.0070   1426.63757     442.6418     369.0070
   1426.62231     445.6444     372.4156   1426.62231     445.6444     372.4156
   1426.60706     447.7878     373.2988   1426.60706     447.7878     373.2988
   1426.59180     449.2263     375.6989   1426.59180     449.2263     375.6989
   1426.57654     453.3020     377.2262   1426.57654     453.3020     377.2262
   1426.56128     455.4930     379.4638   1426.56128     455.4930     379.4638
   1426.54602     458.7375     382.0600   1426.54602     458.7375     382.0600
   1426.53076     461.1494     383.9768   1426.53076     461.1494     383.9768
   1426.51550     463.1490     385.8924   1426.51550     463.1490     385.8924
   1426.50024     466.3588     388.2017   1426.50024     466.3588     388.2017
   1426.48499     468.9845     390.0003   1426.48499     468.9845     390.0003
   1426.46973     471.6656     391.2435   1426.46973     471.6656     391.2435
   1426.45447     473.8654     392.9941   1426.45447     473.8654     392.9941
   1426.43921     475.8921     395.6003   1426.43921     475.8921     395.6003
   1426.42395     478.4318     398.2576   1426.42395     478.4318     398.2576
   1426.40869     481.8300     400.1731   1426.40869     481.8300     400.1731
   1426.39343     483.8065     401.4675   1426.39343     483.8065     401.4675
   1426.37817     486.5585     404.1059   1426.37817     486.5585     404.1059
   1426.36292     488.4638     405.6095   1426.36292     488.4638     405.6095
   1426.34766     491.3720     408.1166   1426.34766     491.3720     408.1166
   1426.33240     492.9916     410.2863   1426.33240     492.9916     410.2863
   1426.31714     496.1289     412.3000   1426.31714     496.1289     412.3000
   1426.30188     499.7569     414.6119   1426.30188     499.7569     414.6119
   1426.28662     500.7612     416.0168   1426.28662     500.7612     416.0168
   1426.27136     503.2448     417.3352   1426.27136     503.2448     417.3352
   1426.25610     506.4869     419.2521   1426.25610     506.4869     419.2521
   1426.24084     508.3961     421.3870   1426.24084     508.3961     421.3870
   1426.22559     510.7351     423.7031   1426.22559     510.7351     423.7031
   1426.21033     513.3994     425.1256   1426.21033     513.3994     425.1256
   1426.19507     515.9451     426.7969   1426.19507     515.9451     426.7969
   1426.17981     517.5103     429.2201   1426.17981     517.5103     429.2201
   1426.16455     519.9313     430.9734   1426.16455     519.9313     430.9734
   1426.14929     522.5015     432.2806   1426.14929     522.5015     432.2806
   1426.13403     525.1000     434.0371   1426.13403     525.1000     434.0371
   1426.11877     527.0538     435.9209   1426.11877     527.0538     435.9209
   1426.10352     529.2347     438.0046   1426.10352     529.2347     438.0046
   1426.08826     531.8022     439.5654   1426.08826     531.8022     439.5654
   1426.07300     533.4700     440.6886   1426.07300     533.4700     440.6886
   1426.05774     536.0853     442.8199   1426.05774     536.0853     442.8199
   1426.04248     538.6708     444.5756   1426.04248     538.6708     444.5756
   1426.02722     540.1558     445.2377   1426.02722     540.1558     445.2377
   1426.01196     542.7031     446.8371   1426.01196     542.7031     446.8371
   1425.99670     544.4458     449.3464   1425.99670     544.4458     449.3464
   1425.98145     546.8944     451.5650   1425.98145     546.8944     451.5650
   1425.96619     548.1851     452.6930   1425.96619     548.1851     452.6930
   1425.95093     550.4747     453.8546   1425.95093     550.4747     453.8546
   1425.93567     553.2199     455.0189   1425.93567     553.2199     455.0189
   1425.92041     554.2731     456.6834   1425.92041     554.2731     456.6834
   1425.90515     556.7564     457.7079   1425.90515     556.7564     457.7079
   1425.88989     557.7795     460.6396   1425.88989     557.7795     460.6396
   1425.87463     560.3086     461.0959   1425.87463     560.3086     461.0959
   1425.85938     562.1439     462.7751   1425.85938     562.1439     462.7751
   1425.84412     563.3116     463.7071   1425.84412     563.3116     463.7071
   1425.82886     565.7343     465.3860   1425.82886     565.7343     465.3860
   1425.81360     566.9821     466.9196   1425.81360     566.9821     466.9196
   1425.79834     570.3788     468.8017   1425.79834     570.3788     468.8017
   1425.78308     570.7906     469.1990   1425.78308     570.7906     469.1990
   1425.76782     572.4868     471.0800   1425.76782     572.4868     471.0800
   1425.75256     573.6964     471.5105   1425.75256     573.6964     471.5105
   1425.73730     575.6994     473.5155   1425.73730     575.6994     473.5155
   1425.72205     577.4642     474.6585   1425.72205     577.4642     474.6585
   1425.70679     579.0215     476.1759   1425.70679     579.0215     476.1759
   1425.69153     580.2906     477.6320   1425.69153     580.2906     477.6320
   1425.67627     582.3585     478.9521   1425.67627     582.3585     478.9521
   1425.66101     583.8868     479.6986   1425.66101     583.8868     479.6986
   1425.64575     584.0049     481.5023   1425.64575     584.0049     481.5023
   1425.63049     587.3977     482.1761   1425.63049     587.3977     482.1761
   1425.61523     588.1440     483.0821   1425.61523     588.1440     483.0821
   1425.59998     589.7563     484.6278   1425.59998     589.7563     484.6278
   1425.58472     591.1187     485.5998   1425.58472     591.1187     485.5998
   1425.56946     591.6394     485.9944   1425.56946     591.6394     485.9944
   1425.55420     593.0086     487.2640   1425.55420     593.0086     487.2640
   1425.53894     595.0746     489.0700   1425.53894     595.0746     489.0700
   1425.52368     595.8700     489.0075   1425.52368     595.8700     489.0075
   1425.50842     596.8511     490.8311   1425.50842     596.8511     490.8311
   1425.49316     598.4711     492.4765   1425.49316     598.4711     492.4765
   1425.47791     599.9671     492.7856   1425.47791     599.9671     492.7856
   1425.46265     600.6055     493.3302   1425.46265     600.6055     493.3302
   1425.44739     601.1788     494.7175   1425.44739     601.1788     494.7175
   1425.43213     602.5016     495.7277   1425.43213     602.5016     495.7277
   1425.41687     604.4904     496.6632   1425.41687     604.4904     496.6632
   1425.40161     605.3863     497.0428   1425.40161     605.3863     497.0428
   1425.38635     606.1243     498.0065   1425.38635     606.1243     498.0065
   1425.37109     607.1343     499.0308   1425.37109     607.1343     499.0308
   1425.35583     607.4441     500.0387   1425.35583     607.4441     500.0387
   1425.34058     608.6974     500.7168   1425.34058     608.6974     500.7168
   1425.32532     609.1909     501.2976   1425.32532     609.1909     501.2976
   1425.31006     610.0718     503.1461   1425.31006     610.0718     503.1461
   1425.29480     611.2724     503.2549   1425.29480     611.2724     503.2549
   1425.27954     611.2820     503.5383   1425.27954     611.2820     503.5383
   1425.26428     612.6180     503.7176   1425.26428     612.6180     503.7176
   1425.24902     613.8245     505.6485   1425.24902     613.8245     505.6485
   1425.23376     614.5424     506.4601   1425.23376     614.5424     506.4601
   1425.21851     615.0862     506.6152   1425.21851     615.0862     506.6152
   1425.20325     616.1470     508.6312   1425.20325     616.1470     508.6312
   1425.18799     615.9379     508.5493   1425.18799     615.9379     508.5493
   1425.17273     617.6500     508.7384   1425.17273     617.6500     508.7384
   1425.15747     618.1646     509.4300   1425.15747     618.1646     509.4300
   1425.14221     618.9260     510.5518   1425.14221     618.9260     510.5518
   1425.12695     619.7418     511.2586   1425.12695     619.7418     511.2586
   1425.11169     619.0976     510.8130   1425.11169     619.0976     510.8130
   1425.09644     620.0114     511.2257   1425.09644     620.0114     511.2257
   1425.08118     619.8586     512.2526   1425.08118     619.8586     512.2526
   1425.06592     621.3451     513.2438   1425.06592     621.3451     513.2438
   1425.05066     621.4937     512.8894   1425.05066     621.4937     512.8894
   1425.03540     621.9533     513.4480   1425.03540     621.9533     513.4480
   1425.02014     623.2557     514.8171   1425.02014     623.2557     514.8171
   1425.00488     624.2175     514.9111   1425.00488     624.2175     514.9111
   1424.98962     623.8387     515.7341   1424.98962     623.8387     515.7341
   1424.97437     623.4207     515.4157   1424.97437     623.4207     515.4157
   1424.95911     624.2029     516.7725   1424.95911     624.2029     516.7725
   1424.94385     624.1445     516.9227   1424.94385     624.1445     516.9227
   1424.92859     624.9661     516.5024   1424.92859     624.9661     516.5024
   1424.91333     625.5290     517.6870   1424.91333     625.5290     517.6870
   1424.89807     625.3250     517.6819   1424.89807     625.3250     517.6819
   1424.88281     625.2599     518.0080   1424.88281     625.2599     518.0080
   1424.86755     625.0352     518.5176   1424.86755     625.0352     518.5176
   1424.85229     626.5410     518.2326   1424.85229     626.5410     518.2326
   1424.83704     624.6374     519.8292   1424.83704     624.6374     519.8292
   1424.82178     625.9187     518.9747   1424.82178     625.9187     518.9747
   1424.80652     626.1261     520.6347   1424.80652     626.1261     520.6347
   1424.79126     626.4821     519.6906   1424.79126     626.4821     519.6906
   1424.77600     626.1229     520.0008   1424.77600     626.1229     520.0008
   1424.76074     626.9191     520.6796   1424.76074     626.9191     520.6796
   1424.74548     625.7342     520.4285   1424.74548     625.7342     520.4285
   1424.73022     626.7972     520.4617   1424.73022     626.7972     520.4617
   1424.71497     626.2664     520.9250   1424.71497     626.2664     520.9250
   1424.69971     626.7169     520.7366   1424.69971     626.7169     520.7366
   1424.68445     626.3530     520.9117   1424.68445     626.3530     520.9117
   1424.66919     625.8298     520.3600   1424.66919     625.8298     520.3600
   1424.65393     626.6082     521.4139   1424.65393     626.6082     521.4139
   1424.63867     626.1650     521.7815   1424.63867     626.1650     521.7815
   1424.62341     626.5009     521.1925   1424.62341     626.5009     521.1925
   1424.60815     627.0262     521.5259   1424.60815     627.0262     521.5259
   1424.59290     625.8983     520.9341   1424.59290     625.8983     520.9341
   1424.57764     625.9850     522.8672   1424.57764     625.9850     522.8672
   1424.56238     625.6481     522.1176   1424.56238     625.6481     522.1176
   1424.54712     626.1408     522.0612   1424.54712     626.1408     522.0612
   1424.53186     626.0853     522.3702   1424.53186     626.0853     522.3702
   1424.51660     626.0310     522.2543   1424.51660     626.0310     522.2543
   1424.50134     624.8016     522.5092   1424.50134     624.8016     522.5092
   1424.48608     626.6273     522.5554   1424.48608     626.6273     522.5554
   1424.47083     626.1194     522.7437   1424.47083     626.1194     522.7437
   1424.45557     625.2963     521.7505   1424.45557     625.2963     521.7505
   1424.44031     625.4585     523.1152   1424.44031     625.4585     523.1152
   1424.42505     624.8738     522.0060   1424.42505     624.8738     522.0060
   1424.40979     624.1943     522.3528   1424.40979     624.1943     522.3528
   1424.39453     623.1281     522.5289   1424.39453     623.1281     522.5289
   1424.37927     624.0484     522.8982   1424.37927     624.0484     522.8982
   1424.36401     623.3637     522.2774   1424.36401     623.3637     522.2774
   1424.34875     623.5706     522.8381   1424.34875     623.5706     522.8381
   1424.33350     622.5101     522.4253   1424.33350     622.5101     522.4253
   1424.31824     622.0672     522.3518   1424.31824     622.0672     522.3518
   1424.30298     621.4028     521.9908   1424.30298     621.4028     521.9908
   1424.28772     622.4283     522.1714   1424.28772     622.4283     522.1714
   1424.27246     622.6439     522.0244   1424.27246     622.6439     522.0244
   1424.25720     621.6021     522.1631   1424.25720     621.6021     522.1631
   1424.24194     621.5021     521.6920   1424.24194     621.5021     521.6920
   1424.22668     620.4857     521.8031   1424.22668     620.4857     521.8031
   1424.21143     620.2661     522.0331   1424.21143     620.2661     522.0331
   1424.19617     620.8647     520.9133   1424.19617     620.8647     520.9133
   1424.18091     619.7486     520.8460   1424.18091     619.7486     520.8460
   1424.16565     619.9802     522.0650   1424.16565     619.9802     522.0650
   1424.15039     619.2184     521.3633   1424.15039     619.2184     521.3633
   1424.13513     617.6859     521.1080   1424.13513     617.6859     521.1080
   1424.11987     619.1673     520.8788   1424.11987     619.1673     520.8788
   1424.10461     617.8558     520.3628   1424.10461     617.8558     520.3628
   1424.08936     618.5844     520.2637   1424.08936     618.5844     520.2637
   1424.07410     617.3810     519.8099   1424.07410     617.3810     519.8099
   1424.05884     616.6890     519.7451   1424.05884     616.6890     519.7451
   1424.04358     616.4792     520.2124   1424.04358     616.4792     520.2124
   1424.02832     614.4218     520.1334   1424.02832     614.4218     520.1334
   1424.01306     615.9817     519.4683   1424.01306     615.9817     519.4683
   1423.99780     615.7634     519.4892   1423.99780     615.7634     519.4892
   1423.98254     615.0316     518.2661   1423.98254     615.0316     518.2661
   1423.96729     614.3801     518.0403   1423.96729     614.3801     518.0403
   1423.95203     614.2900     518.7630   1423.95203     614.2900     518.7630
   1423.93677     613.7656     517.9033   1423.93677     613.7656     517.9033
   1423.92151     613.8743     517.8867   1423.92151     613.8743     517.8867
   1423.90625     613.2388     517.9062   1423.90625     613.2388     517.9062
   1423.89099     612.9182     517.8403   1423.89099     612.9182     517.8403
   1423.87573     612.0038     517.2330   1423.87573     612.0038     517.2330
   1423.86047     611.1944     516.3190   1423.86047     611.1944     516.3190
   1423.84521     611.6211     516.7932   1423.84521     611.6211     516.7932
   1423.82996     611.2021     516.6773   1423.82996     611.2021     516.6773
   1423.81470     611.9297     515.9390   1423.81470     611.9297     515.9390
   1423.79944     609.6235     515.2484   1423.79944     609.6235     515.2484
   1423.78418     609.7806     515.2829   1423.78418     609.7806     515.2829
   1423.76892     608.9454     515.1232   1423.76892     608.9454     515.1232
   1423.75366     608.3021     514.4679   1423.75366     608.3021     514.4679
   1423.73840     608.1831     514.1006   1423.73840     608.1831     514.1006
   1423.72314     608.0916     513.5099   1423.72314     608.0916     513.5099
   1423.70789     607.7610     513.5905   1423.70789     607.7610     513.5905
   1423.69263     606.4733     513.3073   1423.69263     606.4733     513.3073
   1423.67737     606.2845     513.4575   1423.67737     606.2845     513.4575
   1423.66211     606.0556     511.5586   1423.66211     606.0556     511.5586
   1423.64685     605.7634     512.3909   1423.64685     605.7634     512.3909
   1423.63159     604.3233     511.5313   1423.63159     604.3233     511.5313
   1423.61633     604.8693     511.0860   1423.61633     604.8693     511.0860
   1423.60107     604.6169     510.9900   1423.60107     604.6169     510.9900
   1423.58582     603.3583     510.5657   1423.58582     603.3583     510.5657
   1423.57056     603.5977     509.5810   1423.57056     603.5977     509.5810
   1423.55530     603.4759     509.6982   1423.55530     603.4759     509.6982
   1423.54004     602.9072     509.5137   1423.54004     602.9072     509.5137
   1423.52478     601.6905     509.1333   1423.52478     601.6905     509.1333
   1423.50952     601.3193     508.0356   1423.50952     601.3193     508.0356
   1423.49426     601.3522     507.8373   1423.49426     601.3522     507.8373
   1423.47900     601.1692     507.2639   1423.47900     601.1692     507.2639
   1423.46375     600.9762     505.7599   1423.46375     600.9762     505.7599
   1423.44849     600.2047     506.6408   1423.44849     600.2047     506.6408
   1423.43323     599.5993     505.2321   1423.43323     599.5993     505.2321
   1423.41797     599.3278     504.5810   1423.41797     599.3278     504.5810
   1423.40271     599.4091     504.6703   1423.40271     599.4091     504.6703
   1423.38745     598.6738     504.4893   1423.38745     598.6738     504.4893
   1423.37219     597.6078     504.3814   1423.37219     597.6078     504.3814
   1423.35693     597.2823     502.9036   1423.35693     597.2823     502.9036
   1423.34167     596.6715     503.1717   1423.34167     596.6715     503.1717
   1423.32642     597.0280     501.0038   1423.32642     597.0280     501.0038
   1423.31116     596.4974     501.9698   1423.31116     596.4974     501.9698
   1423.29590     596.6039     500.4847   1423.29590     596.6039     500.4847
   1423.28064     595.2111     500.0547   1423.28064     595.2111     500.0547
   1423.26538     596.0349     499.3691   1423.26538     596.0349     499.3691
   1423.25012     595.7097     499.5513   1423.25012     595.7097     499.5513
   1423.23486     594.2077     498.7155   1423.23486     594.2077     498.7155
   1423.21960     594.3912     497.4374   1423.21960     594.3912     497.4374
   1423.20435     593.4391     497.3120   1423.20435     593.4391     497.3120
   1423.18909     593.2247     497.3525   1423.18909     593.2247     497.3525
   1423.17383     592.8696     496.0693   1423.17383     592.8696     496.0693
   1423.15857     592.3790     495.3774   1423.15857     592.3790     495.3774
   1423.14331     592.0789     494.8303   1423.14331     592.0789     494.8303
   1423.12805     591.0137     493.9398   1423.12805     591.0137     493.9398
   1423.11279     590.9739     493.4434   1423.11279     590.9739     493.4434
   1423.09753     591.4729     493.4697   1423.09753     591.4729     493.4697
   1423.08228     590.3641     492.5166   1423.08228     590.3641     492.5166
   1423.06702     590.8707     491.3956   1423.06702     590.8707     491.3956
   1423.05176     589.1979     491.3959   1423.05176     589.1979     491.3959
   1423.03650     589.4249     490.3313   1423.03650     589.4249     490.3313
   1423.02124     588.8442     490.4582   1423.02124     588.8442     490.4582
   1423.00598     589.1973     488.8475   1423.00598     589.1973     488.8475
   1422.99072     589.4540     488.7939   1422.99072     589.4540     488.7939
   1422.97546     588.7922     487.9222   1422.97546     588.7922     487.9222
   1422.96021     587.2132     487.3899   1422.96021     587.2132     487.3899
   1422.94495     587.6462     486.2084   1422.94495     587.6462     486.2084
   1422.92969     587.4890     486.6960   1422.92969     587.4890     486.6960
   1422.91443     587.0734     485.6227   1422.91443     587.0734     485.6227
   1422.89917     587.1876     484.5011   1422.89917     587.1876     484.5011
   1422.88391     586.6682     484.2670   1422.88391     586.6682     484.2670
   1422.86865     586.5018     483.1414   1422.86865     586.5018     483.1414
   1422.85339     585.4209     482.2760   1422.85339     585.4209     482.2760
   1422.83813     584.5981     482.5226   1422.83813     584.5981     482.5226
   1422.82288     585.5898     480.9729   1422.82288     585.5898     480.9729
   1422.80762     584.3340     480.6457   1422.80762     584.3340     480.6457
   1422.79236     584.8411     479.4200   1422.79236     584.8411     479.4200
   1422.77710     584.2485     478.7584   1422.77710     584.2485     478.7584
   1422.76184     583.7362     477.6589   1422.76184     583.7362     477.6589
   1422.74658     584.6083     476.6665   1422.74658     584.6083     476.6665
   1422.73132     583.7265     477.1037   1422.73132     583.7265     477.1037
   1422.71606     583.2815     475.9320   1422.71606     583.2815     475.9320
   1422.70081     583.6434     474.7935   1422.70081     583.6434     474.7935
   1422.68555     582.9823     474.5417   1422.68555     582.9823     474.5417
   1422.67029     583.1020     473.7471   1422.67029     583.1020     473.7471
   1422.65503     581.9800     473.3845   1422.65503     581.9800     473.3845
   1422.63977     582.6553     473.0710   1422.63977     582.6553     473.0710
   1422.62451     581.9456     471.5648   1422.62451     581.9456     471.5648
   1422.60925     581.1885     471.6371   1422.60925     581.1885     471.6371
   1422.59399     581.2565     469.6791   1422.59399     581.2565     469.6791
   1422.57874     581.4720     469.5021   1422.57874     581.4720     469.5021
   1422.56348     581.2759     468.5710   1422.56348     581.2759     468.5710
   1422.54822     580.9133     468.0917   1422.54822     580.9133     468.0917
   1422.53296     579.8710     467.1974   1422.53296     579.8710     467.1974
   1422.51770     580.2778     465.7245   1422.51770     580.2778     465.7245
   1422.50244     579.3835     465.6156   1422.50244     579.3835     465.6156
   1422.48718     579.2036     465.1063   1422.48718     579.2036     465.1063
   1422.47192     579.0238     464.6987   1422.47192     579.0238     464.6987
   1422.45667     579.9194     463.7211   1422.45667     579.9194     463.7211
   1422.44141     578.2646     462.8788   1422.44141     578.2646     462.8788
   1422.42615     578.7518     461.7527   1422.42615     578.7518     461.7527
   1422.41089     578.2701     461.1436   1422.41089     578.2701     461.1436
   1422.39563     578.2922     460.4866   1422.39563     578.2922     460.4866
   1422.38037     578.8325     459.5044   1422.38037     578.8325     459.5044
   1422.36511     577.8522     458.1502   1422.36511     577.8522     458.1502
   1422.34985     578.5748     458.3392   1422.34985     578.5748     458.3392
   1422.33459     578.3000     456.9901   1422.33459     578.3000     456.9901
   1422.31934     578.1039     456.3554   1422.31934     578.1039     456.3554
   1422.30408     577.2983     456.0099   1422.30408     577.2983     456.0099
   1422.28882     576.9653     454.9167   1422.28882     576.9653     454.9167
   1422.27356     577.4367     453.7593   1422.27356     577.4367     453.7593
   1422.25830     576.8117     453.2845   1422.25830     576.8117     453.2845
   1422.24304     577.8700     453.7545   1422.24304     577.8700     453.7545
   1422.22778     576.6871     452.7634   1422.22778     576.6871     452.7634
   1422.21252     575.9086     450.6425   1422.21252     575.9086     450.6425
   1422.19727     576.5659     450.2452   1422.19727     576.5659     450.2452
   1422.18201     576.4879     449.6097   1422.18201     576.4879     449.6097
   1422.16675     576.6656     448.6236   1422.16675     576.6656     448.6236
   1422.15149     576.3604     448.0583   1422.15149     576.3604     448.0583
   1422.13623     576.1070     446.5777   1422.13623     576.1070     446.5777
   1422.12097     576.3875     446.0157   1422.12097     576.3875     446.0157
   1422.10571     575.2603     445.4515   1422.10571     575.2603     445.4515
   1422.09045     575.4407     443.9541   1422.09045     575.4407     443.9541
   1422.07520     574.9870     443.2892   1422.07520     574.9870     443.2892
   1422.05994     575.4363     442.9886   1422.05994     575.4363     442.9886
   1422.04468     575.8051     442.3090   1422.04468     575.8051     442.3090
   1422.02942     574.8037     440.6277   1422.02942     574.8037     440.6277
   1422.01416     575.3079     440.2451   1422.01416     575.3079     440.2451
   1421.99890     574.7512     439.0474   1421.99890     574.7512     439.0474
   1421.98364     574.7219     438.6636   1421.98364     574.7219     438.6636
   1421.96838     575.6891     437.8322   1421.96838     575.6891     437.8322
   1421.95312     574.6215     436.9922   1421.95312     574.6215     436.9922
   1421.93787     573.9902     435.4781   1421.93787     573.9902     435.4781
   1421.92261     574.7229     435.8202   1421.92261     574.7229     435.8202
   1421.90735     573.6201     434.6499   1421.90735     573.6201     434.6499
   1421.89209     573.6926     433.9651   1421.89209     573.6926     433.9651
   1421.87683     573.9626     432.4467   1421.87683     573.9626     432.4467
   1421.86157     573.7315     432.0012   1421.86157     573.7315     432.0012
   1421.84631     573.4050     431.6790   1421.84631     573.4050     431.6790
   1421.83105     573.1216     430.8629   1421.83105     573.1216     430.8629
   1421.81580     572.6948     430.1407   1421.81580     572.6948     430.1407
   1421.80054     572.6276     429.2100   1421.80054     572.6276     429.2100
   1421.78528     573.9824     428.1938   1421.78528     573.9824     428.1938
   1421.77002     572.8456     427.1324   1421.77002     572.8456     427.1324
   1421.75476     573.7487     426.2226   1421.75476     573.7487     426.2226
   1421.73950     572.5002     425.3234   1421.73950     572.5002     425.3234
   1421.72424     572.3292     425.0078   1421.72424     572.3292     425.0078
   1421.70898     572.6531     423.9641   1421.70898     572.6531     423.9641
   1421.69373     572.3985     422.9165   1421.69373     572.3985     422.9165
   1421.67847     571.9304     422.3447   1421.67847     571.9304     422.3447
   1421.66321     572.0650     421.5179   1421.66321     572.0650     421.5179
   1421.64795     571.5347     420.1241   1421.64795     571.5347     420.1241
   1421.63269     572.2665     419.8857   1421.63269     572.2665     419.8857
   1421.61743     572.6630     419.1492   1421.61743     572.6630     419.1492
   1421.60217     571.9552     417.7664   1421.60217     571.9552     417.7664
   1421.58691     570.9478     417.1148   1421.58691     570.9478     417.1148
   1421.57166     572.1879     416.1301   1421.57166     572.1879     416.1301
   1421.55640     571.4849     415.9094   1421.55640     571.4849     415.9094
   1421.54114     571.2618     414.6126   1421.54114     571.2618     414.6126
   1421.52588     571.2578     413.5646   1421.52588     571.2578     413.5646
   1421.51062     571.0626     413.6068   1421.51062     571.0626     413.6068
   1421.49536     571.6418     412.2831   1421.49536     571.6418     412.2831
   1421.48010     571.2184     412.1120   1421.48010     571.2184     412.1120
   1421.46484     570.7352     411.6541   1421.46484     570.7352     411.6541
   1421.44958     571.4348     410.3012   1421.44958     571.4348     410.3012
   1421.43433     572.7087     410.1856   1421.43433     572.7087     410.1856
   1421.41907     572.2512     410.1515   1421.41907     572.2512     410.1515
   1421.40381     573.3183     410.1841   1421.40381     573.3183     410.1841
   1421.38855     573.8591     409.6544   1421.38855     573.8591     409.6544
   1421.37329     573.9946     409.4822   1421.37329     573.9946     409.4822
   1421.35803     575.1406     409.2410   1421.35803     575.1406     409.2410
   1421.34277     575.9810     408.5807   1421.34277     575.9810     408.5807
   1421.32751     575.8837     408.5607   1421.32751     575.8837     408.5607
   1421.31226     577.0007     407.5491   1421.31226     577.0007     407.5491
   1421.29700     575.7910     407.2501   1421.29700     575.7910     407.2501
   1421.28174     574.7258     404.8365   1421.28174     574.7258     404.8365
   1421.26648     573.3572     404.0667   1421.26648     573.3572     404.0667
   1421.25122     573.6349     402.8805   1421.25122     573.6349     402.8805
   1421.23596     573.0258     402.0539   1421.23596     573.0258     402.0539
   1421.22070     572.8068     400.7123   1421.22070     572.8068     400.7123
   1421.20544     571.7473     399.9173   1421.20544     571.7473     399.9173
   1421.19019     571.2249     398.8247   1421.19019     571.2249     398.8247
   1421.17493     571.1863     397.6135   1421.17493     571.1863     397.6135
   1421.15967     570.0858     396.7704   1421.15967     570.0858     396.7704
   1421.14441     569.7590     395.5686   1421.14441     569.7590     395.5686
   1421.12915     569.7376     394.2968   1421.12915     569.7376     394.2968
   1421.11389     569.7255     393.9846   1421.11389     569.7255     393.9846
   1421.09863     569.6185     393.8896   1421.09863     569.6185     393.8896
   1421.08337     569.5242     393.3365   1421.08337     569.5242     393.3365
   1421.06812     570.4530     392.1517   1421.06812     570.4530     392.1517
   1421.05286     570.1078     392.2294   1421.05286     570.1078     392.2294
   1421.03760     571.5540     391.6267   1421.03760     571.5540     391.6267
   1421.02234     573.2624     391.3696   1421.02234     573.2624     391.3696
   1421.00708     573.5425     392.8077   1421.00708     573.5425     392.8077
   1420.99182     576.0931     393.0176   1420.99182     576.0931     393.0176
   1420.97656     581.8296     396.8643   1420.97656     581.8296     396.8643
   1420.96130     595.8082     405.2827   1420.96130     595.8082     405.2827
   1420.94604     626.6829     424.4863   1420.94604     626.6829     424.4863
   1420.93079     671.4702     453.8712   1420.93079     671.4702     453.8712
   1420.91553     717.4072     484.2564   1420.91553     717.4072     484.2564
   1420.90027     772.0559     518.9994   1420.90027     772.0559     518.9994
   1420.88501     758.2916     508.4992   1420.88501     758.2916     508.4992
   1420.86975     728.2288     487.9665   1420.86975     728.2288     487.9665
   1420.85449     691.7835     462.7009   1420.85449     691.7835     462.7009
   1420.83923     686.7186     458.0999   1420.83923     686.7186     458.0999
   1420.82397     721.0975     481.6196   1420.82397     721.0975     481.6196
   1420.80872     754.4374     501.9330   1420.80872     754.4374     501.9330
   1420.79346     769.8541     511.4677   1420.79346     769.8541     511.4677
   1420.77820     758.7585     503.2385   1420.77820     758.7585     503.2385
   1420.76294     792.3243     524.4771   1420.76294     792.3243     524.4771
   1420.74768     977.4841     640.7319   1420.74768     977.4841     640.7319
   1420.73242    1357.8572     885.8302   1420.73242    1357.8572     885.8302
   1420.71716    1635.7877    1065.8981   1420.71716    1635.7877    1065.8981
   1420.70190    1836.6693    1193.0922   1420.70190    1836.6693    1193.0922
   1420.68665    1893.5673    1225.6237   1420.68665    1893.5673    1225.6237
   1420.67139    1794.3306    1161.1646   1420.67139    1794.3306    1161.1646
   1420.65613    1883.0010    1218.7482   1420.65613    1883.0010    1218.7482
   1420.64087    1874.4752    1209.1622   1420.64087    1874.4752    1209.1622
   1420.62561    1707.2277    1098.9448   1420.62561    1707.2277    1098.9448
   1420.61035    1521.4917     982.6153   1420.61035    1521.4917     982.6153
   1420.59509    1250.6185     808.0142   1420.59509    1250.6185     808.0142
   1420.57983    1089.9673     704.6399   1420.57983    1089.9673     704.6399
   1420.56458    1101.8928     709.9751   1420.56458    1101.8928     709.9751
   1420.54932    1149.4666     738.0834   1420.54932    1149.4666     738.0834
   1420.53406    1235.7289     794.0578   1420.53406    1235.7289     794.0578
   1420.51880    1259.7360     806.3560   1420.51880    1259.7360     806.3560
   1420.50354    1121.3280     719.1722   1420.50354    1121.3280     719.1722
   1420.48828    1049.0446     672.0710   1420.48828    1049.0446     672.0710
   1420.47302    1121.6602     716.9890   1420.47302    1121.6602     716.9890
   1420.45776    1278.2231     812.5992   1420.45776    1278.2231     812.5992
   1420.44250    1288.9679     818.3657   1420.44250    1288.9679     818.3657
   1420.42725    1207.9625     766.6875   1420.42725    1207.9625     766.6875
   1420.41199    1012.0023     644.1385   1420.41199    1012.0023     644.1385
   1420.39673     732.4343     468.1126   1420.39673     732.4343     468.1126
   1420.38147     639.5441     409.3081   1420.38147     639.5441     409.3081
   1420.36621     601.8477     385.9209   1420.36621     601.8477     385.9209
   1420.35095     584.6793     375.2574   1420.35095     584.6793     375.2574
   1420.33569     577.8378     369.9776   1420.33569     577.8378     369.9776
   1420.32043     573.5031     367.2875   1420.32043     573.5031     367.2875
   1420.30518     570.7473     365.2256   1420.30518     570.7473     365.2256
   1420.28992     568.0112     363.9452   1420.28992     568.0112     363.9452
   1420.27466     568.2244     362.6988   1420.27466     568.2244     362.6988
   1420.25940     566.0220     361.6117   1420.25940     566.0220     361.6117
   1420.24414     565.9600     360.6912   1420.24414     565.9600     360.6912
   1420.22888     565.2543     359.5042   1420.22888     565.2543     359.5042
   1420.21362     564.6845     358.7037   1420.21362     564.6845     358.7037
   1420.19836     564.1655     357.5721   1420.19836     564.1655     357.5721
   1420.18311     563.1130     356.9565   1420.18311     563.1130     356.9565
   1420.16785     563.3950     355.9721   1420.16785     563.3950     355.9721
   1420.15259     562.4098     356.1293   1420.15259     562.4098     356.1293
   1420.13733     561.8627     354.7776   1420.13733     561.8627     354.7776
   1420.12207     560.7640     354.9158   1420.12207     560.7640     354.9158
   1420.10681     561.3044     354.3028   1420.10681     561.3044     354.3028
   1420.09155     559.6971     353.5009   1420.09155     559.6971     353.5009
   1420.07629     559.7634     352.5659   1420.07629     559.7634     352.5659
   1420.06104     559.4096     351.8694   1420.06104     559.4096     351.8694
   1420.04578     559.5071     351.5892   1420.04578     559.5071     351.5892
   1420.03052     559.7481     351.8332   1420.03052     559.7481     351.8332
   1420.01526     562.9073     353.0193   1420.01526     562.9073     353.0193
   1420.00000     562.5887     353.3438   1420.00000     562.5887     353.3438
   1419.98474     562.2699     353.6684   1419.98474     562.2699     353.6684
   1419.96948     561.6891     351.5495   1419.96948     561.6891     351.5495
   1419.95422     558.8647     349.8589   1419.95422     558.8647     349.8589
   1419.93896     559.1155     349.5903   1419.93896     559.1155     349.5903
   1419.92371     559.6180     349.3599   1419.92371     559.6180     349.3599
   1419.90845     559.3810     348.6643   1419.90845     559.3810     348.6643
   1419.89319     559.1011     348.7607   1419.89319     559.1011     348.7607
   1419.87793     559.8851     348.2213   1419.87793     559.8851     348.2213
   1419.86267     559.2322     348.0563   1419.86267     559.2322     348.0563
   1419.84741     559.5322     348.0714   1419.84741     559.5322     348.0714
   1419.83215     559.3605     348.7409   1419.83215     559.3605     348.7409
   1419.81689     559.1366     348.2274   1419.81689     559.1366     348.2274
   1419.80164     559.3781     347.1847   1419.80164     559.3781     347.1847
   1419.78638     559.2000     346.7286   1419.78638     559.2000     346.7286
   1419.77112     559.5322     347.0283   1419.77112     559.5322     347.0283
   1419.75586     560.0693     347.2255   1419.75586     560.0693     347.2255
   1419.74060     560.9023     346.8336   1419.74060     560.9023     346.8336
   1419.72534     561.0648     346.4261   1419.72534     561.0648     346.4261
   1419.71008     560.1547     346.0992   1419.71008     560.1547     346.0992
   1419.69482     560.7507     346.4565   1419.69482     560.7507     346.4565
   1419.67957     561.1812     346.1769   1419.67957     561.1812     346.1769
   1419.66431     561.1880     345.9399   1419.66431     561.1880     345.9399
   1419.64905     561.1672     345.9927   1419.64905     561.1672     345.9927
   1419.63379     560.5362     345.7964   1419.63379     560.5362     345.7964
   1419.61853     561.7632     345.8548   1419.61853     561.7632     345.8548
   1419.60327     561.5659     345.6667   1419.60327     561.5659     345.6667
   1419.58801     561.7740     345.7405   1419.58801     561.7740     345.7405
   1419.57275     562.2208     345.7939   1419.57275     562.2208     345.7939
   1419.55750     562.6438     345.7182   1419.55750     562.6438     345.7182
   1419.54224     562.1414     345.4045   1419.54224     562.1414     345.4045
   1419.52698     562.1563     346.2089   1419.52698     562.1563     346.2089
   1419.51172     563.4561     345.3447   1419.51172     563.4561     345.3447
   1419.49646     563.0436     345.5347   1419.49646     563.0436     345.5347
   1419.48120     562.9459     345.4342   1419.48120     562.9459     345.4342
   1419.46594     563.5737     346.0502   1419.46594     563.5737     346.0502
   1419.45068     563.3067     345.9097   1419.45068     563.3067     345.9097
   1419.43542     564.2598     346.2189   1419.43542     564.2598     346.2189
   1419.42017     564.9235     346.4504   1419.42017     564.9235     346.4504
   1419.40491     564.3004     346.9730   1419.40491     564.3004     346.9730
   1419.38965     565.0626     345.8442   1419.38965     565.0626     345.8442
   1419.37439     564.5196     345.6814   1419.37439     564.5196     345.6814
   1419.35913     565.6447     346.2525   1419.35913     565.6447     346.2525
   1419.34387     566.7870     346.7126   1419.34387     566.7870     346.7126
   1419.32861     566.2987     346.2976   1419.32861     566.2987     346.2976
   1419.31335     566.9960     346.6609   1419.31335     566.9960     346.6609
   1419.29810     566.0590     346.7444   1419.29810     566.0590     346.7444
   1419.28284     567.1963     346.9660   1419.28284     567.1963     346.9660
   1419.26758     567.7701     346.7126   1419.26758     567.7701     346.7126
   1419.25232     567.5229     347.4144   1419.25232     567.5229     347.4144
   1419.23706     568.1370     347.3969   1419.23706     568.1370     347.3969
   1419.22180     567.3087     347.8585   1419.22180     567.3087     347.8585
   1419.20654     567.8609     347.6284   1419.20654     567.8609     347.6284
   1419.19128     568.4261     347.7631   1419.19128     568.4261     347.7631
   1419.17603     569.2177     348.1846   1419.17603     569.2177     348.1846
   1419.16077     569.7357     348.9941   1419.16077     569.7357     348.9941
   1419.14551     569.9503     348.7359   1419.14551     569.9503     348.7359
   1419.13025     570.4493     348.8017   1419.13025     570.4493     348.8017
   1419.11499     570.2681     349.4794   1419.11499     570.2681     349.4794
   1419.09973     571.0084     349.7406   1419.09973     571.0084     349.7406
   1419.08447     571.8308     349.4517   1419.08447     571.8308     349.4517
   1419.06921     571.7585     350.1748   1419.06921     571.7585     350.1748
   1419.05396     573.0472     350.8005   1419.05396     573.0472     350.8005
   1419.03870     573.3920     350.7158   1419.03870     573.3920     350.7158
   1419.02344     572.6725     350.6767   1419.02344     572.6725     350.6767
   1419.00818     573.4602     351.2469   1419.00818     573.4602     351.2469
   1418.99292     575.1090     350.9198   1418.99292     575.1090     350.9198
   1418.97766     573.5921     351.2065   1418.97766     573.5921     351.2065
   1418.96240     573.7745     351.7563   1418.96240     573.7745     351.7563
   1418.94714     575.3344     352.7520   1418.94714     575.3344     352.7520
   1418.93188     575.6299     352.6623   1418.93188     575.6299     352.6623
   1418.91663     576.0777     353.4992   1418.91663     576.0777     353.4992
   1418.90137     576.7898     353.2969   1418.90137     576.7898     353.2969
   1418.88611     576.5648     354.0540   1418.88611     576.5648     354.0540
   1418.87085     577.4340     354.2589   1418.87085     577.4340     354.2589
   1418.85559     578.1504     354.5454   1418.85559     578.1504     354.5454
   1418.84033     578.1418     354.8030   1418.84033     578.1418     354.8030
   1418.82507     578.7215     355.6498   1418.82507     578.7215     355.6498
   1418.80981     578.8975     356.2565   1418.80981     578.8975     356.2565
   1418.79456     578.7640     356.4546   1418.79456     578.7640     356.4546
   1418.77930     579.4108     356.9567   1418.77930     579.4108     356.9567
   1418.76404     580.9012     357.8193   1418.76404     580.9012     357.8193
   1418.74878     582.1066     358.3200   1418.74878     582.1066     358.3200
   1418.73352     581.4312     358.3520   1418.73352     581.4312     358.3520
   1418.71826     581.1411     358.7731   1418.71826     581.1411     358.7731
   1418.70300     583.4630     359.2980   1418.70300     583.4630     359.2980
   1418.68774     583.4437     359.7220   1418.68774     583.4437     359.7220
   1418.67249     584.2981     360.3814   1418.67249     584.2981     360.3814
   1418.65723     583.2834     360.8031   1418.65723     583.2834     360.8031
   1418.64197     585.4606     361.3295   1418.64197     585.4606     361.3295
   1418.62671     585.8288     361.9067   1418.62671     585.8288     361.9067
   1418.61145     586.3978     362.5997   1418.61145     586.3978     362.5997
   1418.59619     587.1099     362.9802   1418.59619     587.1099     362.9802
   1418.58093     586.9105     363.9230   1418.58093     586.9105     363.9230
   1418.56567     587.5433     364.2863   1418.56567     587.5433     364.2863
   1418.55042     587.4296     364.7415   1418.55042     587.4296     364.7415
   1418.53516     588.8245     365.7968   1418.53516     588.8245     365.7968
   1418.51990     590.3642     366.2832   1418.51990     590.3642     366.2832
   1418.50464     590.1351     366.2460   1418.50464     590.1351     366.2460
   1418.48938     590.6328     367.1330   1418.48938     590.6328     367.1330
   1418.47412     590.5957     367.8419   1418.47412     590.5957     367.8419
   1418.45886     591.9312     368.4222   1418.45886     591.9312     368.4222
   1418.44360     592.4109     369.3344   1418.44360     592.4109     369.3344
   1418.42834     592.5856     369.6774   1418.42834     592.5856     369.6774
   1418.41309     592.8515     370.1211   1418.41309     592.8515     370.1211
   1418.39783     594.2159     370.7834   1418.39783     594.2159     370.7834
   1418.38257     594.4312     372.0863   1418.38257     594.4312     372.0863
   1418.36731     594.5773     372.1833   1418.36731     594.5773     372.1833
   1418.35205     595.9138     373.1023   1418.35205     595.9138     373.1023
   1418.33679     597.4441     374.0581   1418.33679     597.4441     374.0581
   1418.32153     596.8256     374.6581   1418.32153     596.8256     374.6581
   1418.30627     597.8630     375.3384   1418.30627     597.8630     375.3384
   1418.29102     598.7023     376.0829   1418.29102     598.7023     376.0829
   1418.27576     598.8124     377.1438   1418.27576     598.8124     377.1438
   1418.26050     599.4084     377.5627   1418.26050     599.4084     377.5627
   1418.24524     599.7831     378.0054   1418.24524     599.7831     378.0054
   1418.22998     602.2400     379.2076   1418.22998     602.2400     379.2076
   1418.21472     600.8575     379.9479   1418.21472     600.8575     379.9479
   1418.19946     601.8011     381.1162   1418.19946     601.8011     381.1162
   1418.18420     603.4988     380.9551   1418.18420     603.4988     380.9551
   1418.16895     604.7499     382.0967   1418.16895     604.7499     382.0967
   1418.15369     604.6915     383.0030   1418.15369     604.6915     383.0030
   1418.13843     606.0472     383.8268   1418.13843     606.0472     383.8268
   1418.12317     605.6968     383.8863   1418.12317     605.6968     383.8863
   1418.10791     605.9892     385.5712   1418.10791     605.9892     385.5712
   1418.09265     607.1630     385.7819   1418.09265     607.1630     385.7819
   1418.07739     608.2614     387.6069   1418.07739     608.2614     387.6069
   1418.06213     608.6374     387.6181   1418.06213     608.6374     387.6181
   1418.04688     609.0723     388.8529   1418.04688     609.0723     388.8529
   1418.03162     609.3999     389.8146   1418.03162     609.3999     389.8146
   1418.01636     610.8798     390.0881   1418.01636     610.8798     390.0881
   1418.00110     612.0091     390.9191   1418.00110     612.0091     390.9191
   1417.98584     612.3878     391.9839   1417.98584     612.3878     391.9839
   1417.97058     613.1109     392.8954   1417.97058     613.1109     392.8954
   1417.95532     613.3975     393.1415   1417.95532     613.3975     393.1415
   1417.94006     613.9871     394.5531   1417.94006     613.9871     394.5531
   1417.92480     615.4616     395.2509   1417.92480     615.4616     395.2509
   1417.90955     615.8257     396.0127   1417.90955     615.8257     396.0127
   1417.89429     616.6752     397.1278   1417.89429     616.6752     397.1278
   1417.87903     617.9089     397.8709   1417.87903     617.9089     397.8709
   1417.86377     617.1249     399.0871   1417.86377     617.1249     399.0871
   1417.84851     618.9150     399.7950   1417.84851     618.9150     399.7950
   1417.83325     619.2563     401.0439   1417.83325     619.2563     401.0439
   1417.81799     619.7587     401.3053   1417.81799     619.7587     401.3053
   1417.80273     620.9845     402.0898   1417.80273     620.9845     402.0898
   1417.78748     621.8727     403.0161   1417.78748     621.8727     403.0161
   1417.77222     622.0952     403.9180   1417.77222     622.0952     403.9180
   1417.75696     624.0302     405.6544   1417.75696     624.0302     405.6544
   1417.74170     623.9077     406.2493   1417.74170     623.9077     406.2493
   1417.72644     624.4292     406.4320   1417.72644     624.4292     406.4320
   1417.71118     625.0173     407.9173   1417.71118     625.0173     407.9173
   1417.69592     626.1711     409.2253   1417.69592     626.1711     409.2253
   1417.68066     625.7374     409.3086   1417.68066     625.7374     409.3086
   1417.66541     628.8680     410.6569   1417.66541     628.8680     410.6569
   1417.65015     628.7355     411.8443   1417.65015     628.7355     411.8443
   1417.63489     628.8748     412.6587   1417.63489     628.8748     412.6587
   1417.61963     630.1105     413.6383   1417.61963     630.1105     413.6383
   1417.60437     630.8609     414.0956   1417.60437     630.8609     414.0956
   1417.58911     630.1900     415.2358   1417.58911     630.1900     415.2358
   1417.57385     631.6984     415.8894   1417.57385     631.6984     415.8894
   1417.55859     632.5753     416.6425   1417.55859     632.5753     416.6425
   1417.54333     632.6061     418.0612   1417.54333     632.6061     418.0612
   1417.52808     633.1832     418.8988   1417.52808     633.1832     418.8988
   1417.51282     635.6342     419.0009   1417.51282     635.6342     419.0009
   1417.49756     635.5286     420.4103   1417.49756     635.5286     420.4103
   1417.48230     636.0526     421.3745   1417.48230     636.0526     421.3745
   1417.46704     637.2466     422.5070   1417.46704     637.2466     422.5070
   1417.45178     636.9488     423.0507   1417.45178     636.9488     423.0507
   1417.43652     636.1035     424.1474   1417.43652     636.1035     424.1474
   1417.42126     638.4544     425.5857   1417.42126     638.4544     425.5857
   1417.40601     638.0464     425.6580   1417.40601     638.0464     425.6580
   1417.39075     639.2484     426.8089   1417.39075     639.2484     426.8089
   1417.37549     640.8589     427.7931   1417.37549     640.8589     427.7931
   1417.36023     641.4485     428.5807   1417.36023     641.4485     428.5807
   1417.34497     640.9070     430.0762   1417.34497     640.9070     430.0762
   1417.32971     642.0941     430.9986   1417.32971     642.0941     430.9986
   1417.31445     642.0954     430.8295   1417.31445     642.0954     430.8295
   1417.29919     643.4185     431.9521   1417.29919     643.4185     431.9521
   1417.28394     644.7368     433.2890   1417.28394     644.7368     433.2890
   1417.26868     644.3594     434.6365   1417.26868     644.3594     434.6365
   1417.25342     645.1423     434.8646   1417.25342     645.1423     434.8646
   1417.23816     645.2673     435.1132   1417.23816     645.2673     435.1132
   1417.22290     646.5885     437.8005   1417.22290     646.5885     437.8005
   1417.20764     647.3457     436.7111   1417.20764     647.3457     436.7111
   1417.19238     647.0359     437.8686   1417.19238     647.0359     437.8686
   1417.17712     648.8871     439.0445   1417.17712     648.8871     439.0445
   1417.16187     649.2151     439.9159   1417.16187     649.2151     439.9159
   1417.14661     649.2688     440.4272   1417.14661     649.2688     440.4272
   1417.13135     649.3363     441.3800   1417.13135     649.3363     441.3800
   1417.11609     650.0581     441.4771   1417.11609     650.0581     441.4771
   1417.10083     651.3741     442.8235   1417.10083     651.3741     442.8235
   1417.08557     650.3404     444.2874   1417.08557     650.3404     444.2874
   1417.07031     651.3414     444.1871   1417.07031     651.3414     444.1871
   1417.05505     652.4052     445.0333   1417.05505     652.4052     445.0333
   1417.03979     652.6217     446.2925   1417.03979     652.6217     446.2925
   1417.02454     652.9194     446.7753   1417.02454     652.9194     446.7753
   1417.00928     653.5890     446.8794   1417.00928     653.5890     446.8794
   1416.99402     654.6708     447.7891   1416.99402     654.6708     447.7891
   1416.97876     654.7343     449.3053   1416.97876     654.7343     449.3053
   1416.96350     654.2589     448.9819   1416.96350     654.2589     448.9819
   1416.94824     655.4004     450.3632   1416.94824     655.4004     450.3632
   1416.93298     655.8862     451.3024   1416.93298     655.8862     451.3024
   1416.91772     655.1027     450.6617   1416.91772     655.1027     450.6617
   1416.90247     656.5880     451.4233   1416.90247     656.5880     451.4233
   1416.88721     656.0166     452.5383   1416.88721     656.0166     452.5383
   1416.87195     656.9425     452.8270   1416.87195     656.9425     452.8270
   1416.85669     656.6476     453.8207   1416.85669     656.6476     453.8207
   1416.84143     657.5937     453.1708   1416.84143     657.5937     453.1708
   1416.82617     656.8546     454.2138   1416.82617     656.8546     454.2138
   1416.81091     659.1324     455.2406   1416.81091     659.1324     455.2406
   1416.79565     657.5284     454.6992   1416.79565     657.5284     454.6992
   1416.78040     658.0399     456.2801   1416.78040     658.0399     456.2801
   1416.76514     659.2091     456.5068   1416.76514     659.2091     456.5068
   1416.74988     659.0293     457.3638   1416.74988     659.0293     457.3638
   1416.73462     659.5967     457.2254   1416.73462     659.5967     457.2254
   1416.71936     659.4339     457.2328   1416.71936     659.4339     457.2328
   1416.70410     659.9362     458.0706   1416.70410     659.9362     458.0706
   1416.68884     660.0714     458.2676   1416.68884     660.0714     458.2676
   1416.67358     659.5255     458.8455   1416.67358     659.5255     458.8455
   1416.65833     659.3632     458.9899   1416.65833     659.3632     458.9899
   1416.64307     659.5892     459.3197   1416.64307     659.5892     459.3197
   1416.62781     659.6702     458.8581   1416.62781     659.6702     458.8581
   1416.61255     661.7354     459.6031   1416.61255     661.7354     459.6031
   1416.59729     661.4409     459.1524   1416.59729     661.4409     459.1524
   1416.58203     660.3334     460.0830   1416.58203     660.3334     460.0830
   1416.56677     660.8339     459.9090   1416.56677     660.8339     459.9090
   1416.55151     660.5481     459.9444   1416.55151     660.5481     459.9444
   1416.53625     660.8480     459.7500   1416.53625     660.8480     459.7500
   1416.52100     660.3101     460.0400   1416.52100     660.3101     460.0400
   1416.50574     660.7267     461.0518   1416.50574     660.7267     461.0518
   1416.49048     660.6912     460.1529   1416.49048     660.6912     460.1529
   1416.47522     660.1619     460.5174   1416.47522     660.1619     460.5174
   1416.45996     660.6054     460.1795   1416.45996     660.6054     460.1795
   1416.44470     659.9731     459.9402   1416.44470     659.9731     459.9402
   1416.42944     660.4772     460.0467   1416.42944     660.4772     460.0467
   1416.41418     661.2849     460.4107   1416.41418     661.2849     460.4107
   1416.39893     660.1158     460.2914   1416.39893     660.1158     460.2914
   1416.38367     660.0161     460.1004   1416.38367     660.0161     460.1004
   1416.36841     660.2023     459.0060   1416.36841     660.2023     459.0060
   1416.35315     659.0220     460.3287   1416.35315     659.0220     460.3287
   1416.33789     659.1284     459.8351   1416.33789     659.1284     459.8351
   1416.32263     658.5132     459.8429   1416.32263     658.5132     459.8429
   1416.30737     659.4970     459.5543   1416.30737     659.4970     459.5543
   1416.29211     657.8474     459.3109   1416.29211     657.8474     459.3109
   1416.27686     658.3915     459.1844   1416.27686     658.3915     459.1844
   1416.26160     657.9658     459.8016   1416.26160     657.9658     459.8016
   1416.24634     656.7479     458.7433   1416.24634     656.7479     458.7433
   1416.23108     657.6848     458.3658   1416.23108     657.6848     458.3658
   1416.21582     660.1777     458.5563   1416.21582     660.1777     458.5563
   1416.20056     656.3839     457.3468   1416.20056     656.3839     457.3468
   1416.18530     655.5873     457.8866   1416.18530     655.5873     457.8866
   1416.17004     657.5032     457.6310   1416.17004     657.5032     457.6310
   1416.15479     656.4952     455.6426   1416.15479     656.4952     455.6426
   1416.13953     655.6930     456.3497   1416.13953     655.6930     456.3497
   1416.12427     654.6044     456.4608   1416.12427     654.6044     456.4608
   1416.10901     654.9837     455.9209   1416.10901     654.9837     455.9209
   1416.09375     655.4912     455.6699   1416.09375     655.4912     455.6699
   1416.07849     655.0793     454.9440   1416.07849     655.0793     454.9440
   1416.06323     654.3616     454.8072   1416.06323     654.3616     454.8072
   1416.04797     652.8929     455.1686   1416.04797     652.8929     455.1686
   1416.03271     653.0241     454.0491   1416.03271     653.0241     454.0491
   1416.01746     653.1738     453.0275   1416.01746     653.1738     453.0275
   1416.00220     652.5012     453.1882   1416.00220     652.5012     453.1882
   1415.98694     652.0683     452.5172   1415.98694     652.0683     452.5172
   1415.97168     650.2022     452.5778   1415.97168     650.2022     452.5778
   1415.95642     651.0219     451.5661   1415.95642     651.0219     451.5661
   1415.94116     650.0742     451.1443   1415.94116     650.0742     451.1443
   1415.92590     649.4462     450.0397   1415.92590     649.4462     450.0397
   1415.91064     649.8309     450.4884   1415.91064     649.8309     450.4884
   1415.89539     648.4719     450.1700   1415.89539     648.4719     450.1700
   1415.88013     648.3756     448.4315   1415.88013     648.3756     448.4315
   1415.86487     647.3649     448.2135   1415.86487     647.3649     448.2135
   1415.84961     647.1783     447.8609   1415.84961     647.1783     447.8609
   1415.83435     649.5000     447.7742   1415.83435     649.5000     447.7742
   1415.81909     645.6858     447.2054   1415.81909     645.6858     447.2054
   1415.80383     644.7826     446.0195   1415.80383     644.7826     446.0195
   1415.78857     644.6619     445.6069   1415.78857     644.6619     445.6069
   1415.77332     645.2770     445.4545   1415.77332     645.2770     445.4545
   1415.75806     643.0380     443.8270   1415.75806     643.0380     443.8270
   1415.74280     642.3239     444.2711   1415.74280     642.3239     444.2711
   1415.72754     643.1970     443.5905   1415.72754     643.1970     443.5905
   1415.71228     641.8072     442.4339   1415.71228     641.8072     442.4339
   1415.69702     641.4516     442.3626   1415.69702     641.4516     442.3626
   1415.68176     641.0198     442.0876   1415.68176     641.0198     442.0876
   1415.66650     640.4225     440.6423   1415.66650     640.4225     440.6423
   1415.65125     639.9658     440.4238   1415.65125     639.9658     440.4238
   1415.63599     639.4727     440.1465   1415.63599     639.4727     440.1465
   1415.62073     638.2310     439.1732   1415.62073     638.2310     439.1732
   1415.60547     636.2434     438.3786   1415.60547     636.2434     438.3786
   1415.59021     636.5583     438.4217   1415.59021     636.5583     438.4217
   1415.57495     635.1642     437.4821   1415.57495     635.1642     437.4821
   1415.55969     635.5141     437.0414   1415.55969     635.5141     437.0414
   1415.54443     633.6346     436.4818   1415.54443     633.6346     436.4818
   1415.52917     632.8665     435.2409   1415.52917     632.8665     435.2409
   1415.51392     632.5709     434.8906   1415.51392     632.5709     434.8906
   1415.49866     632.3687     434.5662   1415.49866     632.3687     434.5662
   1415.48340     631.5235     433.5186   1415.48340     631.5235     433.5186
   1415.46814     630.7880     432.8373   1415.46814     630.7880     432.8373
   1415.45288     634.8112     431.8295   1415.45288     634.8112     431.8295
   1415.43762     629.4706     431.4962   1415.43762     629.4706     431.4962
   1415.42236     628.6614     430.6612   1415.42236     628.6614     430.6612
   1415.40710     627.6815     429.5566   1415.40710     627.6815     429.5566
   1415.39185     626.1963     429.4492   1415.39185     626.1963     429.4492
   1415.37659     625.2742     428.7212   1415.37659     625.2742     428.7212
   1415.36133     624.7799     427.6908   1415.36133     624.7799     427.6908
   1415.34607     623.8276     426.9031   1415.34607     623.8276     426.9031
   1415.33081     622.6002     426.8835   1415.33081     622.6002     426.8835
   1415.31555     621.8531     425.0862   1415.31555     621.8531     425.0862
   1415.30029     619.9664     424.7139   1415.30029     619.9664     424.7139
   1415.28503     620.3567     423.9950   1415.28503     620.3567     423.9950
   1415.26978     619.4568     423.5103   1415.26978     619.4568     423.5103
   1415.25452     618.1417     422.5451   1415.25452     618.1417     422.5451
   1415.23926     616.3988     421.9459   1415.23926     616.3988     421.9459
   1415.22400     615.2049     421.4648   1415.22400     615.2049     421.4648
   1415.20874     614.6987     420.4966   1415.20874     614.6987     420.4966
   1415.19348     613.3470     419.9880   1415.19348     613.3470     419.9880
   1415.17822     613.7562     419.7044   1415.17822     613.7562     419.7044
   1415.16296     611.4445     418.0548   1415.16296     611.4445     418.0548
   1415.14771     611.3044     416.8813   1415.14771     611.3044     416.8813
   1415.13245     609.3779     415.8674   1415.13245     609.3779     415.8674
   1415.11719     607.5514     415.6172   1415.11719     607.5514     415.6172
   1415.10193     607.1013     415.0799   1415.10193     607.1013     415.0799
   1415.08667     604.8726     413.3672   1415.08667     604.8726     413.3672
   1415.07141     604.9050     412.9363   1415.07141     604.9050     412.9363
   1415.05615     604.1934     412.0671   1415.05615     604.1934     412.0671
   1415.04089     602.2919     411.3498   1415.04089     602.2919     411.3498
   1415.02563     600.9596     410.7117   1415.02563     600.9596     410.7117
   1415.01038     600.0027     409.9745   1415.01038     600.0027     409.9745
   1414.99512     598.6730     409.0745   1414.99512     598.6730     409.0745
   1414.97986     597.5974     407.4702   1414.97986     597.5974     407.4702
   1414.96460     596.1074     406.6629   1414.96460     596.1074     406.6629
   1414.94934     594.3752     406.1975   1414.94934     594.3752     406.1975
   1414.93408     592.7324     405.1600   1414.93408     592.7324     405.1600
   1414.91882     592.3523     403.8365   1414.91882     592.3523     403.8365
   1414.90356     590.7180     404.2606   1414.90356     590.7180     404.2606
   1414.88831     588.8716     402.4877   1414.88831     588.8716     402.4877
   1414.87305     587.7620     401.4414   1414.87305     587.7620     401.4414
   1414.85779     586.5798     400.9411   1414.85779     586.5798     400.9411
   1414.84253     584.8066     399.3358   1414.84253     584.8066     399.3358
   1414.82727     582.8997     397.9908   1414.82727     582.8997     397.9908
   1414.81201     581.4346     397.6435   1414.81201     581.4346     397.6435
   1414.79675     580.6282     396.4630   1414.79675     580.6282     396.4630
   1414.78149     578.5917     394.9723   1414.78149     578.5917     394.9723
   1414.76624     576.9937     394.0873   1414.76624     576.9937     394.0873
   1414.75098     575.5576     393.2515   1414.75098     575.5576     393.2515
   1414.73572     573.7264     392.1943   1414.73572     573.7264     392.1943
   1414.72046     572.7592     391.2901   1414.72046     572.7592     391.2901
   1414.70520     571.0021     389.7088   1414.70520     571.0021     389.7088
   1414.68994     569.8483     389.3777   1414.68994     569.8483     389.3777
   1414.67468     567.3267     388.5387   1414.67468     567.3267     388.5387
   1414.65942     566.1734     386.7991   1414.65942     566.1734     386.7991
   1414.64417     564.7470     385.0991   1414.64417     564.7470     385.0991
   1414.62891     562.6004     385.4160   1414.62891     562.6004     385.4160
   1414.61365     560.5416     383.8614   1414.61365     560.5416     383.8614
   1414.59839     559.2888     382.3810   1414.59839     559.2888     382.3810
   1414.58313     557.8624     381.6071   1414.58313     557.8624     381.6071
   1414.56787     554.9546     380.3100   1414.56787     554.9546     380.3100
   1414.55261     554.2622     378.9847   1414.55261     554.2622     378.9847
   1414.53735     552.8830     378.4526   1414.53735     552.8830     378.4526
   1414.52209     549.7047     377.0942   1414.52209     549.7047     377.0942
   1414.50684     548.0464     375.6560   1414.50684     548.0464     375.6560
   1414.49158     546.7118     374.8390   1414.49158     546.7118     374.8390
   1414.47632     545.5531     373.2146   1414.47632     545.5531     373.2146
   1414.46106     543.4550     372.1045   1414.46106     543.4550     372.1045
   1414.44580     540.5162     371.1472   1414.44580     540.5162     371.1472
   1414.43054     539.7070     369.0456   1414.43054     539.7070     369.0456
   1414.41528     536.9509     368.9512   1414.41528     536.9509     368.9512
   1414.40002     535.9863     367.1997   1414.40002     535.9863     367.1997
   1414.38477     533.3171     366.1126   1414.38477     533.3171     366.1126
   1414.36951     531.9241     365.0540   1414.36951     531.9241     365.0540
   1414.35425     529.0068     363.2935   1414.35425     529.0068     363.2935
   1414.33899     527.3438     361.9871   1414.33899     527.3438     361.9871
   1414.32373     525.6465     360.6374   1414.32373     525.6465     360.6374
   1414.30847     523.6921     359.9506   1414.30847     523.6921     359.9506
   1414.29321     520.9872     357.8821   1414.29321     520.9872     357.8821
   1414.27795     519.1219     357.1996   1414.27795     519.1219     357.1996
   1414.26270     517.7833     355.7510   1414.26270     517.7833     355.7510
   1414.24744     514.6501     354.6298   1414.24744     514.6501     354.6298
   1414.23218     513.4073     352.7730   1414.23218     513.4073     352.7730
   1414.21692     511.0945     352.0535   1414.21692     511.0945     352.0535
   1414.20166     508.5309     350.3573   1414.20166     508.5309     350.3573
   1414.18640     506.2506     349.2732   1414.18640     506.2506     349.2732
   1414.17114     504.2452     347.9717   1414.17114     504.2452     347.9717
   1414.15588     503.7189     346.6407   1414.15588     503.7189     346.6407
   1414.14062     499.9987     345.2102   1414.14062     499.9987     345.2102
   1414.12537     497.7217     344.1908   1414.12537     497.7217     344.1908
   1414.11011     495.6913     342.7522   1414.11011     495.6913     342.7522
   1414.09485     493.5795     341.0240   1414.09485     493.5795     341.0240
   1414.07959     491.7012     339.5619   1414.07959     491.7012     339.5619
   1414.06433     489.6551     338.5277   1414.06433     489.6551     338.5277
   1414.04907     486.7985     337.4459   1414.04907     486.7985     337.4459
   1414.03381     484.9655     335.2238   1414.03381     484.9655     335.2238
   1414.01855     483.2587     334.5005   1414.01855     483.2587     334.5005
   1414.00330     509.1654     342.2288   1414.00330     509.1654     342.2288
   1413.98804     480.0750     332.1250   1413.98804     480.0750     332.1250
   1413.97278     475.2863     329.7676   1413.97278     475.2863     329.7676
   1413.95752     472.6648     328.3866   1413.95752     472.6648     328.3866
   1413.94226     470.6126     327.3562   1413.94226     470.6126     327.3562
   1413.92700     468.3155     325.7678   1413.92700     468.3155     325.7678
   1413.91174     466.3463     325.1047   1413.91174     466.3463     325.1047
   1413.89648     463.6816     322.8736   1413.89648     463.6816     322.8736
   1413.88123     461.0938     321.6360   1413.88123     461.0938     321.6360
   1413.86597     459.8827     320.1090   1413.86597     459.8827     320.1090
   1413.85071     457.1225     319.0100   1413.85071     457.1225     319.0100
   1413.83545     454.6491     317.5769   1413.83545     454.6491     317.5769
   1413.82019     452.4121     316.2349   1413.82019     452.4121     316.2349
   1413.80493     449.7362     314.3999   1413.80493     449.7362     314.3999
   1413.78967     447.2492     313.5967   1413.78967     447.2492     313.5967
   1413.77441     444.7425     311.5692   1413.77441     444.7425     311.5692
   1413.75916     442.7825     310.3833   1413.75916     442.7825     310.3833
   1413.74390     440.5367     309.1840   1413.74390     440.5367     309.1840
   1413.72864     437.5849     307.5008   1413.72864     437.5849     307.5008
   1413.71338     435.5231     305.6483   1413.71338     435.5231     305.6483
   1413.69812     433.2983     304.4141   1413.69812     433.2983     304.4141
   1413.68286     431.2117     303.5573   1413.68286     431.2117     303.5573
   1413.66760     428.9717     302.1316   1413.66760     428.9717     302.1316
   1413.65234     426.4014     300.4937   1413.65234     426.4014     300.4937
   1413.63708     423.9654     298.8564   1413.63708     423.9654     298.8564
   1413.62183     420.9211     297.6904   1413.62183     420.9211     297.6904
   1413.60657     418.8270     296.4078   1413.60657     418.8270     296.4078
   1413.59131     416.2221     295.1750   1413.59131     416.2221     295.1750
   1413.57605     414.5803     293.4775   1413.57605     414.5803     293.4775
   1413.56079     411.8448     291.9278   1413.56079     411.8448     291.9278
   1413.54553     410.1853     290.8326   1413.54553     410.1853     290.8326
   1413.53027     408.4056     289.5101   1413.53027     408.4056     289.5101
   1413.51501     405.3697     287.9833   1413.51501     405.3697     287.9833
   1413.49976     403.1081     286.7051   1413.49976     403.1081     286.7051
   1413.48450     400.2280     285.2878   1413.48450     400.2280     285.2878
   1413.46924     398.5315     283.9070   1413.46924     398.5315     283.9070
   1413.45398     396.0445     282.1906   1413.45398     396.0445     282.1906
   1413.43872     393.4440     280.9853   1413.43872     393.4440     280.9853
   1413.42346     391.3255     279.7726   1413.42346     391.3255     279.7726
   1413.40820     390.0824     278.7466   1413.40820     390.0824     278.7466
   1413.39294     387.0159     276.8600   1413.39294     387.0159     276.8600
   1413.37769     384.8199     275.5939   1413.37769     384.8199     275.5939
   1413.36243     382.7170     274.6788   1413.36243     382.7170     274.6788
   1413.34717     379.8610     273.0515   1413.34717     379.8610     273.0515
   1413.33191     378.2939     271.7674   1413.33191     378.2939     271.7674
   1413.31665     376.3134     270.7981   1413.31665     376.3134     270.7981
   1413.30139     373.8875     269.1039   1413.30139     373.8875     269.1039
   1413.28613     371.6052     267.9403   1413.28613     371.6052     267.9403
   1413.27087     369.6686     267.1532   1413.27087     369.6686     267.1532
   1413.25562     367.0698     265.8505   1413.25562     367.0698     265.8505
   1413.24036     365.5104     264.1057   1413.24036     365.5104     264.1057
   1413.22510     363.4605     263.8050   1413.22510     363.4605     263.8050
   1413.20984     361.6100     262.1881   1413.20984     361.6100     262.1881
   1413.19458     360.0993     260.9430   1413.19458     360.0993     260.9430
   1413.17932     357.6459     259.3605   1413.17932     357.6459     259.3605
   1413.16406     355.9695     258.7585   1413.16406     355.9695     258.7585
   1413.14880     353.4939     257.6622   1413.14880     353.4939     257.6622
   1413.13354     352.2093     256.0496   1413.13354     352.2093     256.0496
   1413.11829     349.4709     255.6368   1413.11829     349.4709     255.6368
   1413.10303     348.5805     254.3987   1413.10303     348.5805     254.3987
   1413.08777     346.5510     253.4237   1413.08777     346.5510     253.4237
   1413.07251     343.8104     252.7507   1413.07251     343.8104     252.7507
   1413.05725     342.3156     251.0034   1413.05725     342.3156     251.0034
   1413.04199     340.8499     250.4004   1413.04199     340.8499     250.4004
   1413.02673     338.8261     249.4398   1413.02673     338.8261     249.4398
   1413.01147     337.2571     248.7913   1413.01147     337.2571     248.7913
   1412.99622     335.8901     247.2183   1412.99622     335.8901     247.2183
   1412.98096     333.7171     247.0037   1412.98096     333.7171     247.0037
   1412.96570     332.3788     245.8676   1412.96570     332.3788     245.8676
   1412.95044     331.1204     244.5988   1412.95044     331.1204     244.5988
   1412.93518     329.1927     244.0631   1412.93518     329.1927     244.0631
   1412.91992     327.6932     243.2163   1412.91992     327.6932     243.2163
   1412.90466     326.2098     242.2005   1412.90466     326.2098     242.2005
   1412.88940     324.8889     241.6302   1412.88940     324.8889     241.6302
   1412.87415     323.3274     241.1057   1412.87415     323.3274     241.1057
   1412.85889     321.5659     239.9989   1412.85889     321.5659     239.9989
   1412.84363     320.6123     239.8495   1412.84363     320.6123     239.8495
   1412.82837     319.0109     238.9222   1412.82837     319.0109     238.9222
   1412.81311     318.0750     238.3767   1412.81311     318.0750     238.3767
   1412.79785     316.8802     237.6344   1412.79785     316.8802     237.6344
   1412.78259     315.7271     237.1881   1412.78259     315.7271     237.1881
   1412.76733     314.4634     236.2749   1412.76733     314.4634     236.2749
   1412.75208     313.1848     236.0073   1412.75208     313.1848     236.0073
   1412.73682     311.8887     235.6113   1412.73682     311.8887     235.6113
   1412.72156     310.7954     234.9726   1412.72156     310.7954     234.9726
   1412.70630     310.1884     234.4502   1412.70630     310.1884     234.4502
   1412.69104     309.0976     234.0189   1412.69104     309.0976     234.0189
   1412.67578     308.1420     233.7951   1412.67578     308.1420     233.7951
   1412.66052     307.6318     233.3211   1412.66052     307.6318     233.3211
   1412.64526     306.5685     233.2168   1412.64526     306.5685     233.2168
   1412.63000     305.7076     232.7190   1412.63000     305.7076     232.7190
   1412.61475     304.8230     232.7305   1412.61475     304.8230     232.7305
   1412.59949     303.8553     232.4685   1412.59949     303.8553     232.4685
   1412.58423     303.2993     231.8102   1412.58423     303.2993     231.8102
   1412.56897     302.7757     232.2870   1412.56897     302.7757     232.2870
   1412.55371     301.7756     232.0442   1412.55371     301.7756     232.0442
   1412.53845     300.7579     231.9193   1412.53845     300.7579     231.9193
   1412.52319     300.6118     232.0827   1412.52319     300.6118     232.0827
   1412.50793     300.7375     231.8067   1412.50793     300.7375     231.8067
   1412.49268     300.0432     231.7795   1412.49268     300.0432     231.7795
   1412.47742     300.0290     231.7240   1412.47742     300.0290     231.7240
   1412.46216     299.4281     231.7552   1412.46216     299.4281     231.7552
   1412.44690     298.9966     231.9450   1412.44690     298.9966     231.9450
   1412.43164     298.6723     232.0212   1412.43164     298.6723     232.0212
   1412.41638     298.4068     231.9960   1412.41638     298.4068     231.9960
   1412.40112     298.0070     232.5674   1412.40112     298.0070     232.5674
   1412.38586     298.2125     232.5214   1412.38586     298.2125     232.5214
   1412.37061     298.0826     233.0650   1412.37061     298.0826     233.0650
   1412.35535     297.2736     233.7550   1412.35535     297.2736     233.7550
   1412.34009     297.7439     233.6194   1412.34009     297.7439     233.6194
   1412.32483     298.1466     234.3623   1412.32483     298.1466     234.3623
   1412.30957     298.1185     234.3585   1412.30957     298.1185     234.3585
   1412.29431     298.3418     235.0637   1412.29431     298.3418     235.0637
   1412.27905     298.6595     235.4379   1412.27905     298.6595     235.4379
   1412.26379     298.6148     236.2057   1412.26379     298.6148     236.2057
   1412.24854     299.0536     236.3507   1412.24854     299.0536     236.3507
   1412.23328     299.3792     237.4859   1412.23328     299.3792     237.4859
   1412.21802     299.9995     238.1368   1412.21802     299.9995     238.1368
   1412.20276     299.9111     238.5906   1412.20276     299.9111     238.5906