#     FILENAME=!Skynet_57528_lach-hhg-122_20410_20946.cyb.fits
#     BASENAME=Skynet_57528_lach-hhg-122_20410_20946
#     SRC_NAME=lach-hhg-122
#     OBSERVER=hhgmadison16_9500
#     DATE_OBS=2016-05-20T16:41:37.430
#        OBSID=20410
#      SCANNUM=20946
#          MJD=57528.6966
#          UTC=60186
#     SCANTYPE=track
#     DATAMODE=HIRES
#     TUNEFREQ=1420.0000
# Actual_FREQ1=1420.0000
# Actual_FREQ2=1420.0000
#    LO1Tuning=6870.000
#     RFFILTER=1355_1435
#        OBSBW=-15.6250
#        NCHAN=1024 
#        FOCUS=37.0709
#           RA=00:43:15.21
#          DEC=62:51:25.96
#      RA(hrs)=0.720900
#     DEC(deg)=62.857200
#    AZIM(deg)=328.822
#    ELEV(deg)=56.326
#     IFattens=10.00, 9.00
#      WARNING=None
#    TCAL_XL1=7.9635
#    TCAL_YR1=9.1340
#    TCAL_XL2=7.9635
#    TCAL_YR2=9.1340
#     TRX_XL1=11.7060
#     TRX_YR1=11.7060
#     TRX_XL2=11.7060
#     TRX_YR2=11.7060
#        TAVE=1.0000
#Freq1(MHz)          XL1          YR1  Freq2(MHz)          XL2          YR2 

   1427.81250     375.3585     276.5031   1427.81250     375.3585     276.5031
   1427.79724     376.5437     277.3240   1427.79724     376.5437     277.3240
   1427.78198     377.1567     278.2938   1427.78198     377.1567     278.2938
   1427.76672     378.4037     278.9398   1427.76672     378.4037     278.9398
   1427.75146     378.9617     279.7817   1427.75146     378.9617     279.7817
   1427.73621     379.8481     280.7958   1427.73621     379.8481     280.7958
   1427.72095     380.1950     281.8691   1427.72095     380.1950     281.8691
   1427.70569     381.5454     282.6079   1427.70569     381.5454     282.6079
   1427.69043     382.7605     283.7642   1427.69043     382.7605     283.7642
   1427.67517     383.6151     284.8503   1427.67517     383.6151     284.8503
   1427.65991     384.5598     286.3528   1427.65991     384.5598     286.3528
   1427.64465     386.1708     286.8868   1427.64465     386.1708     286.8868
   1427.62939     386.7765     288.5761   1427.62939     386.7765     288.5761
   1427.61414     389.1499     289.5272   1427.61414     389.1499     289.5272
   1427.59888     389.6789     290.8945   1427.59888     389.6789     290.8945
   1427.58362     391.5685     292.8746   1427.58362     391.5685     292.8746
   1427.56836     392.1695     293.6859   1427.56836     392.1695     293.6859
   1427.55310     394.4039     295.1317   1427.55310     394.4039     295.1317
   1427.53784     395.5447     297.0463   1427.53784     395.5447     297.0463
   1427.52258     397.4727     298.1097   1427.52258     397.4727     298.1097
   1427.50732     398.8201     299.5711   1427.50732     398.8201     299.5711
   1427.49207     400.5728     301.2079   1427.49207     400.5728     301.2079
   1427.47681     402.8147     302.5925   1427.47681     402.8147     302.5925
   1427.46155     404.5737     303.9923   1427.46155     404.5737     303.9923
   1427.44629     406.7419     305.6799   1427.44629     406.7419     305.6799
   1427.43103     407.3026     307.9412   1427.43103     407.3026     307.9412
   1427.41577     409.7638     309.1730   1427.41577     409.7638     309.1730
   1427.40051     412.1015     311.2371   1427.40051     412.1015     311.2371
   1427.38525     414.0852     312.8909   1427.38525     414.0852     312.8909
   1427.37000     415.7969     314.6106   1427.37000     415.7969     314.6106
   1427.35474     418.0023     315.9997   1427.35474     418.0023     315.9997
   1427.33948     420.4710     318.1091   1427.33948     420.4710     318.1091
   1427.32422     422.5290     320.2427   1427.32422     422.5290     320.2427
   1427.30896     423.9068     322.4104   1427.30896     423.9068     322.4104
   1427.29370     427.5259     324.1272   1427.29370     427.5259     324.1272
   1427.27844     429.5752     326.1858   1427.27844     429.5752     326.1858
   1427.26318     431.7027     327.7051   1427.26318     431.7027     327.7051
   1427.24792     433.7210     330.2983   1427.24792     433.7210     330.2983
   1427.23267     436.9538     332.6447   1427.23267     436.9538     332.6447
   1427.21741     438.7015     334.7984   1427.21741     438.7015     334.7984
   1427.20215     441.2884     335.7865   1427.20215     441.2884     335.7865
   1427.18689     443.8391     338.4753   1427.18689     443.8391     338.4753
   1427.17163     446.6095     340.7251   1427.17163     446.6095     340.7251
   1427.15637     448.3959     342.9350   1427.15637     448.3959     342.9350
   1427.14111     452.3227     345.0665   1427.14111     452.3227     345.0665
   1427.12585     454.1807     347.6649   1427.12585     454.1807     347.6649
   1427.11060     457.0115     349.3280   1427.11060     457.0115     349.3280
   1427.09534     459.8068     351.5307   1427.09534     459.8068     351.5307
   1427.08008     461.6746     353.9710   1427.08008     461.6746     353.9710
   1427.06482     465.0389     356.5869   1427.06482     465.0389     356.5869
   1427.04956     468.3415     358.2018   1427.04956     468.3415     358.2018
   1427.03430     470.6482     360.4470   1427.03430     470.6482     360.4470
   1427.01904     474.3205     362.2350   1427.01904     474.3205     362.2350
   1427.00378     477.2605     365.0711   1427.00378     477.2605     365.0711
   1426.98853     480.2343     367.8867   1426.98853     480.2343     367.8867
   1426.97327     482.5282     370.2355   1426.97327     482.5282     370.2355
   1426.95801     485.8644     372.7974   1426.95801     485.8644     372.7974
   1426.94275     487.9308     374.9295   1426.94275     487.9308     374.9295
   1426.92749     491.2148     377.0522   1426.92749     491.2148     377.0522
   1426.91223     494.7372     379.4291   1426.91223     494.7372     379.4291
   1426.89697     497.5900     382.2476   1426.89697     497.5900     382.2476
   1426.88171     500.0918     384.8165   1426.88171     500.0918     384.8165
   1426.86646     503.2016     386.4851   1426.86646     503.2016     386.4851
   1426.85120     507.0383     389.7862   1426.85120     507.0383     389.7862
   1426.83594     509.3804     391.8195   1426.83594     509.3804     391.8195
   1426.82068     512.9742     394.8268   1426.82068     512.9742     394.8268
   1426.80542     515.9835     396.2270   1426.80542     515.9835     396.2270
   1426.79016     518.5794     399.0987   1426.79016     518.5794     399.0987
   1426.77490     523.2195     401.8410   1426.77490     523.2195     401.8410
   1426.75964     524.0701     404.1725   1426.75964     524.0701     404.1725
   1426.74438     527.7941     406.4974   1426.74438     527.7941     406.4974
   1426.72913     530.4310     409.3738   1426.72913     530.4310     409.3738
   1426.71387     533.8541     411.9377   1426.71387     533.8541     411.9377
   1426.69861     537.1212     413.9171   1426.69861     537.1212     413.9171
   1426.68335     540.3611     416.7133   1426.68335     540.3611     416.7133
   1426.66809     544.3708     418.7971   1426.66809     544.3708     418.7971
   1426.65283     546.8115     421.8849   1426.65283     546.8115     421.8849
   1426.63757     550.8394     425.3758   1426.63757     550.8394     425.3758
   1426.62231     566.2438     442.0257   1426.62231     566.2438     442.0257
   1426.60706     560.7047     434.6374   1426.60706     560.7047     434.6374
   1426.59180     559.7753     432.4977   1426.59180     559.7753     432.4977
   1426.57654     563.6240     433.2246   1426.57654     563.6240     433.2246
   1426.56128     565.3910     436.8189   1426.56128     565.3910     436.8189
   1426.54602     568.5040     438.5894   1426.54602     568.5040     438.5894
   1426.53076     571.5920     441.7288   1426.53076     571.5920     441.7288
   1426.51550     575.2485     443.2964   1426.51550     575.2485     443.2964
   1426.50024     577.3594     446.0440   1426.50024     577.3594     446.0440
   1426.48499     581.6398     448.4226   1426.48499     581.6398     448.4226
   1426.46973     583.9766     450.6931   1426.46973     583.9766     450.6931
   1426.45447     586.9318     453.2316   1426.45447     586.9318     453.2316
   1426.43921     589.9025     455.3902   1426.43921     589.9025     455.3902
   1426.42395     592.5198     458.8062   1426.42395     592.5198     458.8062
   1426.40869     597.0420     460.9250   1426.40869     597.0420     460.9250
   1426.39343     598.9285     463.1548   1426.39343     598.9285     463.1548
   1426.37817     602.7379     465.3858   1426.37817     602.7379     465.3858
   1426.36292     603.9896     467.3871   1426.36292     603.9896     467.3871
   1426.34766     608.4963     469.5626   1426.34766     608.4963     469.5626
   1426.33240     610.5907     472.8609   1426.33240     610.5907     472.8609
   1426.31714     614.1709     474.0815   1426.31714     614.1709     474.0815
   1426.30188     616.5647     476.7983   1426.30188     616.5647     476.7983
   1426.28662     619.7346     478.7695   1426.28662     619.7346     478.7695
   1426.27136     623.2295     481.4937   1426.27136     623.2295     481.4937
   1426.25610     625.7009     483.6982   1426.25610     625.7009     483.6982
   1426.24084     629.1901     485.7030   1426.24084     629.1901     485.7030
   1426.22559     630.5809     487.5834   1426.22559     630.5809     487.5834
   1426.21033     634.7181     489.8203   1426.21033     634.7181     489.8203
   1426.19507     636.7390     492.5189   1426.19507     636.7390     492.5189
   1426.17981     639.2953     494.6693   1426.17981     639.2953     494.6693
   1426.16455     641.9744     497.0111   1426.16455     641.9744     497.0111
   1426.14929     644.2935     499.3420   1426.14929     644.2935     499.3420
   1426.13403     648.0289     501.9453   1426.13403     648.0289     501.9453
   1426.11877     649.9666     503.4406   1426.11877     649.9666     503.4406
   1426.10352     652.5739     505.8651   1426.10352     652.5739     505.8651
   1426.08826     654.9489     508.2508   1426.08826     654.9489     508.2508
   1426.07300     656.9445     510.0223   1426.07300     656.9445     510.0223
   1426.05774     660.2936     511.4830   1426.05774     660.2936     511.4830
   1426.04248     662.3177     514.0873   1426.04248     662.3177     514.0873
   1426.02722     665.7646     515.8653   1426.02722     665.7646     515.8653
   1426.01196     667.9713     517.8722   1426.01196     667.9713     517.8722
   1425.99670     670.8895     519.2016   1425.99670     670.8895     519.2016
   1425.98145     672.0807     522.1364   1425.98145     672.0807     522.1364
   1425.96619     674.6832     523.7729   1425.96619     674.6832     523.7729
   1425.95093     678.1828     526.9923   1425.95093     678.1828     526.9923
   1425.93567     680.2350     527.6805   1425.93567     680.2350     527.6805
   1425.92041     682.9581     529.7433   1425.92041     682.9581     529.7433
   1425.90515     684.0546     530.9422   1425.90515     684.0546     530.9422
   1425.88989     687.5720     533.4892   1425.88989     687.5720     533.4892
   1425.87463     688.0866     535.7533   1425.87463     688.0866     535.7533
   1425.85938     689.9477     537.3892   1425.85938     689.9477     537.3892
   1425.84412     693.0656     538.4247   1425.84412     693.0656     538.4247
   1425.82886     694.4801     541.3575   1425.82886     694.4801     541.3575
   1425.81360     696.7957     542.7297   1425.81360     696.7957     542.7297
   1425.79834     699.1231     544.2540   1425.79834     699.1231     544.2540
   1425.78308     700.7500     546.5723   1425.78308     700.7500     546.5723
   1425.76782     703.1700     547.5078   1425.76782     703.1700     547.5078
   1425.75256     704.1520     550.7745   1425.75256     704.1520     550.7745
   1425.73730     707.1666     550.9991   1425.73730     707.1666     550.9991
   1425.72205     708.1319     552.7909   1425.72205     708.1319     552.7909
   1425.70679     710.6234     554.3930   1425.70679     710.6234     554.3930
   1425.69153     712.4520     556.1303   1425.69153     712.4520     556.1303
   1425.67627     714.3135     558.0060   1425.67627     714.3135     558.0060
   1425.66101     715.2313     559.9185   1425.66101     715.2313     559.9185
   1425.64575     717.5163     561.0209   1425.64575     717.5163     561.0209
   1425.63049     719.6837     562.7518   1425.63049     719.6837     562.7518
   1425.61523     720.6323     563.9556   1425.61523     720.6323     563.9556
   1425.59998     720.7424     566.5543   1425.59998     720.7424     566.5543
   1425.58472     723.9388     567.3367   1425.58472     723.9388     567.3367
   1425.56946     723.8291     568.5873   1425.56946     723.8291     568.5873
   1425.55420     727.7617     570.1364   1425.55420     727.7617     570.1364
   1425.53894     728.3752     571.7907   1425.53894     728.3752     571.7907
   1425.52368     729.4919     572.7701   1425.52368     729.4919     572.7701
   1425.50842     732.4905     573.9259   1425.50842     732.4905     573.9259
   1425.49316     733.2115     576.7332   1425.49316     733.2115     576.7332
   1425.47791     732.7695     577.5432   1425.47791     732.7695     577.5432
   1425.46265     735.1423     578.1276   1425.46265     735.1423     578.1276
   1425.44739     736.2412     580.3273   1425.44739     736.2412     580.3273
   1425.43213     737.3704     581.9055   1425.43213     737.3704     581.9055
   1425.41687     738.8559     581.9374   1425.41687     738.8559     581.9374
   1425.40161     739.2750     583.7717   1425.40161     739.2750     583.7717
   1425.38635     742.3832     585.3575   1425.38635     742.3832     585.3575
   1425.37109     743.3816     587.3567   1425.37109     743.3816     587.3567
   1425.35583     744.1860     586.6841   1425.35583     744.1860     586.6841
   1425.34058     744.3829     588.7252   1425.34058     744.3829     588.7252
   1425.32532     743.4906     590.3416   1425.32532     743.4906     590.3416
   1425.31006     746.6567     592.3943   1425.31006     746.6567     592.3943
   1425.29480     746.8783     591.9415   1425.29480     746.8783     591.9415
   1425.27954     748.2441     592.6892   1425.27954     748.2441     592.6892
   1425.26428     749.3298     595.3767   1425.26428     749.3298     595.3767
   1425.24902     749.3462     595.9677   1425.24902     749.3462     595.9677
   1425.23376     750.5874     596.4515   1425.23376     750.5874     596.4515
   1425.21851     751.4546     597.8144   1425.21851     751.4546     597.8144
   1425.20325     753.1854     599.7171   1425.20325     753.1854     599.7171
   1425.18799     753.2516     599.7646   1425.18799     753.2516     599.7646
   1425.17273     753.3121     601.3785   1425.17273     753.3121     601.3785
   1425.15747     754.2280     602.2524   1425.15747     754.2280     602.2524
   1425.14221     754.4308     603.5890   1425.14221     754.4308     603.5890
   1425.12695     755.4728     604.5413   1425.12695     755.4728     604.5413
   1425.11169     756.0540     604.9808   1425.11169     756.0540     604.9808
   1425.09644     757.8970     606.2692   1425.09644     757.8970     606.2692
   1425.08118     758.2556     606.5778   1425.08118     758.2556     606.5778
   1425.06592     758.2346     607.6744   1425.06592     758.2346     607.6744
   1425.05066     759.1774     607.9652   1425.05066     759.1774     607.9652
   1425.03540     759.4846     608.9518   1425.03540     759.4846     608.9518
   1425.02014     760.6243     610.7728   1425.02014     760.6243     610.7728
   1425.00488     760.3973     611.0807   1425.00488     760.3973     611.0807
   1424.98962     760.5438     611.3762   1424.98962     760.5438     611.3762
   1424.97437     760.9263     613.7266   1424.97437     760.9263     613.7266
   1424.95911     761.5557     613.1293   1424.95911     761.5557     613.1293
   1424.94385     762.3721     615.7573   1424.94385     762.3721     615.7573
   1424.92859     761.3555     616.0019   1424.92859     761.3555     616.0019
   1424.91333     761.7773     615.5991   1424.91333     761.7773     615.5991
   1424.89807     762.4001     617.6127   1424.89807     762.4001     617.6127
   1424.88281     763.6635     617.9403   1424.88281     763.6635     617.9403
   1424.86755     762.8353     619.0833   1424.86755     762.8353     619.0833
   1424.85229     763.5674     618.8386   1424.85229     763.5674     618.8386
   1424.83704     763.8181     619.9421   1424.83704     763.8181     619.9421
   1424.82178     763.2610     619.6201   1424.82178     763.2610     619.6201
   1424.80652     764.1140     620.4153   1424.80652     764.1140     620.4153
   1424.79126     763.8259     621.1404   1424.79126     763.8259     621.1404
   1424.77600     763.2381     621.9783   1424.77600     763.2381     621.9783
   1424.76074     764.1562     621.9821   1424.76074     764.1562     621.9821
   1424.74548     763.2137     622.9208   1424.74548     763.2137     622.9208
   1424.73022     763.8113     624.1733   1424.73022     763.8113     624.1733
   1424.71497     765.1862     624.9401   1424.71497     765.1862     624.9401
   1424.69971     764.1652     625.1577   1424.69971     764.1652     625.1577
   1424.68445     765.3366     625.3177   1424.68445     765.3366     625.3177
   1424.66919     764.2241     626.0475   1424.66919     764.2241     626.0475
   1424.65393     763.8343     626.5438   1424.65393     763.8343     626.5438
   1424.63867     764.9791     626.4783   1424.63867     764.9791     626.4783
   1424.62341     764.2987     627.0737   1424.62341     764.2987     627.0737
   1424.60815     765.0856     627.1951   1424.60815     765.0856     627.1951
   1424.59290     764.5823     628.6322   1424.59290     764.5823     628.6322
   1424.57764     763.6697     629.7741   1424.57764     763.6697     629.7741
   1424.56238     763.6122     629.6350   1424.56238     763.6122     629.6350
   1424.54712     763.6194     630.0894   1424.54712     763.6194     630.0894
   1424.53186     763.9843     629.3745   1424.53186     763.9843     629.3745
   1424.51660     763.0647     630.7922   1424.51660     763.0647     630.7922
   1424.50134     764.0505     630.1186   1424.50134     764.0505     630.1186
   1424.48608     763.4221     631.9811   1424.48608     763.4221     631.9811
   1424.47083     762.0093     632.8238   1424.47083     762.0093     632.8238
   1424.45557     763.4422     632.5243   1424.45557     763.4422     632.5243
   1424.44031     762.9877     632.7963   1424.44031     762.9877     632.7963
   1424.42505     762.8455     631.8844   1424.42505     762.8455     631.8844
   1424.40979     763.7597     632.2640   1424.40979     763.7597     632.2640
   1424.39453     763.3090     632.3235   1424.39453     763.3090     632.3235
   1424.37927     762.9382     634.3375   1424.37927     762.9382     634.3375
   1424.36401     762.4615     634.3111   1424.36401     762.4615     634.3111
   1424.34875     761.5660     634.2730   1424.34875     761.5660     634.2730
   1424.33350     762.0884     634.9490   1424.33350     762.0884     634.9490
   1424.31824     761.4313     634.6169   1424.31824     761.4313     634.6169
   1424.30298     761.3135     634.6993   1424.30298     761.3135     634.6993
   1424.28772     759.6799     635.8965   1424.28772     759.6799     635.8965
   1424.27246     759.3248     635.8389   1424.27246     759.3248     635.8389
   1424.25720     759.7288     635.9808   1424.25720     759.7288     635.9808
   1424.24194     759.8652     636.1933   1424.24194     759.8652     636.1933
   1424.22668     759.1123     635.9690   1424.22668     759.1123     635.9690
   1424.21143     759.2811     636.4537   1424.21143     759.2811     636.4537
   1424.19617     758.8824     637.3117   1424.19617     758.8824     637.3117
   1424.18091     757.5103     637.6951   1424.18091     757.5103     637.6951
   1424.16565     759.2140     636.3405   1424.16565     759.2140     636.3405
   1424.15039     758.2446     637.0309   1424.15039     758.2446     637.0309
   1424.13513     758.2883     636.4773   1424.13513     758.2883     636.4773
   1424.11987     757.9771     637.4993   1424.11987     757.9771     637.4993
   1424.10461     756.2475     637.0929   1424.10461     756.2475     637.0929
   1424.08936     755.6413     637.2576   1424.08936     755.6413     637.2576
   1424.07410     755.1628     637.7242   1424.07410     755.1628     637.7242
   1424.05884     755.8230     637.0720   1424.05884     755.8230     637.0720
   1424.04358     754.2294     637.0087   1424.04358     754.2294     637.0087
   1424.02832     755.3784     638.0206   1424.02832     755.3784     638.0206
   1424.01306     754.4293     637.6407   1424.01306     754.4293     637.6407
   1423.99780     754.4057     637.7255   1423.99780     754.4057     637.7255
   1423.98254     753.5084     638.2008   1423.98254     753.5084     638.2008
   1423.96729     753.2271     638.6362   1423.96729     753.2271     638.6362
   1423.95203     753.1215     637.6808   1423.95203     753.1215     637.6808
   1423.93677     752.9529     638.2298   1423.93677     752.9529     638.2298
   1423.92151     751.0024     637.6448   1423.92151     751.0024     637.6448
   1423.90625     752.1781     638.4557   1423.90625     752.1781     638.4557
   1423.89099     750.0095     639.2158   1423.89099     750.0095     639.2158
   1423.87573     751.6161     638.8411   1423.87573     751.6161     638.8411
   1423.86047     749.8416     637.2686   1423.86047     749.8416     637.2686
   1423.84521     748.9566     637.7040   1423.84521     748.9566     637.7040
   1423.82996     748.3956     638.4717   1423.82996     748.3956     638.4717
   1423.81470     749.1490     637.9442   1423.81470     749.1490     637.9442
   1423.79944     747.6509     636.6485   1423.79944     747.6509     636.6485
   1423.78418     747.5760     637.9168   1423.78418     747.5760     637.9168
   1423.76892     748.3041     638.1288   1423.76892     748.3041     638.1288
   1423.75366     747.5818     638.5986   1423.75366     747.5818     638.5986
   1423.73840     746.7355     637.3409   1423.73840     746.7355     637.3409
   1423.72314     746.7128     637.8103   1423.72314     746.7128     637.8103
   1423.70789     746.1472     636.6505   1423.70789     746.1472     636.6505
   1423.69263     744.5602     637.2136   1423.69263     744.5602     637.2136
   1423.67737     744.6055     636.8118   1423.67737     744.6055     636.8118
   1423.66211     745.6766     636.6061   1423.66211     745.6766     636.6061
   1423.64685     743.7349     636.4742   1423.64685     743.7349     636.4742
   1423.63159     744.2136     635.8272   1423.63159     744.2136     635.8272
   1423.61633     744.3010     636.2656   1423.61633     744.3010     636.2656
   1423.60107     743.1459     636.6003   1423.60107     743.1459     636.6003
   1423.58582     743.4759     636.2130   1423.58582     743.4759     636.2130
   1423.57056     741.3282     635.1172   1423.57056     741.3282     635.1172
   1423.55530     741.4140     636.1575   1423.55530     741.4140     636.1575
   1423.54004     742.3437     635.9666   1423.54004     742.3437     635.9666
   1423.52478     740.4539     634.8910   1423.52478     740.4539     634.8910
   1423.50952     740.4673     635.0953   1423.50952     740.4673     635.0953
   1423.49426     739.9272     634.2879   1423.49426     739.9272     634.2879
   1423.47900     739.3936     634.0023   1423.47900     739.3936     634.0023
   1423.46375     739.5209     633.2681   1423.46375     739.5209     633.2681
   1423.44849     739.8168     633.3806   1423.44849     739.8168     633.3806
   1423.43323     739.4007     633.3875   1423.43323     739.4007     633.3875
   1423.41797     738.7886     633.2025   1423.41797     738.7886     633.2025
   1423.40271     737.8105     632.3027   1423.40271     737.8105     632.3027
   1423.38745     737.5597     633.7336   1423.38745     737.5597     633.7336
   1423.37219     738.3168     632.2419   1423.37219     738.3168     632.2419
   1423.35693     737.4203     631.5635   1423.35693     737.4203     631.5635
   1423.34167     735.8447     631.6459   1423.34167     735.8447     631.6459
   1423.32642     736.5133     629.9846   1423.32642     736.5133     629.9846
   1423.31116     736.7369     630.4807   1423.31116     736.7369     630.4807
   1423.29590     734.1628     630.0013   1423.29590     734.1628     630.0013
   1423.28064     734.9652     630.7029   1423.28064     734.9652     630.7029
   1423.26538     733.9766     628.7758   1423.26538     733.9766     628.7758
   1423.25012     734.2381     629.2258   1423.25012     734.2381     629.2258
   1423.23486     734.3215     628.6696   1423.23486     734.3215     628.6696
   1423.21960     734.4237     628.0317   1423.21960     734.4237     628.0317
   1423.20435     733.9263     627.4862   1423.20435     733.9263     627.4862
   1423.18909     734.2609     627.2571   1423.18909     734.2609     627.2571
   1423.17383     732.7429     626.8376   1423.17383     732.7429     626.8376
   1423.15857     731.2807     626.2071   1423.15857     731.2807     626.2071
   1423.14331     731.7364     625.9546   1423.14331     731.7364     625.9546
   1423.12805     731.8865     625.4581   1423.12805     731.8865     625.4581
   1423.11279     731.1544     623.5967   1423.11279     731.1544     623.5967
   1423.09753     730.7434     623.5243   1423.09753     730.7434     623.5243
   1423.08228     731.2511     623.7755   1423.08228     731.2511     623.7755
   1423.06702     729.5620     622.4156   1423.06702     729.5620     622.4156
   1423.05176     729.5228     622.7384   1423.05176     729.5228     622.7384
   1423.03650     730.1082     621.8994   1423.03650     730.1082     621.8994
   1423.02124     729.4840     621.2283   1423.02124     729.4840     621.2283
   1423.00598     728.9815     620.8920   1423.00598     728.9815     620.8920
   1422.99072     728.0201     620.0748   1422.99072     728.0201     620.0748
   1422.97546     729.6562     619.2518   1422.97546     729.6562     619.2518
   1422.96021     727.9982     618.6082   1422.96021     727.9982     618.6082
   1422.94495     728.5598     618.0722   1422.94495     728.5598     618.0722
   1422.92969     728.6729     617.7823   1422.92969     728.6729     617.7823
   1422.91443     727.2353     617.3018   1422.91443     727.2353     617.3018
   1422.89917     727.7291     616.5884   1422.89917     727.7291     616.5884
   1422.88391     726.6325     617.3526   1422.88391     726.6325     617.3526
   1422.86865     727.5759     615.5740   1422.86865     727.5759     615.5740
   1422.85339     725.6548     613.6967   1422.85339     725.6548     613.6967
   1422.83813     725.6707     614.6752   1422.83813     725.6707     614.6752
   1422.82288     724.7603     613.9308   1422.82288     724.7603     613.9308
   1422.80762     725.5486     612.1710   1422.80762     725.5486     612.1710
   1422.79236     724.7994     612.5295   1422.79236     724.7994     612.5295
   1422.77710     723.5483     611.0411   1422.77710     723.5483     611.0411
   1422.76184     723.5585     609.7389   1422.76184     723.5585     609.7389
   1422.74658     724.4891     609.9717   1422.74658     724.4891     609.9717
   1422.73132     722.7890     608.7968   1422.73132     722.7890     608.7968
   1422.71606     723.6844     607.9351   1422.71606     723.6844     607.9351
   1422.70081     723.5373     606.5458   1422.70081     723.5373     606.5458
   1422.68555     722.1950     606.4293   1422.68555     722.1950     606.4293
   1422.67029     722.4852     606.2079   1422.67029     722.4852     606.2079
   1422.65503     721.9247     605.1255   1422.65503     721.9247     605.1255
   1422.63977     722.4827     603.6565   1422.63977     722.4827     603.6565
   1422.62451     721.5226     602.8182   1422.62451     721.5226     602.8182
   1422.60925     721.3854     602.2725   1422.60925     721.3854     602.2725
   1422.59399     721.5936     601.6586   1422.59399     721.5936     601.6586
   1422.57874     721.5380     600.5840   1422.57874     721.5380     600.5840
   1422.56348     720.5261     600.2998   1422.56348     720.5261     600.2998
   1422.54822     721.0506     598.4031   1422.54822     721.0506     598.4031
   1422.53296     720.6881     598.0323   1422.53296     720.6881     598.0323
   1422.51770     720.7279     597.1583   1422.51770     720.7279     597.1583
   1422.50244     719.2425     596.8061   1422.50244     719.2425     596.8061
   1422.48718     720.9986     595.8505   1422.48718     720.9986     595.8505
   1422.47192     719.4965     594.8209   1422.47192     719.4965     594.8209
   1422.45667     718.6258     594.2279   1422.45667     718.6258     594.2279
   1422.44141     719.3331     592.8213   1422.44141     719.3331     592.8213
   1422.42615     720.0231     591.7444   1422.42615     720.0231     591.7444
   1422.41089     719.3118     591.3381   1422.41089     719.3118     591.3381
   1422.39563     719.5875     590.5152   1422.39563     719.5875     590.5152
   1422.38037     719.0089     589.0530   1422.38037     719.0089     589.0530
   1422.36511     717.6290     588.6429   1422.36511     717.6290     588.6429
   1422.34985     718.7411     587.5787   1422.34985     718.7411     587.5787
   1422.33459     717.5487     587.1307   1422.33459     717.5487     587.1307
   1422.31934     717.1120     586.1166   1422.31934     717.1120     586.1166
   1422.30408     718.3946     585.2242   1422.30408     718.3946     585.2242
   1422.28882     716.7154     583.3090   1422.28882     716.7154     583.3090
   1422.27356     717.3447     583.0917   1422.27356     717.3447     583.0917
   1422.25830     718.5024     581.2766   1422.25830     718.5024     581.2766
   1422.24304     717.5669     581.1843   1422.24304     717.5669     581.1843
   1422.22778     716.6213     580.1782   1422.22778     716.6213     580.1782
   1422.21252     716.1667     579.4402   1422.21252     716.1667     579.4402
   1422.19727     716.6415     576.6951   1422.19727     716.6415     576.6951
   1422.18201     716.0040     576.4506   1422.18201     716.0040     576.4506
   1422.16675     716.2593     576.6099   1422.16675     716.2593     576.6099
   1422.15149     715.0375     575.1577   1422.15149     715.0375     575.1577
   1422.13623     715.5042     572.9680   1422.13623     715.5042     572.9680
   1422.12097     717.0169     572.9239   1422.12097     717.0169     572.9239
   1422.10571     715.4393     570.7979   1422.10571     715.4393     570.7979
   1422.09045     714.8456     570.9834   1422.09045     714.8456     570.9834
   1422.07520     714.2191     569.2853   1422.07520     714.2191     569.2853
   1422.05994     714.0094     569.1987   1422.05994     714.0094     569.1987
   1422.04468     713.8232     566.5456   1422.04468     713.8232     566.5456
   1422.02942     713.6328     566.7067   1422.02942     713.6328     566.7067
   1422.01416     714.9298     565.2429   1422.01416     714.9298     565.2429
   1421.99890     713.9765     564.1233   1421.99890     713.9765     564.1233
   1421.98364     713.0200     563.0269   1421.98364     713.0200     563.0269
   1421.96838     712.9232     562.0004   1421.96838     712.9232     562.0004
   1421.95312     713.4004     561.0065   1421.95312     713.4004     561.0065
   1421.93787     713.0876     560.0714   1421.93787     713.0876     560.0714
   1421.92261     712.6500     558.0828   1421.92261     712.6500     558.0828
   1421.90735     712.9402     557.6224   1421.90735     712.9402     557.6224
   1421.89209     712.4616     557.0324   1421.89209     712.4616     557.0324
   1421.87683     712.5042     555.6998   1421.87683     712.5042     555.6998
   1421.86157     711.3070     553.9111   1421.86157     711.3070     553.9111
   1421.84631     713.1630     552.9653   1421.84631     713.1630     552.9653
   1421.83105     711.7206     552.0784   1421.83105     711.7206     552.0784
   1421.81580     712.0884     551.2403   1421.81580     712.0884     551.2403
   1421.80054     710.6542     550.1980   1421.80054     710.6542     550.1980
   1421.78528     712.4457     549.5585   1421.78528     712.4457     549.5585
   1421.77002     711.0724     548.0665   1421.77002     711.0724     548.0665
   1421.75476     710.8159     545.3878   1421.75476     710.8159     545.3878
   1421.73950     710.5409     545.3301   1421.73950     710.5409     545.3301
   1421.72424     710.8835     543.8965   1421.72424     710.8835     543.8965
   1421.70898     710.5255     542.1190   1421.70898     710.5255     542.1190
   1421.69373     711.3655     541.7478   1421.69373     711.3655     541.7478
   1421.67847     709.6655     540.6900   1421.67847     709.6655     540.6900
   1421.66321     710.1934     538.7457   1421.66321     710.1934     538.7457
   1421.64795     710.6859     539.1992   1421.64795     710.6859     539.1992
   1421.63269     709.0419     537.4368   1421.63269     709.0419     537.4368
   1421.61743     708.2957     536.0774   1421.61743     708.2957     536.0774
   1421.60217     709.0856     534.2346   1421.60217     709.0856     534.2346
   1421.58691     709.0837     533.8868   1421.58691     709.0837     533.8868
   1421.57166     708.7210     532.8901   1421.57166     708.7210     532.8901
   1421.55640     707.9794     531.3034   1421.55640     707.9794     531.3034
   1421.54114     707.8967     530.1461   1421.54114     707.8967     530.1461
   1421.52588     707.9773     530.2957   1421.52588     707.9773     530.2957
   1421.51062     708.9192     529.0958   1421.51062     708.9192     529.0958
   1421.49536     708.3204     527.4077   1421.49536     708.3204     527.4077
   1421.48010     707.6313     525.3010   1421.48010     707.6313     525.3010
   1421.46484     707.1281     525.4735   1421.46484     707.1281     525.4735
   1421.44958     708.3621     523.9715   1421.44958     708.3621     523.9715
   1421.43433     708.5006     523.4710   1421.43433     708.5006     523.4710
   1421.41907     708.9909     522.5576   1421.41907     708.9909     522.5576
   1421.40381     709.2044     520.4858   1421.40381     709.2044     520.4858
   1421.38855     707.6816     519.0457   1421.38855     707.6816     519.0457
   1421.37329     708.0006     517.5249   1421.37329     708.0006     517.5249
   1421.35803     708.0270     518.3235   1421.35803     708.0270     518.3235
   1421.34277     707.5979     516.8250   1421.34277     707.5979     516.8250
   1421.32751     708.0366     515.7061   1421.32751     708.0366     515.7061
   1421.31226     708.3800     514.8528   1421.31226     708.3800     514.8528
   1421.29700     708.3809     513.4978   1421.29700     708.3809     513.4978
   1421.28174     706.8826     512.3518   1421.28174     706.8826     512.3518
   1421.26648     707.2891     511.1810   1421.26648     707.2891     511.1810
   1421.25122     706.2374     510.6098   1421.25122     706.2374     510.6098
   1421.23596     708.2038     509.6358   1421.23596     708.2038     509.6358
   1421.22070     707.0245     508.1551   1421.22070     707.0245     508.1551
   1421.20544     706.5319     507.2737   1421.20544     706.5319     507.2737
   1421.19019     707.7474     505.4526   1421.19019     707.7474     505.4526
   1421.17493     706.0240     504.8658   1421.17493     706.0240     504.8658
   1421.15967     706.8730     503.5055   1421.15967     706.8730     503.5055
   1421.14441     707.4669     502.0914   1421.14441     707.4669     502.0914
   1421.12915     707.9417     502.6415   1421.12915     707.9417     502.6415
   1421.11389     707.0732     502.3752   1421.11389     707.0732     502.3752
   1421.09863     710.0303     503.1072   1421.09863     710.0303     503.1072
   1421.08337     714.2059     504.4214   1421.08337     714.2059     504.4214
   1421.06812     722.2765     508.3869   1421.06812     722.2765     508.3869
   1421.05286     737.7145     518.9799   1421.05286     737.7145     518.9799
   1421.03760     772.2399     540.2126   1421.03760     772.2399     540.2126
   1421.02234     798.4584     558.3812   1421.02234     798.4584     558.3812
   1421.00708     815.1865     566.7708   1421.00708     815.1865     566.7708
   1420.99182     859.5275     596.9419   1420.99182     859.5275     596.9419
   1420.97656     879.3240     608.6788   1420.97656     879.3240     608.6788
   1420.96130     898.0748     621.2956   1420.96130     898.0748     621.2956
   1420.94604    1025.9283     707.3502   1420.94604    1025.9283     707.3502
   1420.93079    1235.7727     845.3364   1420.93079    1235.7727     845.3364
   1420.91553    1087.7513     745.8629   1420.91553    1087.7513     745.8629
   1420.90027     912.3212     626.5137   1420.90027     912.3212     626.5137
   1420.88501     863.6680     592.1493   1420.88501     863.6680     592.1493
   1420.86975     840.5746     575.4747   1420.86975     840.5746     575.4747
   1420.85449     831.6219     568.8687   1420.85449     831.6219     568.8687
   1420.83923     845.5343     577.1941   1420.83923     845.5343     577.1941
   1420.82397     872.8078     593.0089   1420.82397     872.8078     593.0089
   1420.80872     954.7950     648.3769   1420.80872     954.7950     648.3769
   1420.79346    1147.7351     773.9670   1420.79346    1147.7351     773.9670
   1420.77820    1355.0217     909.3501   1420.77820    1355.0217     909.3501
   1420.76294    1454.9857     973.0214   1420.76294    1454.9857     973.0214
   1420.74768    1508.0831    1010.8093   1420.74768    1508.0831    1010.8093
   1420.73242    1630.4277    1084.0525   1420.73242    1630.4277    1084.0525
   1420.71716    1800.9502    1190.6959   1420.71716    1800.9502    1190.6959
   1420.70190    1829.4658    1207.3661   1420.70190    1829.4658    1207.3661
   1420.68665    1746.8323    1152.8282   1420.68665    1746.8323    1152.8282
   1420.67139    1681.4154    1109.6206   1420.67139    1681.4154    1109.6206
   1420.65613    1630.0522    1075.7036   1420.65613    1630.0522    1075.7036
   1420.64087    1465.8817     966.7800   1420.64087    1465.8817     966.7800
   1420.62561    1171.2245     774.4186   1420.62561    1171.2245     774.4186
   1420.61035    1029.5696     678.8085   1420.61035    1029.5696     678.8085
   1420.59509    1003.5594     661.0057   1420.59509    1003.5594     661.0057
   1420.57983    1068.6924     703.4576   1420.57983    1068.6924     703.4576
   1420.56458    1274.5320     835.5325   1420.56458    1274.5320     835.5325
   1420.54932    1551.1681    1009.9743   1420.54932    1551.1681    1009.9743
   1420.53406    1847.9431    1198.0603   1420.53406    1847.9431    1198.0603
   1420.51880    1914.9144    1239.8165   1420.51880    1914.9144    1239.8165
   1420.50354    1630.9276    1057.0898   1420.50354    1630.9276    1057.0898
   1420.48828    1446.7291     940.2568   1420.48828    1446.7291     940.2568
   1420.47302    1461.4868     945.9817   1420.47302    1461.4868     945.9817
   1420.45776    1633.1038    1051.1385   1420.45776    1633.1038    1051.1385
   1420.44250    1243.6941     804.4016   1420.44250    1243.6941     804.4016
   1420.42725     894.4170     580.6464   1420.42725     894.4170     580.6464
   1420.41199     787.8968     513.1838   1420.41199     787.8968     513.1838
   1420.39673     746.9514     485.0600   1420.39673     746.9514     485.0600
   1420.38147     725.2338     471.2298   1420.38147     725.2338     471.2298
   1420.36621     713.8192     464.3598   1420.36621     713.8192     464.3598
   1420.35095     709.7951     460.1107   1420.35095     709.7951     460.1107
   1420.33569     704.5106     457.3750   1420.33569     704.5106     457.3750
   1420.32043     703.8216     455.7376   1420.32043     703.8216     455.7376
   1420.30518     701.2786     454.4991   1420.30518     701.2786     454.4991
   1420.28992     700.9998     452.6929   1420.28992     700.9998     452.6929
   1420.27466     700.5663     452.1367   1420.27466     700.5663     452.1367
   1420.25940     700.2849     450.3333   1420.25940     700.2849     450.3333
   1420.24414     700.2198     449.7687   1420.24414     700.2198     449.7687
   1420.22888     698.2554     448.8474   1420.22888     698.2554     448.8474
   1420.21362     699.2757     447.5208   1420.21362     699.2757     447.5208
   1420.19836     697.7637     446.1922   1420.19836     697.7637     446.1922
   1420.18311     697.1020     445.5523   1420.18311     697.1020     445.5523
   1420.16785     696.6537     444.5356   1420.16785     696.6537     444.5356
   1420.15259     696.6281     443.5009   1420.15259     696.6281     443.5009
   1420.13733     696.9494     442.6815   1420.13733     696.9494     442.6815
   1420.12207     694.5154     442.0337   1420.12207     694.5154     442.0337
   1420.10681     693.9344     440.5847   1420.10681     693.9344     440.5847
   1420.09155     692.2703     439.4266   1420.09155     692.2703     439.4266
   1420.07629     692.8517     438.4577   1420.07629     692.8517     438.4577
   1420.06104     692.9459     438.0354   1420.06104     692.9459     438.0354
   1420.04578     691.5696     437.2220   1420.04578     691.5696     437.2220
   1420.03052     691.1284     436.6038   1420.03052     691.1284     436.6038
   1420.01526     692.9243     436.8875   1420.01526     692.9243     436.8875
   1420.00000     693.2353     437.3664   1420.00000     693.2353     437.3664
   1419.98474     693.5464     437.8451   1419.98474     693.5464     437.8451
   1419.96948     694.6923     435.7346   1419.96948     694.6923     435.7346
   1419.95422     691.8142     434.0848   1419.95422     691.8142     434.0848
   1419.93896     691.6772     433.9196   1419.93896     691.6772     433.9196
   1419.92371     692.0063     432.9291   1419.92371     692.0063     432.9291
   1419.90845     691.2001     432.7966   1419.90845     691.2001     432.7966
   1419.89319     692.3289     432.2419   1419.89319     692.3289     432.2419
   1419.87793     692.2009     431.9877   1419.87793     692.2009     431.9877
   1419.86267     692.2949     432.2548   1419.86267     692.2949     432.2548
   1419.84741     692.3965     430.6075   1419.84741     692.3965     430.6075
   1419.83215     692.7528     430.4464   1419.83215     692.7528     430.4464
   1419.81689     692.3284     429.8213   1419.81689     692.3284     429.8213
   1419.80164     692.1679     429.5096   1419.80164     692.1679     429.5096
   1419.78638     692.1561     429.0324   1419.78638     692.1561     429.0324
   1419.77112     692.7584     428.0537   1419.77112     692.7584     428.0537
   1419.75586     692.4434     428.4814   1419.75586     692.4434     428.4814
   1419.74060     692.4436     428.0389   1419.74060     692.4436     428.0389
   1419.72534     693.0205     428.9677   1419.72534     693.0205     428.9677
   1419.71008     693.2970     427.9690   1419.71008     693.2970     427.9690
   1419.69482     693.4252     428.1477   1419.69482     693.4252     428.1477
   1419.67957     693.7461     428.2284   1419.67957     693.7461     428.2284
   1419.66431     693.6706     427.5456   1419.66431     693.6706     427.5456
   1419.64905     693.5319     427.3497   1419.64905     693.5319     427.3497
   1419.63379     694.4733     426.3535   1419.63379     694.4733     426.3535
   1419.61853     693.8013     426.9339   1419.61853     693.8013     426.9339
   1419.60327     694.0381     426.0025   1419.60327     694.0381     426.0025
   1419.58801     694.4401     426.4978   1419.58801     694.4401     426.4978
   1419.57275     695.4723     426.3688   1419.57275     695.4723     426.3688
   1419.55750     694.5593     426.8037   1419.55750     694.5593     426.8037
   1419.54224     694.9329     426.0714   1419.54224     694.9329     426.0714
   1419.52698     695.8382     426.0232   1419.52698     695.8382     426.0232
   1419.51172     695.3144     426.2606   1419.51172     695.3144     426.2606
   1419.49646     696.7841     426.6668   1419.49646     696.7841     426.6668
   1419.48120     696.7005     425.7239   1419.48120     696.7005     425.7239
   1419.46594     697.9468     425.6967   1419.46594     697.9468     425.6967
   1419.45068     696.8680     425.3958   1419.45068     696.8680     425.3958
   1419.43542     697.3241     425.0080   1419.43542     697.3241     425.0080
   1419.42017     698.3416     425.8230   1419.42017     698.3416     425.8230
   1419.40491     697.7413     425.6247   1419.40491     697.7413     425.6247
   1419.38965     699.0566     425.3452   1419.38965     699.0566     425.3452
   1419.37439     698.1892     425.9695   1419.37439     698.1892     425.9695
   1419.35913     699.3054     425.7806   1419.35913     699.3054     425.7806
   1419.34387     697.7969     425.3864   1419.34387     697.7969     425.3864
   1419.32861     698.6992     426.2114   1419.32861     698.6992     426.2114
   1419.31335     700.2542     425.5410   1419.31335     700.2542     425.5410
   1419.29810     701.0363     425.9941   1419.29810     701.0363     425.9941
   1419.28284     700.1639     426.9114   1419.28284     700.1639     426.9114
   1419.26758     700.3348     426.0312   1419.26758     700.3348     426.0312
   1419.25232     701.2232     427.1727   1419.25232     701.2232     427.1727
   1419.23706     700.9103     426.2431   1419.23706     700.9103     426.2431
   1419.22180     702.0132     426.7160   1419.22180     702.0132     426.7160
   1419.20654     702.6664     427.2940   1419.20654     702.6664     427.2940
   1419.19128     702.0940     427.1779   1419.19128     702.0940     427.1779
   1419.17603     703.5938     427.5813   1419.17603     703.5938     427.5813
   1419.16077     702.8163     427.2398   1419.16077     702.8163     427.2398
   1419.14551     704.0006     427.8803   1419.14551     704.0006     427.8803
   1419.13025     704.6143     428.3124   1419.13025     704.6143     428.3124
   1419.11499     705.1512     428.4155   1419.11499     705.1512     428.4155
   1419.09973     704.8513     428.4810   1419.09973     704.8513     428.4810
   1419.08447     706.5408     428.2327   1419.08447     706.5408     428.2327
   1419.06921     706.4467     429.3071   1419.06921     706.4467     429.3071
   1419.05396     705.4814     429.0434   1419.05396     705.4814     429.0434
   1419.03870     707.6594     429.5426   1419.03870     707.6594     429.5426
   1419.02344     707.1449     429.3409   1419.02344     707.1449     429.3409
   1419.00818     708.6428     430.3308   1419.00818     708.6428     430.3308
   1418.99292     708.2496     430.4819   1418.99292     708.2496     430.4819
   1418.97766     710.0377     430.9636   1418.97766     710.0377     430.9636
   1418.96240     709.3577     430.4554   1418.96240     709.3577     430.4554
   1418.94714     709.9875     431.8800   1418.94714     709.9875     431.8800
   1418.93188     710.5048     431.8016   1418.93188     710.5048     431.8016
   1418.91663     711.4530     432.4865   1418.91663     711.4530     432.4865
   1418.90137     711.7678     433.3572   1418.90137     711.7678     433.3572
   1418.88611     711.0576     433.6083   1418.88611     711.0576     433.6083
   1418.87085     713.0914     433.7612   1418.87085     713.0914     433.7612
   1418.85559     714.4010     434.3499   1418.85559     714.4010     434.3499
   1418.84033     713.8113     434.2031   1418.84033     713.8113     434.2031
   1418.82507     714.6085     434.9955   1418.82507     714.6085     434.9955
   1418.80981     715.2732     435.4621   1418.80981     715.2732     435.4621
   1418.79456     715.7988     435.9576   1418.79456     715.7988     435.9576
   1418.77930     716.0923     436.6290   1418.77930     716.0923     436.6290
   1418.76404     716.4363     437.5298   1418.76404     716.4363     437.5298
   1418.74878     717.7488     437.6733   1418.74878     717.7488     437.6733
   1418.73352     717.5049     438.2185   1418.73352     717.5049     438.2185
   1418.71826     717.7701     438.2122   1418.71826     717.7701     438.2122
   1418.70300     718.7050     439.1812   1418.70300     718.7050     439.1812
   1418.68774     720.0421     440.1304   1418.68774     720.0421     440.1304
   1418.67249     720.9161     440.4895   1418.67249     720.9161     440.4895
   1418.65723     721.6246     441.3000   1418.65723     721.6246     441.3000
   1418.64197     721.6678     441.5392   1418.64197     721.6678     441.5392
   1418.62671     722.1727     441.8348   1418.62671     722.1727     441.8348
   1418.61145     724.0518     442.8661   1418.61145     724.0518     442.8661
   1418.59619     724.8004     443.3615   1418.59619     724.8004     443.3615
   1418.58093     724.0929     443.8745   1418.58093     724.0929     443.8745
   1418.56567     725.2468     444.5810   1418.56567     725.2468     444.5810
   1418.55042     725.3534     444.6216   1418.55042     725.3534     444.6216
   1418.53516     727.1296     446.1435   1418.53516     727.1296     446.1435
   1418.51990     726.8984     446.5307   1418.51990     726.8984     446.5307
   1418.50464     728.1441     447.2423   1418.50464     728.1441     447.2423
   1418.48938     729.0129     448.4232   1418.48938     729.0129     448.4232
   1418.47412     729.9711     449.6127   1418.47412     729.9711     449.6127
   1418.45886     730.3994     449.3054   1418.45886     730.3994     449.3054
   1418.44360     731.3665     450.0435   1418.44360     731.3665     450.0435
   1418.42834     731.7883     451.1636   1418.42834     731.7883     451.1636
   1418.41309     732.0854     451.6316   1418.41309     732.0854     451.6316
   1418.39783     733.6121     452.9242   1418.39783     733.6121     452.9242
   1418.38257     733.5164     453.3814   1418.38257     733.5164     453.3814
   1418.36731     735.0338     455.5030   1418.36731     735.0338     455.5030
   1418.35205     735.3069     455.2714   1418.35205     735.3069     455.2714
   1418.33679     735.6367     456.8253   1418.33679     735.6367     456.8253
   1418.32153     736.6295     457.4328   1418.32153     736.6295     457.4328
   1418.30627     738.4764     459.1465   1418.30627     738.4764     459.1465
   1418.29102     738.6924     459.0524   1418.29102     738.6924     459.0524
   1418.27576     739.0753     459.5057   1418.27576     739.0753     459.5057
   1418.26050     741.3520     460.7081   1418.26050     741.3520     460.7081
   1418.24524     740.8097     461.2535   1418.24524     740.8097     461.2535
   1418.22998     742.0695     461.9375   1418.22998     742.0695     461.9375
   1418.21472     742.5425     463.1811   1418.21472     742.5425     463.1811
   1418.19946     743.7687     463.9050   1418.19946     743.7687     463.9050
   1418.18420     745.5793     464.9118   1418.18420     745.5793     464.9118
   1418.16895     746.6595     465.6988   1418.16895     746.6595     465.6988
   1418.15369     745.8133     467.1663   1418.15369     745.8133     467.1663
   1418.13843     745.7899     467.7016   1418.13843     745.7899     467.7016
   1418.12317     748.5902     469.2842   1418.12317     748.5902     469.2842
   1418.10791     749.4454     469.8676   1418.10791     749.4454     469.8676
   1418.09265     749.5778     470.6132   1418.09265     749.5778     470.6132
   1418.07739     751.0074     471.0998   1418.07739     751.0074     471.0998
   1418.06213     751.3203     472.4554   1418.06213     751.3203     472.4554
   1418.04688     751.9250     473.4138   1418.04688     751.9250     473.4138
   1418.03162     753.6724     474.3663   1418.03162     753.6724     474.3663
   1418.01636     754.3323     475.2028   1418.01636     754.3323     475.2028
   1418.00110     753.9907     475.5118   1418.00110     753.9907     475.5118
   1417.98584     756.3653     478.0804   1417.98584     756.3653     478.0804
   1417.97058     756.7576     477.9109   1417.97058     756.7576     477.9109
   1417.95532     757.8475     479.0973   1417.95532     757.8475     479.0973
   1417.94006     758.8395     480.0845   1417.94006     758.8395     480.0845
   1417.92480     760.0136     481.5602   1417.92480     760.0136     481.5602
   1417.90955     761.0319     482.3562   1417.90955     761.0319     482.3562
   1417.89429     761.5547     483.7513   1417.89429     761.5547     483.7513
   1417.87903     763.1195     484.0412   1417.87903     763.1195     484.0412
   1417.86377     764.8195     485.6644   1417.86377     764.8195     485.6644
   1417.84851     764.4037     486.4362   1417.84851     764.4037     486.4362
   1417.83325     765.6114     488.3815   1417.83325     765.6114     488.3815
   1417.81799     766.2535     489.0524   1417.81799     766.2535     489.0524
   1417.80273     768.4172     490.0455   1417.80273     768.4172     490.0455
   1417.78748     769.1569     490.9033   1417.78748     769.1569     490.9033
   1417.77222     770.2725     492.3638   1417.77222     770.2725     492.3638
   1417.75696     770.0126     492.7310   1417.75696     770.0126     492.7310
   1417.74170     770.9714     494.2970   1417.74170     770.9714     494.2970
   1417.72644     772.0931     495.1879   1417.72644     772.0931     495.1879
   1417.71118     773.2305     496.6961   1417.71118     773.2305     496.6961
   1417.69592     773.6108     497.8132   1417.69592     773.6108     497.8132
   1417.68066     775.2200     498.5172   1417.68066     775.2200     498.5172
   1417.66541     776.2749     499.3896   1417.66541     776.2749     499.3896
   1417.65015     777.3699     500.3832   1417.65015     777.3699     500.3832
   1417.63489     778.9877     502.0780   1417.63489     778.9877     502.0780
   1417.61963     779.1862     502.4294   1417.61963     779.1862     502.4294
   1417.60437     780.5173     503.6522   1417.60437     780.5173     503.6522
   1417.58911     780.5767     503.9942   1417.58911     780.5767     503.9942
   1417.57385     782.3373     506.3108   1417.57385     782.3373     506.3108
   1417.55859     783.2000     506.8092   1417.55859     783.2000     506.8092
   1417.54333     784.4173     508.5362   1417.54333     784.4173     508.5362
   1417.52808     783.3436     509.1874   1417.52808     783.3436     509.1874
   1417.51282     785.2003     510.6832   1417.51282     785.2003     510.6832
   1417.49756     787.0313     511.3270   1417.49756     787.0313     511.3270
   1417.48230     787.1843     512.7491   1417.48230     787.1843     512.7491
   1417.46704     790.1433     514.1165   1417.46704     790.1433     514.1165
   1417.45178     787.4020     514.0263   1417.45178     787.4020     514.0263
   1417.43652     789.7626     515.0953   1417.43652     789.7626     515.0953
   1417.42126     791.1291     516.8624   1417.42126     791.1291     516.8624
   1417.40601     790.5337     518.9272   1417.40601     790.5337     518.9272
   1417.39075     792.3618     518.9163   1417.39075     792.3618     518.9163
   1417.37549     793.5112     519.9497   1417.37549     793.5112     519.9497
   1417.36023     795.4271     521.1154   1417.36023     795.4271     521.1154
   1417.34497     796.0337     521.9719   1417.34497     796.0337     521.9719
   1417.32971     796.7220     523.3994   1417.32971     796.7220     523.3994
   1417.31445     798.0692     524.7097   1417.31445     798.0692     524.7097
   1417.29919     798.3550     524.9332   1417.29919     798.3550     524.9332
   1417.28394     799.0406     525.7174   1417.28394     799.0406     525.7174
   1417.26868     799.6676     526.0807   1417.26868     799.6676     526.0807
   1417.25342     801.6431     527.5763   1417.25342     801.6431     527.5763
   1417.23816     801.6344     529.1804   1417.23816     801.6344     529.1804
   1417.22290     803.4610     530.0673   1417.22290     803.4610     530.0673
   1417.20764     803.8813     530.9310   1417.20764     803.8813     530.9310
   1417.19238     805.5173     532.0781   1417.19238     805.5173     532.0781
   1417.17712     805.2711     533.6642   1417.17712     805.2711     533.6642
   1417.16187     807.0716     533.9699   1417.16187     807.0716     533.9699
   1417.14661     807.2242     534.9011   1417.14661     807.2242     534.9011
   1417.13135     807.6520     535.2696   1417.13135     807.6520     535.2696
   1417.11609     807.9667     536.8610   1417.11609     807.9667     536.8610
   1417.10083     809.8162     537.6625   1417.10083     809.8162     537.6625
   1417.08557     810.3950     537.9604   1417.08557     810.3950     537.9604
   1417.07031     810.0677     538.3140   1417.07031     810.0677     538.3140
   1417.05505     811.5919     539.7858   1417.05505     811.5919     539.7858
   1417.03979     811.9031     540.0111   1417.03979     811.9031     540.0111
   1417.02454     812.9155     541.8789   1417.02454     812.9155     541.8789
   1417.00928     813.6418     542.3328   1417.00928     813.6418     542.3328
   1416.99402     815.2422     543.6536   1416.99402     815.2422     543.6536
   1416.97876     815.7154     543.7386   1416.97876     815.7154     543.7386
   1416.96350     816.4269     544.5134   1416.96350     816.4269     544.5134
   1416.94824     815.6107     544.9969   1416.94824     815.6107     544.9969
   1416.93298     817.5771     547.0524   1416.93298     817.5771     547.0524
   1416.91772     816.7155     546.8214   1416.91772     816.7155     546.8214
   1416.90247     818.0770     546.4908   1416.90247     818.0770     546.4908
   1416.88721     820.0916     547.6066   1416.88721     820.0916     547.6066
   1416.87195     819.5585     548.1060   1416.87195     819.5585     548.1060
   1416.85669     819.0479     548.8669   1416.85669     819.0479     548.8669
   1416.84143     820.5948     549.1014   1416.84143     820.5948     549.1014
   1416.82617     820.6339     548.9799   1416.82617     820.6339     548.9799
   1416.81091     821.6458     550.2148   1416.81091     821.6458     550.2148
   1416.79565     820.5396     551.1176   1416.79565     820.5396     551.1176
   1416.78040     822.8627     551.7525   1416.78040     822.8627     551.7525
   1416.76514     822.9073     551.4470   1416.76514     822.9073     551.4470
   1416.74988     823.0511     552.6245   1416.74988     823.0511     552.6245
   1416.73462     822.6025     552.2442   1416.73462     822.6025     552.2442
   1416.71936     823.6649     553.1559   1416.71936     823.6649     553.1559
   1416.70410     825.6850     552.9763   1416.70410     825.6850     552.9763
   1416.68884     823.4335     553.2015   1416.68884     823.4335     553.2015
   1416.67358     824.0328     553.1315   1416.67358     824.0328     553.1315
   1416.65833     825.7275     554.3581   1416.65833     825.7275     554.3581
   1416.64307     825.3219     554.5237   1416.64307     825.3219     554.5237
   1416.62781     826.9333     554.1790   1416.62781     826.9333     554.1790
   1416.61255     825.6610     554.3793   1416.61255     825.6610     554.3793
   1416.59729     826.9962     554.6575   1416.59729     826.9962     554.6575
   1416.58203     827.6064     555.0918   1416.58203     827.6064     555.0918
   1416.56677     826.7788     554.4799   1416.56677     826.7788     554.4799
   1416.55151     827.3599     556.2995   1416.55151     827.3599     556.2995
   1416.53625     826.9570     555.1254   1416.53625     826.9570     555.1254
   1416.52100     826.7858     555.2034   1416.52100     826.7858     555.2034
   1416.50574     827.4817     555.1275   1416.50574     827.4817     555.1275
   1416.49048     826.8584     555.8998   1416.49048     826.8584     555.8998
   1416.47522     828.2578     554.7758   1416.47522     828.2578     554.7758
   1416.45996     826.3549     554.8691   1416.45996     826.3549     554.8691
   1416.44470     828.1246     555.1882   1416.44470     828.1246     555.1882
   1416.42944     826.9258     554.6295   1416.42944     826.9258     554.6295
   1416.41418     827.7562     554.6027   1416.41418     827.7562     554.6027
   1416.39893     828.4958     554.4154   1416.39893     828.4958     554.4154
   1416.38367     827.9467     554.0761   1416.38367     827.9467     554.0761
   1416.36841     827.2766     554.6434   1416.36841     827.2766     554.6434
   1416.35315     827.5073     553.9344   1416.35315     827.5073     553.9344
   1416.33789     826.9394     553.2909   1416.33789     826.9394     553.2909
   1416.32263     828.3149     554.3735   1416.32263     828.3149     554.3735
   1416.30737     827.1168     553.3792   1416.30737     827.1168     553.3792
   1416.29211     826.2712     552.1044   1416.29211     826.2712     552.1044
   1416.27686     828.1985     552.4119   1416.27686     828.1985     552.4119
   1416.26160     827.1458     552.0803   1416.26160     827.1458     552.0803
   1416.24634     826.7341     552.0966   1416.24634     826.7341     552.0966
   1416.23108     826.4410     552.0112   1416.23108     826.4410     552.0112
   1416.21582     826.3052     551.6667   1416.21582     826.3052     551.6667
   1416.20056     825.2330     550.3716   1416.20056     825.2330     550.3716
   1416.18530     825.6025     549.8151   1416.18530     825.6025     549.8151
   1416.17004     826.4698     549.5584   1416.17004     826.4698     549.5584
   1416.15479     825.3904     548.5118   1416.15479     825.3904     548.5118
   1416.13953     824.4833     548.2793   1416.13953     824.4833     548.2793
   1416.12427     825.8829     546.9956   1416.12427     825.8829     546.9956
   1416.10901     825.1248     547.7303   1416.10901     825.1248     547.7303
   1416.09375     823.6100     547.1631   1416.09375     823.6100     547.1631
   1416.07849     823.3652     546.5222   1416.07849     823.3652     546.5222
   1416.06323     822.3781     545.8222   1416.06323     822.3781     545.8222
   1416.04797     821.7321     544.6426   1416.04797     821.7321     544.6426
   1416.03271     823.0167     544.5828   1416.03271     823.0167     544.5828
   1416.01746     823.7606     544.0123   1416.01746     823.7606     544.0123
   1416.00220     822.3437     543.5058   1416.00220     822.3437     543.5058
   1415.98694     821.4710     542.9448   1415.98694     821.4710     542.9448
   1415.97168     820.5199     541.9924   1415.97168     820.5199     541.9924
   1415.95642     820.9901     540.8777   1415.95642     820.9901     540.8777
   1415.94116     820.2864     540.5517   1415.94116     820.2864     540.5517
   1415.92590     819.8859     539.4881   1415.92590     819.8859     539.4881
   1415.91064     819.0274     538.7265   1415.91064     819.0274     538.7265
   1415.89539     818.3832     537.7813   1415.89539     818.3832     537.7813
   1415.88013     816.9714     538.5958   1415.88013     816.9714     538.5958
   1415.86487     816.8130     536.8413   1415.86487     816.8130     536.8413
   1415.84961     816.5707     536.2012   1415.84961     816.5707     536.2012
   1415.83435     815.6923     535.8647   1415.83435     815.6923     535.8647
   1415.81909     815.4599     534.7252   1415.81909     815.4599     534.7252
   1415.80383     814.4463     533.7811   1415.80383     814.4463     533.7811
   1415.78857     815.0615     533.5352   1415.78857     815.0615     533.5352
   1415.77332     812.8655     533.3237   1415.77332     812.8655     533.3237
   1415.75806     814.3737     531.3845   1415.75806     814.3737     531.3845
   1415.74280     812.7281     531.1164   1415.74280     812.7281     531.1164
   1415.72754     811.5297     529.7472   1415.72754     811.5297     529.7472
   1415.71228     810.8762     529.3507   1415.71228     810.8762     529.3507
   1415.69702     809.6179     528.8287   1415.69702     809.6179     528.8287
   1415.68176     809.6517     528.4725   1415.68176     809.6517     528.4725
   1415.66650     809.3664     526.8704   1415.66650     809.3664     526.8704
   1415.65125     808.9484     526.2109   1415.65125     808.9484     526.2109
   1415.63599     807.6227     525.1798   1415.63599     807.6227     525.1798
   1415.62073     806.9877     524.4760   1415.62073     806.9877     524.4760
   1415.60547     805.7969     524.7534   1415.60547     805.7969     524.7534
   1415.59021     805.4414     523.0508   1415.59021     805.4414     523.0508
   1415.57495     804.6489     523.1006   1415.57495     804.6489     523.1006
   1415.55969     802.7835     521.6213   1415.55969     802.7835     521.6213
   1415.54443     802.5834     520.7520   1415.54443     802.5834     520.7520
   1415.52917     800.7172     519.2924   1415.52917     800.7172     519.2924
   1415.51392     800.5634     519.0909   1415.51392     800.5634     519.0909
   1415.49866     800.1342     517.3323   1415.49866     800.1342     517.3323
   1415.48340     797.7390     517.5582   1415.48340     797.7390     517.5582
   1415.46814     798.2860     516.4880   1415.46814     798.2860     516.4880
   1415.45288     797.2808     515.7797   1415.45288     797.2808     515.7797
   1415.43762     794.8688     513.5010   1415.43762     794.8688     513.5010
   1415.42236     795.4071     514.0145   1415.42236     795.4071     514.0145
   1415.40710     793.9023     512.5929   1415.40710     793.9023     512.5929
   1415.39185     792.5031     511.7077   1415.39185     792.5031     511.7077
   1415.37659     791.9001     509.3488   1415.37659     791.9001     509.3488
   1415.36133     791.5042     510.0579   1415.36133     791.5042     510.0579
   1415.34607     788.7156     508.5962   1415.34607     788.7156     508.5962
   1415.33081     788.9889     507.5451   1415.33081     788.9889     507.5451
   1415.31555     787.0345     506.4346   1415.31555     787.0345     506.4346
   1415.30029     786.8087     506.1929   1415.30029     786.8087     506.1929
   1415.28503     785.6992     504.2776   1415.28503     785.6992     504.2776
   1415.26978     783.8057     503.9404   1415.26978     783.8057     503.9404
   1415.25452     782.7292     502.1891   1415.25452     782.7292     502.1891
   1415.23926     781.1588     501.8620   1415.23926     781.1588     501.8620
   1415.22400     780.2557     501.0444   1415.22400     780.2557     501.0444
   1415.20874     777.5889     499.3979   1415.20874     777.5889     499.3979
   1415.19348     777.2953     499.4708   1415.19348     777.2953     499.4708
   1415.17822     777.4744     498.2249   1415.17822     777.4744     498.2249
   1415.16296     774.3326     496.9969   1415.16296     774.3326     496.9969
   1415.14771     773.9890     495.8407   1415.14771     773.9890     495.8407
   1415.13245     772.2286     495.3234   1415.13245     772.2286     495.3234
   1415.11719     770.9446     493.2109   1415.11719     770.9446     493.2109
   1415.10193     769.5143     492.8859   1415.10193     769.5143     492.8859
   1415.08667     767.6970     491.6048   1415.08667     767.6970     491.6048
   1415.07141     767.8713     489.8813   1415.07141     767.8713     489.8813
   1415.05615     766.1604     489.2882   1415.05615     766.1604     489.2882
   1415.04089     764.0219     488.6266   1415.04089     764.0219     488.6266
   1415.02563     762.2317     487.2773   1415.02563     762.2317     487.2773
   1415.01038     761.1359     485.9121   1415.01038     761.1359     485.9121
   1414.99512     758.4470     484.9098   1414.99512     758.4470     484.9098
   1414.97986     757.7946     483.8649   1414.97986     757.7946     483.8649
   1414.96460     755.4316     482.6444   1414.96460     755.4316     482.6444
   1414.94934     754.1933     482.0185   1414.94934     754.1933     482.0185
   1414.93408     751.4404     480.7341   1414.93408     751.4404     480.7341
   1414.91882     751.9492     479.1411   1414.91882     751.9492     479.1411
   1414.90356     748.4702     477.9525   1414.90356     748.4702     477.9525
   1414.88831     747.0657     476.5464   1414.88831     747.0657     476.5464
   1414.87305     745.0429     475.9763   1414.87305     745.0429     475.9763
   1414.85779     743.6269     474.2881   1414.85779     743.6269     474.2881
   1414.84253     741.5206     473.1212   1414.84253     741.5206     473.1212
   1414.82727     740.0611     471.6175   1414.82727     740.0611     471.6175
   1414.81201     738.2156     470.3814   1414.81201     738.2156     470.3814
   1414.79675     736.3479     469.0410   1414.79675     736.3479     469.0410
   1414.78149     733.8904     468.4442   1414.78149     733.8904     468.4442
   1414.76624     732.2621     466.5910   1414.76624     732.2621     466.5910
   1414.75098     730.6799     465.1559   1414.75098     730.6799     465.1559
   1414.73572     727.9437     463.9663   1414.73572     727.9437     463.9663
   1414.72046     727.1829     462.9764   1414.72046     727.1829     462.9764
   1414.70520     724.4843     461.3501   1414.70520     724.4843     461.3501
   1414.68994     721.9467     459.9479   1414.68994     721.9467     459.9479
   1414.67468     720.8408     459.5009   1414.67468     720.8408     459.5009
   1414.65942     718.8790     457.5548   1414.65942     718.8790     457.5548
   1414.64417     716.6462     456.5915   1414.64417     716.6462     456.5915
   1414.62891     714.2037     454.9419   1414.62891     714.2037     454.9419
   1414.61365     712.0471     452.6188   1414.61365     712.0471     452.6188
   1414.59839     709.8232     452.1989   1414.59839     709.8232     452.1989
   1414.58313     707.3561     451.1243   1414.58313     707.3561     451.1243
   1414.56787     704.7520     450.0293   1414.56787     704.7520     450.0293
   1414.55261     701.6503     448.0573   1414.55261     701.6503     448.0573
   1414.53735     700.0785     446.6283   1414.53735     700.0785     446.6283
   1414.52209     698.2213     444.6644   1414.52209     698.2213     444.6644
   1414.50684     696.9783     442.6276   1414.50684     696.9783     442.6276
   1414.49158     693.3859     441.9273   1414.49158     693.3859     441.9273
   1414.47632     690.0843     440.4897   1414.47632     690.0843     440.4897
   1414.46106     689.0750     439.5031   1414.46106     689.0750     439.5031
   1414.44580     686.9343     437.8396   1414.44580     686.9343     437.8396
   1414.43054     685.1791     437.0302   1414.43054     685.1791     437.0302
   1414.41528     681.4694     435.0161   1414.41528     681.4694     435.0161
   1414.40002     678.5755     432.8085   1414.40002     678.5755     432.8085
   1414.38477     676.7712     431.4608   1414.38477     676.7712     431.4608
   1414.36951     674.5828     430.9261   1414.36951     674.5828     430.9261
   1414.35425     672.4279     428.5872   1414.35425     672.4279     428.5872
   1414.33899     669.3634     426.9828   1414.33899     669.3634     426.9828
   1414.32373     667.7777     425.4627   1414.32373     667.7777     425.4627
   1414.30847     663.2998     423.9561   1414.30847     663.2998     423.9561
   1414.29321     661.4792     422.9009   1414.29321     661.4792     422.9009
   1414.27795     657.6805     420.5484   1414.27795     657.6805     420.5484
   1414.26270     656.6607     419.7590   1414.26270     656.6607     419.7590
   1414.24744     653.2767     417.9625   1414.24744     653.2767     417.9625
   1414.23218     651.2428     415.8708   1414.23218     651.2428     415.8708
   1414.21692     647.7111     414.1963   1414.21692     647.7111     414.1963
   1414.20166     644.9433     413.2663   1414.20166     644.9433     413.2663
   1414.18640     642.7219     411.1446   1414.18640     642.7219     411.1446
   1414.17114     638.8553     410.1447   1414.17114     638.8553     410.1447
   1414.15588     636.5330     407.7172   1414.15588     636.5330     407.7172
   1414.14062     634.0236     406.4894   1414.14062     634.0236     406.4894
   1414.12537     631.9579     404.6002   1414.12537     631.9579     404.6002
   1414.11011     628.3478     403.4522   1414.11011     628.3478     403.4522
   1414.09485     626.1006     402.5690   1414.09485     626.1006     402.5690
   1414.07959     622.1064     400.0365   1414.07959     622.1064     400.0365
   1414.06433     619.2926     398.2836   1414.06433     619.2926     398.2836
   1414.04907     617.7151     396.8997   1414.04907     617.7151     396.8997
   1414.03381     615.1025     394.4310   1414.03381     615.1025     394.4310
   1414.01855     612.2311     393.5806   1414.01855     612.2311     393.5806
   1414.00330     636.5130     400.3820   1414.00330     636.5130     400.3820
   1413.98804     606.7430     390.6920   1413.98804     606.7430     390.6920
   1413.97278     603.3804     388.3451   1413.97278     603.3804     388.3451
   1413.95752     599.1902     386.7492   1413.95752     599.1902     386.7492
   1413.94226     596.8658     384.7625   1413.94226     596.8658     384.7625
   1413.92700     593.6445     383.4082   1413.92700     593.6445     383.4082
   1413.91174     590.8400     381.4820   1413.91174     590.8400     381.4820
   1413.89648     587.2468     379.5801   1413.89648     587.2468     379.5801
   1413.88123     584.8181     377.4715   1413.88123     584.8181     377.4715
   1413.86597     581.8960     376.5137   1413.86597     581.8960     376.5137
   1413.85071     578.5282     374.8567   1413.85071     578.5282     374.8567
   1413.83545     575.5466     372.9767   1413.83545     575.5466     372.9767
   1413.82019     572.2882     371.7479   1413.82019     572.2882     371.7479
   1413.80493     568.7225     369.8489   1413.80493     568.7225     369.8489
   1413.78967     566.3130     368.0824   1413.78967     566.3130     368.0824
   1413.77441     562.5114     366.7200   1413.77441     562.5114     366.7200
   1413.75916     560.5659     364.1046   1413.75916     560.5659     364.1046
   1413.74390     557.3530     362.6121   1413.74390     557.3530     362.6121
   1413.72864     554.3675     360.8375   1413.72864     554.3675     360.8375
   1413.71338     550.3102     358.9346   1413.71338     550.3102     358.9346
   1413.69812     548.0421     357.3132   1413.69812     548.0421     357.3132
   1413.68286     545.3406     356.1623   1413.68286     545.3406     356.1623
   1413.66760     541.6442     354.4726   1413.66760     541.6442     354.4726
   1413.65234     539.4684     352.6752   1413.65234     539.4684     352.6752
   1413.63708     535.4521     351.0136   1413.63708     535.4521     351.0136
   1413.62183     533.3798     348.8825   1413.62183     533.3798     348.8825
   1413.60657     529.1949     347.7445   1413.60657     529.1949     347.7445
   1413.59131     527.3887     345.8677   1413.59131     527.3887     345.8677
   1413.57605     522.7472     344.0894   1413.57605     522.7472     344.0894
   1413.56079     520.8482     342.0606   1413.56079     520.8482     342.0606
   1413.54553     518.1136     341.1877   1413.54553     518.1136     341.1877
   1413.53027     514.8303     339.7748   1413.53027     514.8303     339.7748
   1413.51501     510.9295     337.8871   1413.51501     510.9295     337.8871
   1413.49976     508.9610     335.9047   1413.49976     508.9610     335.9047
   1413.48450     505.4879     334.1497   1413.48450     505.4879     334.1497
   1413.46924     502.6253     331.9157   1413.46924     502.6253     331.9157
   1413.45398     499.3555     331.1068   1413.45398     499.3555     331.1068
   1413.43872     496.9896     329.7148   1413.43872     496.9896     329.7148
   1413.42346     493.6957     327.5524   1413.42346     493.6957     327.5524
   1413.40820     491.4036     326.7891   1413.40820     491.4036     326.7891
   1413.39294     488.5392     324.7162   1413.39294     488.5392     324.7162
   1413.37769     485.7867     322.6969   1413.37769     485.7867     322.6969
   1413.36243     482.6694     321.4939   1413.36243     482.6694     321.4939
   1413.34717     479.6609     320.1906   1413.34717     479.6609     320.1906
   1413.33191     477.0741     318.5705   1413.33191     477.0741     318.5705
   1413.31665     474.2226     316.9897   1413.31665     474.2226     316.9897
   1413.30139     471.5114     315.4472   1413.30139     471.5114     315.4472
   1413.28613     468.9125     313.6401   1413.28613     468.9125     313.6401
   1413.27087     465.9266     312.3387   1413.27087     465.9266     312.3387
   1413.25562     462.9843     311.0038   1413.25562     462.9843     311.0038
   1413.24036     460.6489     309.8538   1413.24036     460.6489     309.8538
   1413.22510     457.6047     307.7041   1413.22510     457.6047     307.7041
   1413.20984     455.6959     306.3159   1413.20984     455.6959     306.3159
   1413.19458     452.5859     305.3331   1413.19458     452.5859     305.3331
   1413.17932     450.7710     304.1975   1413.17932     450.7710     304.1975
   1413.16406     447.2141     302.6549   1413.16406     447.2141     302.6549
   1413.14880     445.0421     301.1268   1413.14880     445.0421     301.1268
   1413.13354     442.4301     300.4386   1413.13354     442.4301     300.4386
   1413.11829     440.1183     298.2168   1413.11829     440.1183     298.2168
   1413.10303     437.9626     297.5361   1413.10303     437.9626     297.5361
   1413.08777     435.3901     295.8661   1413.08777     435.3901     295.8661
   1413.07251     433.4125     294.7729   1413.07251     433.4125     294.7729
   1413.05725     430.2331     293.4442   1413.05725     430.2331     293.4442
   1413.04199     428.4426     292.8115   1413.04199     428.4426     292.8115
   1413.02673     426.1368     291.5403   1413.02673     426.1368     291.5403
   1413.01147     423.2607     290.5866   1413.01147     423.2607     290.5866
   1412.99622     421.6165     289.4077   1412.99622     421.6165     289.4077
   1412.98096     419.3252     288.0350   1412.98096     419.3252     288.0350
   1412.96570     417.8333     287.1039   1412.96570     417.8333     287.1039
   1412.95044     415.2213     286.1452   1412.95044     415.2213     286.1452
   1412.93518     413.4745     284.8979   1412.93518     413.4745     284.8979
   1412.91992     411.4333     284.3411   1412.91992     411.4333     284.3411
   1412.90466     409.8889     283.1211   1412.90466     409.8889     283.1211
   1412.88940     408.1206     282.1550   1412.88940     408.1206     282.1550
   1412.87415     405.9595     280.8139   1412.87415     405.9595     280.8139
   1412.85889     404.0050     280.2017   1412.85889     404.0050     280.2017
   1412.84363     402.3193     279.3878   1412.84363     402.3193     279.3878
   1412.82837     400.2570     278.9786   1412.82837     400.2570     278.9786
   1412.81311     399.3864     277.8412   1412.81311     399.3864     277.8412
   1412.79785     396.9105     277.2821   1412.79785     396.9105     277.2821
   1412.78259     395.0311     276.7903   1412.78259     395.0311     276.7903
   1412.76733     394.3057     275.9239   1412.76733     394.3057     275.9239
   1412.75208     392.4889     274.6021   1412.75208     392.4889     274.6021
   1412.73682     391.3381     275.0738   1412.73682     391.3381     275.0738
   1412.72156     390.2632     273.3255   1412.72156     390.2632     273.3255
   1412.70630     388.3405     273.5481   1412.70630     388.3405     273.5481
   1412.69104     387.3710     272.6319   1412.69104     387.3710     272.6319
   1412.67578     386.0031     272.3407   1412.67578     386.0031     272.3407
   1412.66052     384.3612     271.7647   1412.66052     384.3612     271.7647
   1412.64526     384.0166     271.3729   1412.64526     384.0166     271.3729
   1412.63000     382.8281     270.9840   1412.63000     382.8281     270.9840
   1412.61475     381.9518     270.7801   1412.61475     381.9518     270.7801
   1412.59949     380.8686     270.4156   1412.59949     380.8686     270.4156
   1412.58423     380.3647     270.0313   1412.58423     380.3647     270.0313
   1412.56897     379.1064     269.8544   1412.56897     379.1064     269.8544
   1412.55371     378.0186     270.0377   1412.55371     378.0186     270.0377
   1412.53845     377.7154     269.2739   1412.53845     377.7154     269.2739
   1412.52319     376.9114     269.1419   1412.52319     376.9114     269.1419
   1412.50793     375.7659     269.2946   1412.50793     375.7659     269.2946
   1412.49268     375.6053     269.3053   1412.49268     375.6053     269.3053
   1412.47742     375.4944     269.2634   1412.47742     375.4944     269.2634
   1412.46216     374.9497     269.8288   1412.46216     374.9497     269.8288
   1412.44690     373.9282     268.7265   1412.44690     373.9282     268.7265
   1412.43164     373.6031     269.3544   1412.43164     373.6031     269.3544
   1412.41638     372.8818     269.1381   1412.41638     372.8818     269.1381
   1412.40112     373.1427     269.6478   1412.40112     373.1427     269.6478
   1412.38586     373.5630     270.5363   1412.38586     373.5630     270.5363
   1412.37061     372.7982     270.4235   1412.37061     372.7982     270.4235
   1412.35535     372.9703     270.2460   1412.35535     372.9703     270.2460
   1412.34009     372.3049     270.8146   1412.34009     372.3049     270.8146
   1412.32483     372.8922     271.0996   1412.32483     372.8922     271.0996
   1412.30957     372.8940     271.6501   1412.30957     372.8940     271.6501
   1412.29431     373.0192     272.1873   1412.29431     373.0192     272.1873
   1412.27905     373.4954     272.9492   1412.27905     373.4954     272.9492
   1412.26379     374.7806     273.0659   1412.26379     374.7806     273.0659
   1412.24854     373.9918     273.8466   1412.24854     373.9918     273.8466
   1412.23328     374.3730     274.4915   1412.23328     374.3730     274.4915
   1412.21802     375.2668     275.2193   1412.21802     375.2668     275.2193
   1412.20276     375.4990     275.5661   1412.20276     375.4990     275.5661