#     FILENAME=!Skynet_57528_lach-hhg-119_20398_20943.cyb.fits
#     BASENAME=Skynet_57528_lach-hhg-119_20398_20943
#     SRC_NAME=lach-hhg-119
#     OBSERVER=hhgmadison16_9500
#     DATE_OBS=2016-05-20T16:35:41.430
#        OBSID=20398
#      SCANNUM=20943
#          MJD=57528.6925
#          UTC=59830
#     SCANTYPE=track
#     DATAMODE=HIRES
#     TUNEFREQ=1420.0000
# Actual_FREQ1=1420.0000
# Actual_FREQ2=1420.0000
#    LO1Tuning=6870.000
#     RFFILTER=1355_1435
#        OBSBW=-15.6250
#        NCHAN=1024 
#        FOCUS=37.0709
#           RA=00:17:10.97
#          DEC=62:36:36.32
#      RA(hrs)=0.286400
#     DEC(deg)=62.610100
#    AZIM(deg)=326.681
#    ELEV(deg)=54.348
#     IFattens=10.00, 9.00
#      WARNING=None
#    TCAL_XL1=7.9635
#    TCAL_YR1=9.1340
#    TCAL_XL2=7.9635
#    TCAL_YR2=9.1340
#     TRX_XL1=11.7060
#     TRX_YR1=11.7060
#     TRX_XL2=11.7060
#     TRX_YR2=11.7060
#        TAVE=1.0000
#Freq1(MHz)          XL1          YR1  Freq2(MHz)          XL2          YR2 

   1427.81250     374.3496     277.5985   1427.81250     374.3496     277.5985
   1427.79724     375.6589     277.7711   1427.79724     375.6589     277.7711
   1427.78198     376.1333     278.7444   1427.78198     376.1333     278.7444
   1427.76672     376.8851     279.7035   1427.76672     376.8851     279.7035
   1427.75146     377.9850     280.6463   1427.75146     377.9850     280.6463
   1427.73621     378.1326     281.0284   1427.73621     378.1326     281.0284
   1427.72095     380.1778     281.7286   1427.72095     380.1778     281.7286
   1427.70569     380.4968     283.4394   1427.70569     380.4968     283.4394
   1427.69043     382.0587     284.5568   1427.69043     382.0587     284.5568
   1427.67517     382.9994     285.1718   1427.67517     382.9994     285.1718
   1427.65991     384.3453     286.7444   1427.65991     384.3453     286.7444
   1427.64465     385.2930     287.3006   1427.64465     385.2930     287.3006
   1427.62939     386.6545     288.8205   1427.62939     386.6545     288.8205
   1427.61414     387.3131     290.0095   1427.61414     387.3131     290.0095
   1427.59888     389.1828     291.0004   1427.59888     389.1828     291.0004
   1427.58362     390.3759     292.3031   1427.58362     390.3759     292.3031
   1427.56836     391.7413     293.9313   1427.56836     391.7413     293.9313
   1427.55310     393.7563     295.0353   1427.55310     393.7563     295.0353
   1427.53784     394.7092     296.2114   1427.53784     394.7092     296.2114
   1427.52258     396.6326     298.0528   1427.52258     396.6326     298.0528
   1427.50732     398.5133     299.2396   1427.50732     398.5133     299.2396
   1427.49207     400.5187     300.8162   1427.49207     400.5187     300.8162
   1427.47681     401.7939     302.3727   1427.47681     401.7939     302.3727
   1427.46155     404.3293     304.3511   1427.46155     404.3293     304.3511
   1427.44629     405.6497     305.9181   1427.44629     405.6497     305.9181
   1427.43103     407.6624     307.2492   1427.43103     407.6624     307.2492
   1427.41577     409.8030     308.7153   1427.41577     409.8030     308.7153
   1427.40051     411.3057     310.1106   1427.40051     411.3057     310.1106
   1427.38525     413.2090     312.4123   1427.38525     413.2090     312.4123
   1427.37000     415.9896     313.9727   1427.37000     415.9896     313.9727
   1427.35474     417.9266     315.9282   1427.35474     417.9266     315.9282
   1427.33948     419.1328     318.0843   1427.33948     419.1328     318.0843
   1427.32422     422.2270     319.4975   1427.32422     422.2270     319.4975
   1427.30896     424.2381     321.4030   1427.30896     424.2381     321.4030
   1427.29370     425.9682     323.7285   1427.29370     425.9682     323.7285
   1427.27844     429.0169     325.2102   1427.27844     429.0169     325.2102
   1427.26318     431.6295     327.3654   1427.26318     431.6295     327.3654
   1427.24792     433.9496     329.3660   1427.24792     433.9496     329.3660
   1427.23267     436.0814     331.7445   1427.23267     436.0814     331.7445
   1427.21741     438.6458     332.9433   1427.21741     438.6458     332.9433
   1427.20215     441.4435     335.4043   1427.20215     441.4435     335.4043
   1427.18689     443.3569     337.4892   1427.18689     443.3569     337.4892
   1427.17163     446.7210     340.0831   1427.17163     446.7210     340.0831
   1427.15637     448.5290     341.9696   1427.15637     448.5290     341.9696
   1427.14111     451.3597     344.3747   1427.14111     451.3597     344.3747
   1427.12585     453.3203     347.1534   1427.12585     453.3203     347.1534
   1427.11060     457.1531     349.0003   1427.11060     457.1531     349.0003
   1427.09534     459.3541     350.7334   1427.09534     459.3541     350.7334
   1427.08008     461.9042     353.3629   1427.08008     461.9042     353.3629
   1427.06482     464.1675     356.3671   1427.06482     464.1675     356.3671
   1427.04956     467.2695     358.0758   1427.04956     467.2695     358.0758
   1427.03430     471.3124     360.0672   1427.03430     471.3124     360.0672
   1427.01904     472.4845     362.8358   1427.01904     472.4845     362.8358
   1427.00378     476.3535     364.8654   1427.00378     476.3535     364.8654
   1426.98853     478.5845     367.3692   1426.98853     478.5845     367.3692
   1426.97327     482.7330     370.3956   1426.97327     482.7330     370.3956
   1426.95801     484.3688     372.3535   1426.95801     484.3688     372.3535
   1426.94275     487.9171     374.8062   1426.94275     487.9171     374.8062
   1426.92749     491.1044     376.8747   1426.92749     491.1044     376.8747
   1426.91223     493.7628     379.6057   1426.91223     493.7628     379.6057
   1426.89697     496.5650     382.0341   1426.89697     496.5650     382.0341
   1426.88171     499.4646     384.4142   1426.88171     499.4646     384.4142
   1426.86646     502.6151     387.4075   1426.86646     502.6151     387.4075
   1426.85120     505.5067     388.8800   1426.85120     505.5067     388.8800
   1426.83594     508.4643     392.0963   1426.83594     508.4643     392.0963
   1426.82068     512.6348     394.7648   1426.82068     512.6348     394.7648
   1426.80542     514.8990     396.5850   1426.80542     514.8990     396.5850
   1426.79016     517.6959     399.9195   1426.79016     517.6959     399.9195
   1426.77490     520.6234     402.5004   1426.77490     520.6234     402.5004
   1426.75964     523.6527     404.6128   1426.75964     523.6527     404.6128
   1426.74438     526.7690     406.3091   1426.74438     526.7690     406.3091
   1426.72913     530.2623     409.5396   1426.72913     530.2623     409.5396
   1426.71387     532.9592     412.5586   1426.71387     532.9592     412.5586
   1426.69861     535.6538     415.3382   1426.69861     535.6538     415.3382
   1426.68335     538.8838     418.0340   1426.68335     538.8838     418.0340
   1426.66809     542.7142     420.1468   1426.66809     542.7142     420.1468
   1426.65283     545.6637     422.9215   1426.65283     545.6637     422.9215
   1426.63757     549.1892     424.9716   1426.63757     549.1892     424.9716
   1426.62231     553.8641     433.0502   1426.62231     553.8641     433.0502
   1426.60706     556.1619     432.2260   1426.60706     556.1619     432.2260
   1426.59180     559.6359     433.3746   1426.59180     559.6359     433.3746
   1426.57654     561.2612     435.2380   1426.57654     561.2612     435.2380
   1426.56128     564.8216     438.3031   1426.56128     564.8216     438.3031
   1426.54602     567.1683     440.8912   1426.54602     567.1683     440.8912
   1426.53076     570.0295     442.7408   1426.53076     570.0295     442.7408
   1426.51550     573.3878     445.7114   1426.51550     573.3878     445.7114
   1426.50024     576.6921     448.3511   1426.50024     576.6921     448.3511
   1426.48499     579.8083     450.9375   1426.48499     579.8083     450.9375
   1426.46973     581.3635     453.4603   1426.46973     581.3635     453.4603
   1426.45447     585.3029     455.3219   1426.45447     585.3029     455.3219
   1426.43921     587.7293     457.9838   1426.43921     587.7293     457.9838
   1426.42395     591.3973     460.4794   1426.42395     591.3973     460.4794
   1426.40869     593.9600     463.0121   1426.40869     593.9600     463.0121
   1426.39343     598.2813     466.0237   1426.39343     598.2813     466.0237
   1426.37817     599.6620     467.4676   1426.37817     599.6620     467.4676
   1426.36292     602.4355     471.2032   1426.36292     602.4355     471.2032
   1426.34766     606.4908     473.4976   1426.34766     606.4908     473.4976
   1426.33240     609.2308     475.6317   1426.33240     609.2308     475.6317
   1426.31714     611.8876     478.0867   1426.31714     611.8876     478.0867
   1426.30188     614.3447     480.0740   1426.30188     614.3447     480.0740
   1426.28662     616.5599     482.7173   1426.28662     616.5599     482.7173
   1426.27136     620.9933     484.4376   1426.27136     620.9933     484.4376
   1426.25610     622.8483     487.0334   1426.25610     622.8483     487.0334
   1426.24084     626.3403     489.4567   1426.24084     626.3403     489.4567
   1426.22559     629.2320     492.3882   1426.22559     629.2320     492.3882
   1426.21033     631.3962     494.1764   1426.21033     631.3962     494.1764
   1426.19507     634.1643     497.1610   1426.19507     634.1643     497.1610
   1426.17981     638.1195     499.1408   1426.17981     638.1195     499.1408
   1426.16455     640.2821     501.4719   1426.16455     640.2821     501.4719
   1426.14929     642.3099     504.2050   1426.14929     642.3099     504.2050
   1426.13403     644.8125     506.2593   1426.13403     644.8125     506.2593
   1426.11877     647.8818     507.9079   1426.11877     647.8818     507.9079
   1426.10352     650.0076     510.2742   1426.10352     650.0076     510.2742
   1426.08826     652.5887     513.4499   1426.08826     652.5887     513.4499
   1426.07300     655.6904     515.2765   1426.07300     655.6904     515.2765
   1426.05774     657.1337     516.5798   1426.05774     657.1337     516.5798
   1426.04248     659.8038     519.2132   1426.04248     659.8038     519.2132
   1426.02722     662.7550     521.3636   1426.02722     662.7550     521.3636
   1426.01196     664.7269     523.7348   1426.01196     664.7269     523.7348
   1425.99670     667.2685     526.1624   1425.99670     667.2685     526.1624
   1425.98145     668.7725     527.9682   1425.98145     668.7725     527.9682
   1425.96619     670.8660     530.0089   1425.96619     670.8660     530.0089
   1425.95093     673.9885     532.4564   1425.95093     673.9885     532.4564
   1425.93567     676.8389     534.4089   1425.93567     676.8389     534.4089
   1425.92041     678.0909     536.6200   1425.92041     678.0909     536.6200
   1425.90515     680.4340     539.0251   1425.90515     680.4340     539.0251
   1425.88989     683.1479     541.2454   1425.88989     683.1479     541.2454
   1425.87463     685.4761     542.4225   1425.87463     685.4761     542.4225
   1425.85938     687.8278     544.3417   1425.85938     687.8278     544.3417
   1425.84412     689.1826     546.3050   1425.84412     689.1826     546.3050
   1425.82886     691.5053     549.0501   1425.82886     691.5053     549.0501
   1425.81360     693.9639     549.9873   1425.81360     693.9639     549.9873
   1425.79834     695.7672     552.1917   1425.79834     695.7672     552.1917
   1425.78308     696.9857     554.1624   1425.78308     696.9857     554.1624
   1425.76782     698.7137     556.3029   1425.76782     698.7137     556.3029
   1425.75256     700.3649     556.3904   1425.75256     700.3649     556.3904
   1425.73730     703.8223     560.2460   1425.73730     703.8223     560.2460
   1425.72205     704.6856     561.2291   1425.72205     704.6856     561.2291
   1425.70679     706.4293     563.3739   1425.70679     706.4293     563.3739
   1425.69153     708.7693     563.9646   1425.69153     708.7693     563.9646
   1425.67627     711.0662     566.5580   1425.67627     711.0662     566.5580
   1425.66101     712.6989     567.9989   1425.66101     712.6989     567.9989
   1425.64575     714.1594     569.5804   1425.64575     714.1594     569.5804
   1425.63049     714.0853     572.1369   1425.63049     714.0853     572.1369
   1425.61523     716.3989     573.9325   1425.61523     716.3989     573.9325
   1425.59998     719.1898     575.0104   1425.59998     719.1898     575.0104
   1425.58472     720.6272     576.5867   1425.58472     720.6272     576.5867
   1425.56946     721.5608     577.6401   1425.56946     721.5608     577.6401
   1425.55420     723.0268     580.4014   1425.55420     723.0268     580.4014
   1425.53894     723.6628     581.5477   1425.53894     723.6628     581.5477
   1425.52368     726.7825     583.1680   1425.52368     726.7825     583.1680
   1425.50842     727.2335     584.4553   1425.50842     727.2335     584.4553
   1425.49316     727.1587     586.2585   1425.49316     727.1587     586.2585
   1425.47791     729.4506     588.3954   1425.47791     729.4506     588.3954
   1425.46265     730.5752     589.5908   1425.46265     730.5752     589.5908
   1425.44739     731.6844     589.7424   1425.44739     731.6844     589.7424
   1425.43213     734.2578     591.0911   1425.43213     734.2578     591.0911
   1425.41687     736.4169     593.4460   1425.41687     736.4169     593.4460
   1425.40161     736.7014     595.4610   1425.40161     736.7014     595.4610
   1425.38635     736.8632     596.6452   1425.38635     736.8632     596.6452
   1425.37109     738.5866     597.4088   1425.37109     738.5866     597.4088
   1425.35583     740.6478     598.6704   1425.35583     740.6478     598.6704
   1425.34058     740.9731     599.9872   1425.34058     740.9731     599.9872
   1425.32532     740.7600     600.8936   1425.32532     740.7600     600.8936
   1425.31006     741.9837     602.6093   1425.31006     741.9837     602.6093
   1425.29480     744.7596     603.8998   1425.29480     744.7596     603.8998
   1425.27954     744.2292     605.3516   1425.27954     744.2292     605.3516
   1425.26428     746.3853     606.8349   1425.26428     746.3853     606.8349
   1425.24902     745.2991     607.9538   1425.24902     745.2991     607.9538
   1425.23376     747.3229     609.2457   1425.23376     747.3229     609.2457
   1425.21851     748.7089     609.3482   1425.21851     748.7089     609.3482
   1425.20325     749.5310     610.5895   1425.20325     749.5310     610.5895
   1425.18799     750.5762     612.5098   1425.18799     750.5762     612.5098
   1425.17273     750.2841     613.3168   1425.17273     750.2841     613.3168
   1425.15747     751.4788     615.0369   1425.15747     751.4788     615.0369
   1425.14221     753.1849     614.9971   1425.14221     753.1849     614.9971
   1425.12695     752.4151     616.2478   1425.12695     752.4151     616.2478
   1425.11169     752.8536     618.7668   1425.11169     752.8536     618.7668
   1425.09644     754.1786     618.6777   1425.09644     754.1786     618.6777
   1425.08118     754.6020     619.2400   1425.08118     754.6020     619.2400
   1425.06592     754.6425     620.2100   1425.06592     754.6425     620.2100
   1425.05066     756.3499     622.3136   1425.05066     756.3499     622.3136
   1425.03540     756.1323     623.7890   1425.03540     756.1323     623.7890
   1425.02014     756.3557     623.4325   1425.02014     756.3557     623.4325
   1425.00488     758.2000     624.2286   1425.00488     758.2000     624.2286
   1424.98962     758.2457     625.2090   1424.98962     758.2457     625.2090
   1424.97437     758.0518     626.1839   1424.97437     758.0518     626.1839
   1424.95911     757.1021     627.7655   1424.95911     757.1021     627.7655
   1424.94385     757.7528     628.1862   1424.94385     757.7528     628.1862
   1424.92859     759.2905     629.5168   1424.92859     759.2905     629.5168
   1424.91333     760.4424     629.9102   1424.91333     760.4424     629.9102
   1424.89807     759.3947     630.5408   1424.89807     759.3947     630.5408
   1424.88281     760.4073     633.1354   1424.88281     760.4073     633.1354
   1424.86755     761.4916     632.9919   1424.86755     761.4916     632.9919
   1424.85229     761.2958     632.4023   1424.85229     761.2958     632.4023
   1424.83704     759.5892     634.1022   1424.83704     759.5892     634.1022
   1424.82178     761.2432     634.6420   1424.82178     761.2432     634.6420
   1424.80652     760.5737     635.9802   1424.80652     760.5737     635.9802
   1424.79126     761.0792     635.6104   1424.79126     761.0792     635.6104
   1424.77600     760.7624     637.6565   1424.77600     760.7624     637.6565
   1424.76074     762.7679     637.5885   1424.76074     762.7679     637.5885
   1424.74548     761.2877     638.3599   1424.74548     761.2877     638.3599
   1424.73022     761.0658     637.7801   1424.73022     761.0658     637.7801
   1424.71497     762.9189     639.1615   1424.71497     762.9189     639.1615
   1424.69971     761.7327     640.4844   1424.69971     761.7327     640.4844
   1424.68445     761.9327     641.2321   1424.68445     761.9327     641.2321
   1424.66919     760.9966     640.2502   1424.66919     760.9966     640.2502
   1424.65393     763.0109     640.5710   1424.65393     763.0109     640.5710
   1424.63867     763.4492     642.2747   1424.63867     763.4492     642.2747
   1424.62341     762.1770     642.4254   1424.62341     762.1770     642.4254
   1424.60815     762.8531     643.6664   1424.60815     762.8531     643.6664
   1424.59290     763.4146     644.4949   1424.59290     763.4146     644.4949
   1424.57764     762.3839     645.1264   1424.57764     762.3839     645.1264
   1424.56238     761.7389     645.2386   1424.56238     761.7389     645.2386
   1424.54712     761.4247     645.6557   1424.54712     761.4247     645.6557
   1424.53186     762.4557     645.2736   1424.53186     762.4557     645.2736
   1424.51660     761.1077     644.7182   1424.51660     761.1077     644.7182
   1424.50134     761.5531     646.9187   1424.50134     761.5531     646.9187
   1424.48608     761.9237     648.1733   1424.48608     761.9237     648.1733
   1424.47083     762.0403     647.9886   1424.47083     762.0403     647.9886
   1424.45557     762.0048     648.6133   1424.45557     762.0048     648.6133
   1424.44031     761.7432     648.8979   1424.44031     761.7432     648.8979
   1424.42505     760.9391     649.5875   1424.42505     760.9391     649.5875
   1424.40979     759.7241     649.6469   1424.40979     759.7241     649.6469
   1424.39453     760.8091     650.1488   1424.39453     760.8091     650.1488
   1424.37927     761.2330     650.0928   1424.37927     761.2330     650.0928
   1424.36401     760.9293     651.4303   1424.36401     760.9293     651.4303
   1424.34875     760.9149     651.8997   1424.34875     760.9149     651.8997
   1424.33350     759.7888     650.7334   1424.33350     759.7888     650.7334
   1424.31824     759.7983     651.8914   1424.31824     759.7983     651.8914
   1424.30298     758.8322     652.2357   1424.30298     758.8322     652.2357
   1424.28772     759.4704     650.9343   1424.28772     759.4704     650.9343
   1424.27246     759.0215     651.6223   1424.27246     759.0215     651.6223
   1424.25720     758.8713     652.2089   1424.25720     758.8713     652.2089
   1424.24194     758.5970     653.2086   1424.24194     758.5970     653.2086
   1424.22668     758.3004     652.2761   1424.22668     758.3004     652.2761
   1424.21143     758.8193     653.5561   1424.21143     758.8193     653.5561
   1424.19617     758.4866     653.1505   1424.19617     758.4866     653.1505
   1424.18091     757.3913     652.7263   1424.18091     757.3913     652.7263
   1424.16565     757.5699     653.8412   1424.16565     757.5699     653.8412
   1424.15039     756.3341     653.5432   1424.15039     756.3341     653.5432
   1424.13513     756.8989     653.2810   1424.13513     756.8989     653.2810
   1424.11987     756.3820     653.8848   1424.11987     756.3820     653.8848
   1424.10461     756.5565     654.1922   1424.10461     756.5565     654.1922
   1424.08936     755.0375     653.8384   1424.08936     755.0375     653.8384
   1424.07410     755.2310     654.1541   1424.07410     755.2310     654.1541
   1424.05884     754.9091     653.3518   1424.05884     754.9091     653.3518
   1424.04358     754.4525     654.8434   1424.04358     754.4525     654.8434
   1424.02832     754.3135     654.3900   1424.02832     754.3135     654.3900
   1424.01306     753.2249     654.8381   1424.01306     753.2249     654.8381
   1423.99780     753.5062     654.0092   1423.99780     753.5062     654.0092
   1423.98254     754.7406     654.1407   1423.98254     754.7406     654.1407
   1423.96729     753.2244     653.9275   1423.96729     753.2244     653.9275
   1423.95203     752.4911     654.4616   1423.95203     752.4911     654.4616
   1423.93677     751.8167     654.4176   1423.93677     751.8167     654.4176
   1423.92151     751.0118     654.7630   1423.92151     751.0118     654.7630
   1423.90625     752.8596     654.9742   1423.90625     752.8596     654.9742
   1423.89099     752.5602     653.5602   1423.89099     752.5602     653.5602
   1423.87573     750.9661     653.6477   1423.87573     750.9661     653.6477
   1423.86047     751.3619     653.5978   1423.86047     751.3619     653.5978
   1423.84521     750.4749     654.3507   1423.84521     750.4749     654.3507
   1423.82996     749.2472     653.5732   1423.82996     749.2472     653.5732
   1423.81470     748.7232     654.6608   1423.81470     748.7232     654.6608
   1423.79944     748.8683     654.7975   1423.79944     748.8683     654.7975
   1423.78418     748.8585     654.3436   1423.78418     748.8585     654.3436
   1423.76892     748.8201     653.8967   1423.76892     748.8201     653.8967
   1423.75366     747.4104     653.3845   1423.75366     747.4104     653.3845
   1423.73840     747.7667     652.6197   1423.73840     747.7667     652.6197
   1423.72314     747.8340     653.3611   1423.72314     747.8340     653.3611
   1423.70789     746.7914     652.8438   1423.70789     746.7914     652.8438
   1423.69263     747.1684     652.3892   1423.69263     747.1684     652.3892
   1423.67737     746.7895     652.2262   1423.67737     746.7895     652.2262
   1423.66211     746.9056     652.2510   1423.66211     746.9056     652.2510
   1423.64685     745.6778     652.0643   1423.64685     745.6778     652.0643
   1423.63159     744.9989     651.5891   1423.63159     744.9989     651.5891
   1423.61633     744.3058     652.0131   1423.61633     744.3058     652.0131
   1423.60107     744.8949     650.4834   1423.60107     744.8949     650.4834
   1423.58582     743.4954     650.1118   1423.58582     743.4954     650.1118
   1423.57056     743.8270     649.6896   1423.57056     743.8270     649.6896
   1423.55530     743.0121     650.0828   1423.55530     743.0121     650.0828
   1423.54004     743.7525     650.0244   1423.54004     743.7525     650.0244
   1423.52478     741.6458     649.1094   1423.52478     741.6458     649.1094
   1423.50952     741.7374     649.0381   1423.50952     741.7374     649.0381
   1423.49426     741.8966     648.9827   1423.49426     741.8966     648.9827
   1423.47900     742.9532     648.5182   1423.47900     742.9532     648.5182
   1423.46375     740.0935     647.9186   1423.46375     740.0935     647.9186
   1423.44849     739.7777     648.3991   1423.44849     739.7777     648.3991
   1423.43323     740.8375     646.0863   1423.43323     740.8375     646.0863
   1423.41797     740.0034     647.9191   1423.41797     740.0034     647.9191
   1423.40271     740.4297     646.3839   1423.40271     740.4297     646.3839
   1423.38745     741.0927     646.4573   1423.38745     741.0927     646.4573
   1423.37219     739.9507     644.4932   1423.37219     739.9507     644.4932
   1423.35693     738.9632     643.8512   1423.35693     738.9632     643.8512
   1423.34167     738.8174     643.7627   1423.34167     738.8174     643.7627
   1423.32642     738.0090     643.5455   1423.32642     738.0090     643.5455
   1423.31116     737.9081     643.6058   1423.31116     737.9081     643.6058
   1423.29590     737.8249     643.5241   1423.29590     737.8249     643.5241
   1423.28064     737.3285     640.6832   1423.28064     737.3285     640.6832
   1423.26538     736.4791     640.7173   1423.26538     736.4791     640.7173
   1423.25012     736.1404     641.2932   1423.25012     736.1404     641.2932
   1423.23486     736.3874     639.7492   1423.23486     736.3874     639.7492
   1423.21960     735.7927     640.3015   1423.21960     735.7927     640.3015
   1423.20435     735.6450     638.0367   1423.20435     735.6450     638.0367
   1423.18909     734.2118     638.9571   1423.18909     734.2118     638.9571
   1423.17383     734.5240     637.3036   1423.17383     734.5240     637.3036
   1423.15857     734.9033     637.5921   1423.15857     734.9033     637.5921
   1423.14331     734.0530     635.8083   1423.14331     734.0530     635.8083
   1423.12805     733.9963     635.3599   1423.12805     733.9963     635.3599
   1423.11279     733.8318     635.4149   1423.11279     733.8318     635.4149
   1423.09753     732.9656     634.0875   1423.09753     732.9656     634.0875
   1423.08228     731.7105     633.0790   1423.08228     731.7105     633.0790
   1423.06702     730.8016     632.3270   1423.06702     730.8016     632.3270
   1423.05176     733.0798     631.5775   1423.05176     733.0798     631.5775
   1423.03650     731.1625     631.4787   1423.03650     731.1625     631.4787
   1423.02124     731.7138     632.2574   1423.02124     731.7138     632.2574
   1423.00598     731.0881     629.4161   1423.00598     731.0881     629.4161
   1422.99072     730.7108     629.1119   1422.99072     730.7108     629.1119
   1422.97546     731.3978     627.9243   1422.97546     731.3978     627.9243
   1422.96021     731.1907     626.9504   1422.96021     731.1907     626.9504
   1422.94495     730.3351     626.6431   1422.94495     730.3351     626.6431
   1422.92969     729.4929     626.3106   1422.92969     729.4929     626.3106
   1422.91443     729.9769     625.6168   1422.91443     729.9769     625.6168
   1422.89917     729.9365     624.0851   1422.89917     729.9365     624.0851
   1422.88391     729.9664     624.9336   1422.88391     729.9664     624.9336
   1422.86865     729.4708     622.8864   1422.86865     729.4708     622.8864
   1422.85339     728.8326     622.0912   1422.85339     728.8326     622.0912
   1422.83813     729.2681     621.3466   1422.83813     729.2681     621.3466
   1422.82288     729.0244     619.9156   1422.82288     729.0244     619.9156
   1422.80762     727.9711     618.9280   1422.80762     727.9711     618.9280
   1422.79236     728.5452     618.9099   1422.79236     728.5452     618.9099
   1422.77710     727.0793     617.0870   1422.77710     727.0793     617.0870
   1422.76184     727.1730     617.0359   1422.76184     727.1730     617.0359
   1422.74658     726.8763     616.5209   1422.74658     726.8763     616.5209
   1422.73132     727.2958     614.7448   1422.73132     727.2958     614.7448
   1422.71606     727.0377     613.9456   1422.71606     727.0377     613.9456
   1422.70081     726.3391     612.3395   1422.70081     726.3391     612.3395
   1422.68555     727.4436     613.3492   1422.68555     727.4436     613.3492
   1422.67029     725.8039     611.0624   1422.67029     725.8039     611.0624
   1422.65503     726.7982     610.1856   1422.65503     726.7982     610.1856
   1422.63977     726.3203     610.1057   1422.63977     726.3203     610.1057
   1422.62451     724.8427     608.3104   1422.62451     724.8427     608.3104
   1422.60925     726.1486     607.4241   1422.60925     726.1486     607.4241
   1422.59399     724.7409     606.2738   1422.59399     724.7409     606.2738
   1422.57874     724.7045     605.7128   1422.57874     724.7045     605.7128
   1422.56348     723.9041     605.0352   1422.56348     723.9041     605.0352
   1422.54822     723.7562     602.6191   1422.54822     723.7562     602.6191
   1422.53296     722.3959     603.1330   1422.53296     722.3959     603.1330
   1422.51770     723.5381     601.7133   1422.51770     723.5381     601.7133
   1422.50244     723.3765     599.8120   1422.50244     723.3765     599.8120
   1422.48718     723.1848     599.9775   1422.48718     723.1848     599.9775
   1422.47192     723.2801     598.7408   1422.47192     723.2801     598.7408
   1422.45667     723.7257     597.5983   1422.45667     723.7257     597.5983
   1422.44141     723.7315     596.4916   1422.44141     723.7315     596.4916
   1422.42615     722.4193     596.3485   1422.42615     722.4193     596.3485
   1422.41089     721.2079     594.4147   1422.41089     721.2079     594.4147
   1422.39563     721.5508     593.3996   1422.39563     721.5508     593.3996
   1422.38037     722.5032     591.8090   1422.38037     722.5032     591.8090
   1422.36511     722.7741     591.7475   1422.36511     722.7741     591.7475
   1422.34985     721.5494     590.2126   1422.34985     721.5494     590.2126
   1422.33459     722.0314     589.4322   1422.33459     722.0314     589.4322
   1422.31934     719.7319     588.4576   1422.31934     719.7319     588.4576
   1422.30408     720.6547     586.6724   1422.30408     720.6547     586.6724
   1422.28882     720.6696     585.6434   1422.28882     720.6696     585.6434
   1422.27356     721.5831     585.3738   1422.27356     721.5831     585.3738
   1422.25830     720.1547     583.9717   1422.25830     720.1547     583.9717
   1422.24304     720.4463     582.7896   1422.24304     720.4463     582.7896
   1422.22778     720.4544     581.6571   1422.22778     720.4544     581.6571
   1422.21252     720.0241     580.0830   1422.21252     720.0241     580.0830
   1422.19727     719.2166     579.4633   1422.19727     719.2166     579.4633
   1422.18201     718.8422     578.0106   1422.18201     718.8422     578.0106
   1422.16675     718.2702     577.1817   1422.16675     718.2702     577.1817
   1422.15149     719.5494     575.6664   1422.15149     719.5494     575.6664
   1422.13623     718.7505     574.3483   1422.13623     718.7505     574.3483
   1422.12097     718.4162     573.0031   1422.12097     718.4162     573.0031
   1422.10571     717.8622     572.9272   1422.10571     717.8622     572.9272
   1422.09045     718.3122     571.5770   1422.09045     718.3122     571.5770
   1422.07520     717.2403     569.9320   1422.07520     717.2403     569.9320
   1422.05994     716.9901     569.4366   1422.05994     716.9901     569.4366
   1422.04468     718.0995     568.7748   1422.04468     718.0995     568.7748
   1422.02942     716.7811     566.6514   1422.02942     716.7811     566.6514
   1422.01416     717.0784     564.7302   1422.01416     717.0784     564.7302
   1421.99890     717.9279     564.7162   1421.99890     717.9279     564.7162
   1421.98364     716.1000     563.8409   1421.98364     716.1000     563.8409
   1421.96838     717.8638     562.3995   1421.96838     717.8638     562.3995
   1421.95312     717.2084     560.9536   1421.95312     717.2084     560.9536
   1421.93787     715.9573     560.1898   1421.93787     715.9573     560.1898
   1421.92261     717.0271     558.9102   1421.92261     717.0271     558.9102
   1421.90735     716.1282     556.7275   1421.90735     716.1282     556.7275
   1421.89209     716.0516     556.4822   1421.89209     716.0516     556.4822
   1421.87683     715.5185     554.3595   1421.87683     715.5185     554.3595
   1421.86157     715.9102     554.3039   1421.86157     715.9102     554.3039
   1421.84631     716.4561     553.5007   1421.84631     716.4561     553.5007
   1421.83105     715.4684     551.3513   1421.83105     715.4684     551.3513
   1421.81580     716.1913     550.8533   1421.81580     716.1913     550.8533
   1421.80054     714.8587     548.6715   1421.80054     714.8587     548.6715
   1421.78528     715.0916     548.3912   1421.78528     715.0916     548.3912
   1421.77002     715.6509     546.9153   1421.77002     715.6509     546.9153
   1421.75476     712.9580     545.8589   1421.75476     712.9580     545.8589
   1421.73950     713.5047     543.6022   1421.73950     713.5047     543.6022
   1421.72424     713.2835     543.1546   1421.72424     713.2835     543.1546
   1421.70898     712.8918     542.1058   1421.70898     712.8918     542.1058
   1421.69373     712.6573     541.4329   1421.69373     712.6573     541.4329
   1421.67847     713.3856     539.2203   1421.67847     713.3856     539.2203
   1421.66321     712.6843     538.4233   1421.66321     712.6843     538.4233
   1421.64795     712.7869     537.8477   1421.64795     712.7869     537.8477
   1421.63269     713.5675     536.0455   1421.63269     713.5675     536.0455
   1421.61743     712.5985     534.6044   1421.61743     712.5985     534.6044
   1421.60217     711.8377     533.6087   1421.60217     711.8377     533.6087
   1421.58691     712.4926     532.4702   1421.58691     712.4926     532.4702
   1421.57166     712.7700     531.5284   1421.57166     712.7700     531.5284
   1421.55640     711.3290     530.2737   1421.55640     711.3290     530.2737
   1421.54114     711.6257     528.8752   1421.54114     711.6257     528.8752
   1421.52588     711.7303     528.3674   1421.52588     711.7303     528.3674
   1421.51062     711.1488     526.2824   1421.51062     711.1488     526.2824
   1421.49536     711.2488     524.9485   1421.49536     711.2488     524.9485
   1421.48010     710.9030     524.3530   1421.48010     710.9030     524.3530
   1421.46484     711.9548     522.7312   1421.46484     711.9548     522.7312
   1421.44958     711.9003     522.8458   1421.44958     711.9003     522.8458
   1421.43433     711.4280     520.7872   1421.43433     711.4280     520.7872
   1421.41907     711.3159     521.0693   1421.41907     711.3159     521.0693
   1421.40381     712.0194     519.4736   1421.40381     712.0194     519.4736
   1421.38855     711.2308     518.4669   1421.38855     711.2308     518.4669
   1421.37329     712.9446     518.6925   1421.37329     712.9446     518.6925
   1421.35803     710.6523     516.7712   1421.35803     710.6523     516.7712
   1421.34277     711.0396     515.3232   1421.34277     711.0396     515.3232
   1421.32751     711.1248     514.7711   1421.32751     711.1248     514.7711
   1421.31226     711.6091     512.5932   1421.31226     711.6091     512.5932
   1421.29700     709.7637     511.8808   1421.29700     709.7637     511.8808
   1421.28174     709.8734     510.2093   1421.28174     709.8734     510.2093
   1421.26648     709.4131     509.1709   1421.26648     709.4131     509.1709
   1421.25122     708.6939     507.6228   1421.25122     708.6939     507.6228
   1421.23596     709.8733     506.2652   1421.23596     709.8733     506.2652
   1421.22070     710.4274     506.5589   1421.22070     710.4274     506.5589
   1421.20544     710.4131     505.3845   1421.20544     710.4131     505.3845
   1421.19019     710.3229     504.8448   1421.19019     710.3229     504.8448
   1421.17493     712.7773     504.9198   1421.17493     712.7773     504.9198
   1421.15967     714.6111     505.1884   1421.15967     714.6111     505.1884
   1421.14441     716.5629     506.4687   1421.14441     716.5629     506.4687
   1421.12915     723.1393     509.7817   1421.12915     723.1393     509.7817
   1421.11389     730.5438     513.2493   1421.11389     730.5438     513.2493
   1421.09863     743.6281     521.8105   1421.09863     743.6281     521.8105
   1421.08337     754.4140     527.7585   1421.08337     754.4140     527.7585
   1421.06812     763.9568     533.9155   1421.06812     763.9568     533.9155
   1421.05286     768.0148     535.2457   1421.05286     768.0148     535.2457
   1421.03760     762.4180     530.8980   1421.03760     762.4180     530.8980
   1421.02234     766.4256     532.8669   1421.02234     766.4256     532.8669
   1421.00708     783.5277     542.3410   1421.00708     783.5277     542.3410
   1420.99182     809.1315     559.2374   1420.99182     809.1315     559.2374
   1420.97656     863.9169     596.9286   1420.97656     863.9169     596.9286
   1420.96130     961.2720     661.8087   1420.96130     961.2720     661.8087
   1420.94604    1082.4443     738.6310   1420.94604    1082.4443     738.6310
   1420.93079    1150.5981     784.2994   1420.93079    1150.5981     784.2994
   1420.91553    1063.9529     724.4685   1420.91553    1063.9529     724.4685
   1420.90027     986.4697     672.5328   1420.90027     986.4697     672.5328
   1420.88501     922.9830     628.6578   1420.88501     922.9830     628.6578
   1420.86975     872.0776     593.9121   1420.86975     872.0776     593.9121
   1420.85449     842.0629     571.6135   1420.85449     842.0629     571.6135
   1420.83923     856.1511     579.8269   1420.83923     856.1511     579.8269
   1420.82397     912.9705     616.9389   1420.82397     912.9705     616.9389
   1420.80872    1028.6870     693.6306   1420.80872    1028.6870     693.6306
   1420.79346    1196.1661     803.4762   1420.79346    1196.1661     803.4762
   1420.77820    1408.0540     943.0563   1420.77820    1408.0540     943.0563
   1420.76294    1621.5745    1082.4318   1420.76294    1621.5745    1082.4318
   1420.74768    1800.7604    1192.7970   1420.74768    1800.7604    1192.7970
   1420.73242    1902.6089    1258.1202   1420.73242    1902.6089    1258.1202
   1420.71716    1939.1300    1281.9590   1420.71716    1939.1300    1281.9590
   1420.70190    1826.0022    1204.1272   1420.70190    1826.0022    1204.1272
   1420.68665    1671.8586    1102.5868   1420.68665    1671.8586    1102.5868
   1420.67139    1588.9889    1045.8566   1420.67139    1588.9889    1045.8566
   1420.65613    1593.9906    1048.9153   1420.65613    1593.9906    1048.9153
   1420.64087    1407.9801     926.0485   1420.64087    1407.9801     926.0485
   1420.62561    1255.6473     825.2009   1420.62561    1255.6473     825.2009
   1420.61035    1228.7538     809.3801   1420.61035    1228.7538     809.3801
   1420.59509    1170.9843     769.0564   1420.59509    1170.9843     769.0564
   1420.57983    1147.2811     751.8623   1420.57983    1147.2811     751.8623
   1420.56458    1145.0947     751.1049   1420.56458    1145.0947     751.1049
   1420.54932    1159.8967     756.5674   1420.54932    1159.8967     756.5674
   1420.53406    1204.2782     786.1122   1420.53406    1204.2782     786.1122
   1420.51880    1233.4636     802.2933   1420.51880    1233.4636     802.2933
   1420.50354    1249.2216     811.3985   1420.50354    1249.2216     811.3985
   1420.48828    1365.1077     885.1863   1420.48828    1365.1077     885.1863
   1420.47302    1595.4677    1029.1541   1420.47302    1595.4677    1029.1541
   1420.45776    1727.4923    1111.7593   1420.45776    1727.4923    1111.7593
   1420.44250    1128.6769     729.4457   1420.44250    1128.6769     729.4457
   1420.42725     852.3534     552.3287   1420.42725     852.3534     552.3287
   1420.41199     770.4147     499.0965   1420.41199     770.4147     499.0965
   1420.39673     739.0195     477.8503   1420.39673     739.0195     477.8503
   1420.38147     722.1102     467.9063   1420.38147     722.1102     467.9063
   1420.36621     713.9802     461.7916   1420.36621     713.9802     461.7916
   1420.35095     707.9603     458.7305   1420.35095     707.9603     458.7305
   1420.33569     708.2379     455.9828   1420.33569     708.2379     455.9828
   1420.32043     705.0509     454.8118   1420.32043     705.0509     454.8118
   1420.30518     704.3639     453.4023   1420.30518     704.3639     453.4023
   1420.28992     702.8495     452.5182   1420.28992     702.8495     452.5182
   1420.27466     703.1003     451.5655   1420.27466     703.1003     451.5655
   1420.25940     703.0842     450.5291   1420.25940     703.0842     450.5291
   1420.24414     701.1852     449.7572   1420.24414     701.1852     449.7572
   1420.22888     702.0992     448.3103   1420.22888     702.0992     448.3103
   1420.21362     702.4368     447.2785   1420.21362     702.4368     447.2785
   1420.19836     700.0142     446.1170   1420.19836     700.0142     446.1170
   1420.18311     699.5630     445.4908   1420.18311     699.5630     445.4908
   1420.16785     698.3942     444.3204   1420.16785     698.3942     444.3204
   1420.15259     699.0380     442.6585   1420.15259     699.0380     442.6585
   1420.13733     697.2676     442.7072   1420.13733     697.2676     442.7072
   1420.12207     697.3067     440.9892   1420.12207     697.3067     440.9892
   1420.10681     696.3545     440.3542   1420.10681     696.3545     440.3542
   1420.09155     696.0740     440.1079   1420.09155     696.0740     440.1079
   1420.07629     695.6585     439.5175   1420.07629     695.6585     439.5175
   1420.06104     695.2021     438.4639   1420.06104     695.2021     438.4639
   1420.04578     694.5937     437.2377   1420.04578     694.5937     437.2377
   1420.03052     696.1006     437.1646   1420.03052     696.1006     437.1646
   1420.01526     695.5457     437.2051   1420.01526     695.5457     437.2051
   1420.00000     696.4244     437.5731   1420.00000     696.4244     437.5731
   1419.98474     697.3036     437.9410   1419.98474     697.3036     437.9410
   1419.96948     697.6120     435.7994   1419.96948     697.6120     435.7994
   1419.95422     693.9882     434.9887   1419.95422     693.9882     434.9887
   1419.93896     694.1338     433.3281   1419.93896     694.1338     433.3281
   1419.92371     694.5082     434.1196   1419.92371     694.5082     434.1196
   1419.90845     694.6334     433.6407   1419.90845     694.6334     433.6407
   1419.89319     694.8563     432.8554   1419.89319     694.8563     432.8554
   1419.87793     694.2558     432.6959   1419.87793     694.2558     432.6959
   1419.86267     695.8476     431.5396   1419.86267     695.8476     431.5396
   1419.84741     695.5773     431.5802   1419.84741     695.5773     431.5802
   1419.83215     694.7882     431.0803   1419.83215     694.7882     431.0803
   1419.81689     694.3295     430.9757   1419.81689     694.3295     430.9757
   1419.80164     695.1337     430.0062   1419.80164     695.1337     430.0062
   1419.78638     694.6192     430.1095   1419.78638     694.6192     430.1095
   1419.77112     693.9523     429.7007   1419.77112     693.9523     429.7007
   1419.75586     695.6995     429.1800   1419.75586     695.6995     429.1800
   1419.74060     695.3920     429.1718   1419.74060     695.3920     429.1718
   1419.72534     695.7876     428.8488   1419.72534     695.7876     428.8488
   1419.71008     696.3542     429.1821   1419.71008     696.3542     429.1821
   1419.69482     695.7365     428.8730   1419.69482     695.7365     428.8730
   1419.67957     695.9619     428.1906   1419.67957     695.9619     428.1906
   1419.66431     695.4933     427.7775   1419.66431     695.4933     427.7775
   1419.64905     697.0687     427.8148   1419.64905     697.0687     427.8148
   1419.63379     697.2312     427.6072   1419.63379     697.2312     427.6072
   1419.61853     696.0867     428.0500   1419.61853     696.0867     428.0500
   1419.60327     697.8961     428.0191   1419.60327     697.8961     428.0191
   1419.58801     696.6462     428.0137   1419.58801     696.6462     428.0137
   1419.57275     698.4800     427.5161   1419.57275     698.4800     427.5161
   1419.55750     698.9024     426.8412   1419.55750     698.9024     426.8412
   1419.54224     696.8920     427.2674   1419.54224     696.8920     427.2674
   1419.52698     698.3114     427.3078   1419.52698     698.3114     427.3078
   1419.51172     697.4312     427.1861   1419.51172     697.4312     427.1861
   1419.49646     699.6591     427.0496   1419.49646     699.6591     427.0496
   1419.48120     698.7265     427.3176   1419.48120     698.7265     427.3176
   1419.46594     699.1656     426.4197   1419.46594     699.1656     426.4197
   1419.45068     699.5889     427.2956   1419.45068     699.5889     427.2956
   1419.43542     699.8203     426.8397   1419.43542     699.8203     426.8397
   1419.42017     699.2641     426.7537   1419.42017     699.2641     426.7537
   1419.40491     700.7956     426.5807   1419.40491     700.7956     426.5807
   1419.38965     701.4972     427.1660   1419.38965     701.4972     427.1660
   1419.37439     701.1297     426.9173   1419.37439     701.1297     426.9173
   1419.35913     702.9062     426.4619   1419.35913     702.9062     426.4619
   1419.34387     701.2988     427.4725   1419.34387     701.2988     427.4725
   1419.32861     702.5905     426.7031   1419.32861     702.5905     426.7031
   1419.31335     702.9684     427.3559   1419.31335     702.9684     427.3559
   1419.29810     702.6361     427.3581   1419.29810     702.6361     427.3581
   1419.28284     703.1555     427.5211   1419.28284     703.1555     427.5211
   1419.26758     704.2815     427.2530   1419.26758     704.2815     427.2530
   1419.25232     703.3884     427.3556   1419.25232     703.3884     427.3556
   1419.23706     705.4786     427.4020   1419.23706     705.4786     427.4020
   1419.22180     704.3331     427.3764   1419.22180     704.3331     427.3764
   1419.20654     705.4391     427.7149   1419.20654     705.4391     427.7149
   1419.19128     705.8470     427.9692   1419.19128     705.8470     427.9692
   1419.17603     705.8931     427.7136   1419.17603     705.8931     427.7136
   1419.16077     704.9941     428.4948   1419.16077     704.9941     428.4948
   1419.14551     705.4186     428.3597   1419.14551     705.4186     428.3597
   1419.13025     707.7807     428.1171   1419.13025     707.7807     428.1171
   1419.11499     708.7244     428.9152   1419.11499     708.7244     428.9152
   1419.09973     708.5173     428.7399   1419.09973     708.5173     428.7399
   1419.08447     709.0417     429.1262   1419.08447     709.0417     429.1262
   1419.06921     709.5908     429.7838   1419.06921     709.5908     429.7838
   1419.05396     709.3758     430.6716   1419.05396     709.3758     430.6716
   1419.03870     710.5580     430.4214   1419.03870     710.5580     430.4214
   1419.02344     710.8853     430.4963   1419.02344     710.8853     430.4963
   1419.00818     710.9844     430.7516   1419.00818     710.9844     430.7516
   1418.99292     711.9235     431.1414   1418.99292     711.9235     431.1414
   1418.97766     712.8759     432.1543   1418.97766     712.8759     432.1543
   1418.96240     712.7151     432.0917   1418.96240     712.7151     432.0917
   1418.94714     713.6008     432.6656   1418.94714     713.6008     432.6656
   1418.93188     712.9176     432.5490   1418.93188     712.9176     432.5490
   1418.91663     714.8096     432.8600   1418.91663     714.8096     432.8600
   1418.90137     715.7677     433.6596   1418.90137     715.7677     433.6596
   1418.88611     714.8111     434.3562   1418.88611     714.8111     434.3562
   1418.87085     715.8362     433.9460   1418.87085     715.8362     433.9460
   1418.85559     716.2962     434.3637   1418.85559     716.2962     434.3637
   1418.84033     717.3447     434.8932   1418.84033     717.3447     434.8932
   1418.82507     717.8372     435.4474   1418.82507     717.8372     435.4474
   1418.80981     717.6234     435.6919   1418.80981     717.6234     435.6919
   1418.79456     717.6470     435.9604   1418.79456     717.6470     435.9604
   1418.77930     719.2839     437.1193   1418.77930     719.2839     437.1193
   1418.76404     719.5836     437.2234   1418.76404     719.5836     437.2234
   1418.74878     720.8925     438.2224   1418.74878     720.8925     438.2224
   1418.73352     721.4050     438.5479   1418.73352     721.4050     438.5479
   1418.71826     722.9551     438.9219   1418.71826     722.9551     438.9219
   1418.70300     722.9519     439.6441   1418.70300     722.9519     439.6441
   1418.68774     724.0264     439.9277   1418.68774     724.0264     439.9277
   1418.67249     724.0526     440.7606   1418.67249     724.0526     440.7606
   1418.65723     725.2349     441.0210   1418.65723     725.2349     441.0210
   1418.64197     725.2026     441.6282   1418.64197     725.2026     441.6282
   1418.62671     726.5623     441.9671   1418.62671     726.5623     441.9671
   1418.61145     727.3124     442.4974   1418.61145     727.3124     442.4974
   1418.59619     727.1624     443.2512   1418.59619     727.1624     443.2512
   1418.58093     728.1592     444.6545   1418.58093     728.1592     444.6545
   1418.56567     728.7855     444.6537   1418.56567     728.7855     444.6537
   1418.55042     729.9742     445.5235   1418.55042     729.9742     445.5235
   1418.53516     730.6964     446.0022   1418.53516     730.6964     446.0022
   1418.51990     731.0859     446.3716   1418.51990     731.0859     446.3716
   1418.50464     731.9274     446.7667   1418.50464     731.9274     446.7667
   1418.48938     733.8002     448.7870   1418.48938     733.8002     448.7870
   1418.47412     732.8632     448.4653   1418.47412     732.8632     448.4653
   1418.45886     733.9354     449.1223   1418.45886     733.9354     449.1223
   1418.44360     734.8766     449.9565   1418.44360     734.8766     449.9565
   1418.42834     737.0151     450.3142   1418.42834     737.0151     450.3142
   1418.41309     737.0333     450.9397   1418.41309     737.0333     450.9397
   1418.39783     735.8156     452.0608   1418.39783     735.8156     452.0608
   1418.38257     738.9603     452.4966   1418.38257     738.9603     452.4966
   1418.36731     738.7145     452.9518   1418.36731     738.7145     452.9518
   1418.35205     740.5776     454.5574   1418.35205     740.5776     454.5574
   1418.33679     740.4916     455.3219   1418.33679     740.4916     455.3219
   1418.32153     742.4985     455.5330   1418.32153     742.4985     455.5330
   1418.30627     742.5557     457.1325   1418.30627     742.5557     457.1325
   1418.29102     743.5810     457.0579   1418.29102     743.5810     457.0579
   1418.27576     743.7501     458.7353   1418.27576     743.7501     458.7353
   1418.26050     744.5074     459.5392   1418.26050     744.5074     459.5392
   1418.24524     744.2173     459.2776   1418.24524     744.2173     459.2776
   1418.22998     746.5163     460.2576   1418.22998     746.5163     460.2576
   1418.21472     747.8795     461.8653   1418.21472     747.8795     461.8653
   1418.19946     748.3724     462.0067   1418.19946     748.3724     462.0067
   1418.18420     749.7437     462.9273   1418.18420     749.7437     462.9273
   1418.16895     750.1774     463.4143   1418.16895     750.1774     463.4143
   1418.15369     750.0946     465.1425   1418.15369     750.0946     465.1425
   1418.13843     751.6934     465.7876   1418.13843     751.6934     465.7876
   1418.12317     751.9313     466.5677   1418.12317     751.9313     466.5677
   1418.10791     754.6100     467.8075   1418.10791     754.6100     467.8075
   1418.09265     754.1481     468.7040   1418.09265     754.1481     468.7040
   1418.07739     755.3635     469.0430   1418.07739     755.3635     469.0430
   1418.06213     757.3895     470.7859   1418.06213     757.3895     470.7859
   1418.04688     756.9252     470.2651   1418.04688     756.9252     470.2651
   1418.03162     757.3895     471.5832   1418.03162     757.3895     471.5832
   1418.01636     759.1069     471.9329   1418.01636     759.1069     471.9329
   1418.00110     759.6344     473.6743   1418.00110     759.6344     473.6743
   1417.98584     761.3024     474.5027   1417.98584     761.3024     474.5027
   1417.97058     762.0462     475.3359   1417.97058     762.0462     475.3359
   1417.95532     764.2288     475.9686   1417.95532     764.2288     475.9686
   1417.94006     763.9414     477.3002   1417.94006     763.9414     477.3002
   1417.92480     765.9380     478.2834   1417.92480     765.9380     478.2834
   1417.90955     765.6059     478.7908   1417.90955     765.6059     478.7908
   1417.89429     766.9264     480.2248   1417.89429     766.9264     480.2248
   1417.87903     767.5245     480.3188   1417.87903     767.5245     480.3188
   1417.86377     769.6255     481.4470   1417.86377     769.6255     481.4470
   1417.84851     769.8447     483.2406   1417.84851     769.8447     483.2406
   1417.83325     771.0264     484.1339   1417.83325     771.0264     484.1339
   1417.81799     770.7510     485.3812   1417.81799     770.7510     485.3812
   1417.80273     773.4827     485.8029   1417.80273     773.4827     485.8029
   1417.78748     773.4047     486.9565   1417.78748     773.4047     486.9565
   1417.77222     774.9276     487.5594   1417.77222     774.9276     487.5594
   1417.75696     774.7896     487.9719   1417.75696     774.7896     487.9719
   1417.74170     777.3417     490.2702   1417.74170     777.3417     490.2702
   1417.72644     777.4955     491.1992   1417.72644     777.4955     491.1992
   1417.71118     778.5749     491.7358   1417.71118     778.5749     491.7358
   1417.69592     779.1824     492.3036   1417.69592     779.1824     492.3036
   1417.68066     780.6531     493.6506   1417.68066     780.6531     493.6506
   1417.66541     781.7292     493.9038   1417.66541     781.7292     493.9038
   1417.65015     782.8766     494.9033   1417.65015     782.8766     494.9033
   1417.63489     784.3536     496.7974   1417.63489     784.3536     496.7974
   1417.61963     785.0909     496.4070   1417.61963     785.0909     496.4070
   1417.60437     785.1976     498.1791   1417.60437     785.1976     498.1791
   1417.58911     786.7177     498.9341   1417.58911     786.7177     498.9341
   1417.57385     787.4867     500.9047   1417.57385     787.4867     500.9047
   1417.55859     787.8834     501.9643   1417.55859     787.8834     501.9643
   1417.54333     789.6160     501.4716   1417.54333     789.6160     501.4716
   1417.52808     791.0591     503.4831   1417.52808     791.0591     503.4831
   1417.51282     792.2209     503.7724   1417.51282     792.2209     503.7724
   1417.49756     791.1443     504.5740   1417.49756     791.1443     504.5740
   1417.48230     793.3919     505.5995   1417.48230     793.3919     505.5995
   1417.46704     796.4363     505.9837   1417.46704     796.4363     505.9837
   1417.45178     795.0763     507.2014   1417.45178     795.0763     507.2014
   1417.43652     796.3619     509.0302   1417.43652     796.3619     509.0302
   1417.42126     796.3503     509.1343   1417.42126     796.3503     509.1343
   1417.40601     797.4311     509.7758   1417.40601     797.4311     509.7758
   1417.39075     799.7844     511.4123   1417.39075     799.7844     511.4123
   1417.37549     801.0623     512.1230   1417.37549     801.0623     512.1230
   1417.36023     800.4287     513.1514   1417.36023     800.4287     513.1514
   1417.34497     801.0449     513.8673   1417.34497     801.0449     513.8673
   1417.32971     802.8094     514.5209   1417.32971     802.8094     514.5209
   1417.31445     804.0582     515.6635   1417.31445     804.0582     515.6635
   1417.29919     804.7247     516.2781   1417.29919     804.7247     516.2781
   1417.28394     806.4730     516.8333   1417.28394     806.4730     516.8333
   1417.26868     806.8569     518.3111   1417.26868     806.8569     518.3111
   1417.25342     809.0714     518.8965   1417.25342     809.0714     518.8965
   1417.23816     808.9283     520.0583   1417.23816     808.9283     520.0583
   1417.22290     810.8580     520.7682   1417.22290     810.8580     520.7682
   1417.20764     808.9603     521.5806   1417.20764     808.9603     521.5806
   1417.19238     810.6313     522.5089   1417.19238     810.6313     522.5089
   1417.17712     811.2060     523.1287   1417.17712     811.2060     523.1287
   1417.16187     811.8904     524.8653   1417.16187     811.8904     524.8653
   1417.14661     812.3267     525.0620   1417.14661     812.3267     525.0620
   1417.13135     813.6916     524.9044   1417.13135     813.6916     524.9044
   1417.11609     814.5193     526.4242   1417.11609     814.5193     526.4242
   1417.10083     814.8544     527.1473   1417.10083     814.8544     527.1473
   1417.08557     816.5040     527.2952   1417.08557     816.5040     527.2952
   1417.07031     817.1231     528.2720   1417.07031     817.1231     528.2720
   1417.05505     818.7171     530.3669   1417.05505     818.7171     530.3669
   1417.03979     820.1012     530.6271   1417.03979     820.1012     530.6271
   1417.02454     819.8682     531.2617   1417.02454     819.8682     531.2617
   1417.00928     821.3793     531.1167   1417.00928     821.3793     531.1167
   1416.99402     820.6182     532.5669   1416.99402     820.6182     532.5669
   1416.97876     821.5031     532.1509   1416.97876     821.5031     532.1509
   1416.96350     821.7735     532.8264   1416.96350     821.7735     532.8264
   1416.94824     822.8536     534.1454   1416.94824     822.8536     534.1454
   1416.93298     823.0967     534.2728   1416.93298     823.0967     534.2728
   1416.91772     823.9433     535.0157   1416.91772     823.9433     535.0157
   1416.90247     824.4852     534.9322   1416.90247     824.4852     534.9322
   1416.88721     825.1908     536.1019   1416.88721     825.1908     536.1019
   1416.87195     825.4233     536.1074   1416.87195     825.4233     536.1074
   1416.85669     827.7095     536.5686   1416.85669     827.7095     536.5686
   1416.84143     826.9410     537.3350   1416.84143     826.9410     537.3350
   1416.82617     828.3853     538.0698   1416.82617     828.3853     538.0698
   1416.81091     827.7473     538.3114   1416.81091     827.7473     538.3114
   1416.79565     828.8906     538.5816   1416.79565     828.8906     538.5816
   1416.78040     828.9834     537.9178   1416.78040     828.9834     537.9178
   1416.76514     830.1881     539.8185   1416.76514     830.1881     539.8185
   1416.74988     829.9261     539.6082   1416.74988     829.9261     539.6082
   1416.73462     828.7913     540.6099   1416.73462     828.7913     540.6099
   1416.71936     831.7629     540.6536   1416.71936     831.7629     540.6536
   1416.70410     831.4609     540.4372   1416.70410     831.4609     540.4372
   1416.68884     830.9376     540.8532   1416.68884     830.9376     540.8532
   1416.67358     832.3433     540.8157   1416.67358     832.3433     540.8157
   1416.65833     832.5860     541.6988   1416.65833     832.5860     541.6988
   1416.64307     833.7284     541.7759   1416.64307     833.7284     541.7759
   1416.62781     833.6501     542.4182   1416.62781     833.6501     542.4182
   1416.61255     833.3801     541.5327   1416.61255     833.3801     541.5327
   1416.59729     834.9951     541.3106   1416.59729     834.9951     541.3106
   1416.58203     834.9202     541.5771   1416.58203     834.9202     541.5771
   1416.56677     833.5569     541.7164   1416.56677     833.5569     541.7164
   1416.55151     833.7476     542.0356   1416.55151     833.7476     542.0356
   1416.53625     835.5016     541.8018   1416.53625     835.5016     541.8018
   1416.52100     835.7018     542.7628   1416.52100     835.7018     542.7628
   1416.50574     835.3043     541.6622   1416.50574     835.3043     541.6622
   1416.49048     834.8976     540.9364   1416.49048     834.8976     540.9364
   1416.47522     835.4804     541.3027   1416.47522     835.4804     541.3027
   1416.45996     836.3605     542.1324   1416.45996     836.3605     542.1324
   1416.44470     837.2175     541.3618   1416.44470     837.2175     541.3618
   1416.42944     836.7054     540.8985   1416.42944     836.7054     540.8985
   1416.41418     836.8848     541.0374   1416.41418     836.8848     541.0374
   1416.39893     836.3530     540.9980   1416.39893     836.3530     540.9980
   1416.38367     836.4102     541.5384   1416.38367     836.4102     541.5384
   1416.36841     837.4219     540.8276   1416.36841     837.4219     540.8276
   1416.35315     835.3712     540.7789   1416.35315     835.3712     540.7789
   1416.33789     835.9095     540.4757   1416.33789     835.9095     540.4757
   1416.32263     836.2523     539.7167   1416.32263     836.2523     539.7167
   1416.30737     835.3528     539.6080   1416.30737     835.3528     539.6080
   1416.29211     836.9006     540.0991   1416.29211     836.9006     540.0991
   1416.27686     837.4973     539.1524   1416.27686     837.4973     539.1524
   1416.26160     836.3762     539.4141   1416.26160     836.3762     539.4141
   1416.24634     835.7255     539.5859   1416.24634     835.7255     539.5859
   1416.23108     836.6688     538.8730   1416.23108     836.6688     538.8730
   1416.21582     835.7021     538.3052   1416.21582     835.7021     538.3052
   1416.20056     835.6269     537.1680   1416.20056     835.6269     537.1680
   1416.18530     835.6139     537.7383   1416.18530     835.6139     537.7383
   1416.17004     835.4637     537.1534   1416.17004     835.4637     537.1534
   1416.15479     834.4512     536.6879   1416.15479     834.4512     536.6879
   1416.13953     832.7862     535.6517   1416.13953     832.7862     535.6517
   1416.12427     834.6269     536.6942   1416.12427     834.6269     536.6942
   1416.10901     834.5006     535.1816   1416.10901     834.5006     535.1816
   1416.09375     834.7893     535.3627   1416.09375     834.7893     535.3627
   1416.07849     833.1001     534.6669   1416.07849     833.1001     534.6669
   1416.06323     833.8154     534.0847   1416.06323     833.8154     534.0847
   1416.04797     832.4314     532.8869   1416.04797     832.4314     532.8869
   1416.03271     833.2905     532.8113   1416.03271     833.2905     532.8113
   1416.01746     832.2671     532.7603   1416.01746     832.2671     532.7603
   1416.00220     831.5729     532.9314   1416.00220     831.5729     532.9314
   1415.98694     830.8588     531.5689   1415.98694     830.8588     531.5689
   1415.97168     830.2434     530.8232   1415.97168     830.2434     530.8232
   1415.95642     830.0316     530.8123   1415.95642     830.0316     530.8123
   1415.94116     830.2220     530.2338   1415.94116     830.2220     530.2338
   1415.92590     829.1868     529.3342   1415.92590     829.1868     529.3342
   1415.91064     829.7607     528.9009   1415.91064     829.7607     528.9009
   1415.89539     828.3440     528.5834   1415.89539     828.3440     528.5834
   1415.88013     828.3181     527.6129   1415.88013     828.3181     527.6129
   1415.86487     826.6653     526.3928   1415.86487     826.6653     526.3928
   1415.84961     827.2424     526.6981   1415.84961     827.2424     526.6981
   1415.83435     826.4762     525.7200   1415.83435     826.4762     525.7200
   1415.81909     825.8980     525.2775   1415.81909     825.8980     525.2775
   1415.80383     826.6449     524.7659   1415.80383     826.6449     524.7659
   1415.78857     824.4977     523.8123   1415.78857     824.4977     523.8123
   1415.77332     825.8345     524.7202   1415.77332     825.8345     524.7202
   1415.75806     823.7722     523.2765   1415.75806     823.7722     523.2765
   1415.74280     823.2270     522.5485   1415.74280     823.2270     522.5485
   1415.72754     821.5230     522.2650   1415.72754     821.5230     522.2650
   1415.71228     820.6158     520.6623   1415.71228     820.6158     520.6623
   1415.69702     820.2816     521.2364   1415.69702     820.2816     521.2364
   1415.68176     822.3793     519.9268   1415.68176     822.3793     519.9268
   1415.66650     820.6401     518.6980   1415.66650     820.6401     518.6980
   1415.65125     818.9805     518.6857   1415.65125     818.9805     518.6857
   1415.63599     818.4135     517.8554   1415.63599     818.4135     517.8554
   1415.62073     816.9184     516.9579   1415.62073     816.9184     516.9579
   1415.60547     816.0594     516.1119   1415.60547     816.0594     516.1119
   1415.59021     814.8030     514.9658   1415.59021     814.8030     514.9658
   1415.57495     814.3788     515.5771   1415.57495     814.3788     515.5771
   1415.55969     812.3045     514.4138   1415.55969     812.3045     514.4138
   1415.54443     812.1696     513.8396   1415.54443     812.1696     513.8396
   1415.52917     811.9867     513.8383   1415.52917     811.9867     513.8383
   1415.51392     811.3049     512.9286   1415.51392     811.3049     512.9286
   1415.49866     811.0620     511.3330   1415.49866     811.0620     511.3330
   1415.48340     809.4467     511.1033   1415.48340     809.4467     511.1033
   1415.46814     809.4048     510.4150   1415.46814     809.4048     510.4150
   1415.45288     808.5695     510.1873   1415.45288     808.5695     510.1873
   1415.43762     806.8414     508.5927   1415.43762     806.8414     508.5927
   1415.42236     806.2811     508.2909   1415.42236     806.2811     508.2909
   1415.40710     804.5916     508.2046   1415.40710     804.5916     508.2046
   1415.39185     803.6123     506.6792   1415.39185     803.6123     506.6792
   1415.37659     801.2338     505.6576   1415.37659     801.2338     505.6576
   1415.36133     801.2301     505.4864   1415.36133     801.2301     505.4864
   1415.34607     801.6135     504.4307   1415.34607     801.6135     504.4307
   1415.33081     799.4290     502.9223   1415.33081     799.4290     502.9223
   1415.31555     797.7902     502.5854   1415.31555     797.7902     502.5854
   1415.30029     796.1774     501.4835   1415.30029     796.1774     501.4835
   1415.28503     795.9271     502.0543   1415.28503     795.9271     502.0543
   1415.26978     793.6995     501.4968   1415.26978     793.6995     501.4968
   1415.25452     794.0027     500.1941   1415.25452     794.0027     500.1941
   1415.23926     791.7301     499.0388   1415.23926     791.7301     499.0388
   1415.22400     788.5940     498.1073   1415.22400     788.5940     498.1073
   1415.20874     789.6940     497.7669   1415.20874     789.6940     497.7669
   1415.19348     787.2693     495.2856   1415.19348     787.2693     495.2856
   1415.17822     786.7862     495.6644   1415.17822     786.7862     495.6644
   1415.16296     784.4229     494.2358   1415.16296     784.4229     494.2358
   1415.14771     783.7277     493.5823   1415.14771     783.7277     493.5823
   1415.13245     781.3981     492.2665   1415.13245     781.3981     492.2665
   1415.11719     781.8715     491.3875   1415.11719     781.8715     491.3875
   1415.10193     779.5585     491.0602   1415.10193     779.5585     491.0602
   1415.08667     779.1013     490.3575   1415.08667     779.1013     490.3575
   1415.07141     774.9403     489.6329   1415.07141     774.9403     489.6329
   1415.05615     774.9265     488.4132   1415.05615     774.9265     488.4132
   1415.04089     772.4315     487.2469   1415.04089     772.4315     487.2469
   1415.02563     772.3022     486.0857   1415.02563     772.3022     486.0857
   1415.01038     770.8190     485.7456   1415.01038     770.8190     485.7456
   1414.99512     769.0817     484.4736   1414.99512     769.0817     484.4736
   1414.97986     767.4525     483.4308   1414.97986     767.4525     483.4308
   1414.96460     765.1394     482.6233   1414.96460     765.1394     482.6233
   1414.94934     762.9059     481.3954   1414.94934     762.9059     481.3954
   1414.93408     761.4125     480.1473   1414.93408     761.4125     480.1473
   1414.91882     758.8055     479.9927   1414.91882     758.8055     479.9927
   1414.90356     757.4575     478.2249   1414.90356     757.4575     478.2249
   1414.88831     756.3737     477.2799   1414.88831     756.3737     477.2799
   1414.87305     755.2004     475.8828   1414.87305     755.2004     475.8828
   1414.85779     753.1149     474.9778   1414.85779     753.1149     474.9778
   1414.84253     749.6680     473.7223   1414.84253     749.6680     473.7223
   1414.82727     749.7104     472.5950   1414.82727     749.7104     472.5950
   1414.81201     745.2478     471.6659   1414.81201     745.2478     471.6659
   1414.79675     745.1619     470.9144   1414.79675     745.1619     470.9144
   1414.78149     743.1001     468.7172   1414.78149     743.1001     468.7172
   1414.76624     740.3306     468.4352   1414.76624     740.3306     468.4352
   1414.75098     737.9135     467.3112   1414.75098     737.9135     467.3112
   1414.73572     736.9143     466.0310   1414.73572     736.9143     466.0310
   1414.72046     733.8491     465.0934   1414.72046     733.8491     465.0934
   1414.70520     731.9749     463.5396   1414.70520     731.9749     463.5396
   1414.68994     730.3268     462.2900   1414.68994     730.3268     462.2900
   1414.67468     728.5512     460.7002   1414.67468     728.5512     460.7002
   1414.65942     725.4798     459.2653   1414.65942     725.4798     459.2653
   1414.64417     723.5554     458.8343   1414.64417     723.5554     458.8343
   1414.62891     721.9280     457.2095   1414.62891     721.9280     457.2095
   1414.61365     719.3372     456.5925   1414.61365     719.3372     456.5925
   1414.59839     716.3145     455.0710   1414.59839     716.3145     455.0710
   1414.58313     714.7253     453.9330   1414.58313     714.7253     453.9330
   1414.56787     712.7850     452.3185   1414.56787     712.7850     452.3185
   1414.55261     710.4069     451.5629   1414.55261     710.4069     451.5629
   1414.53735     708.4932     449.8924   1414.53735     708.4932     449.8924
   1414.52209     705.5539     448.0954   1414.52209     705.5539     448.0954
   1414.50684     703.2914     447.6594   1414.50684     703.2914     447.6594
   1414.49158     700.2657     445.9816   1414.49158     700.2657     445.9816
   1414.47632     697.8240     444.4782   1414.47632     697.8240     444.4782
   1414.46106     695.0085     442.4305   1414.46106     695.0085     442.4305
   1414.44580     693.2444     441.6779   1414.44580     693.2444     441.6779
   1414.43054     689.5409     440.7935   1414.43054     689.5409     440.7935
   1414.41528     687.2817     439.2333   1414.41528     687.2817     439.2333
   1414.40002     685.0295     437.1132   1414.40002     685.0295     437.1132
   1414.38477     683.0536     436.0585   1414.38477     683.0536     436.0585
   1414.36951     680.1407     435.3488   1414.36951     680.1407     435.3488
   1414.35425     676.6967     433.0775   1414.35425     676.6967     433.0775
   1414.33899     674.8261     431.3312   1414.33899     674.8261     431.3312
   1414.32373     671.5842     430.3277   1414.32373     671.5842     430.3277
   1414.30847     669.9329     429.0233   1414.30847     669.9329     429.0233
   1414.29321     667.0005     427.3653   1414.29321     667.0005     427.3653
   1414.27795     663.2664     425.4948   1414.27795     663.2664     425.4948
   1414.26270     660.0064     424.0665   1414.26270     660.0064     424.0665
   1414.24744     658.8033     422.4240   1414.24744     658.8033     422.4240
   1414.23218     655.0610     421.2527   1414.23218     655.0610     421.2527
   1414.21692     651.6059     419.5058   1414.21692     651.6059     419.5058
   1414.20166     649.7472     417.7093   1414.20166     649.7472     417.7093
   1414.18640     646.9737     417.0011   1414.18640     646.9737     417.0011
   1414.17114     643.6248     414.9089   1414.17114     643.6248     414.9089
   1414.15588     640.9820     413.5781   1414.15588     640.9820     413.5781
   1414.14062     637.4830     412.3748   1414.14062     637.4830     412.3748
   1414.12537     634.2923     410.0459   1414.12537     634.2923     410.0459
   1414.11011     631.4485     408.4726   1414.11011     631.4485     408.4726
   1414.09485     629.9974     406.9039   1414.09485     629.9974     406.9039
   1414.07959     627.0817     405.3460   1414.07959     627.0817     405.3460
   1414.06433     622.9072     403.7133   1414.06433     622.9072     403.7133
   1414.04907     620.3453     402.6912   1414.04907     620.3453     402.6912
   1414.03381     618.1246     400.5154   1414.03381     618.1246     400.5154
   1414.01855     614.1814     399.8068   1414.01855     614.1814     399.8068
   1414.00330     638.3275     406.3835   1414.00330     638.3275     406.3835
   1413.98804     610.2684     396.4763   1413.98804     610.2684     396.4763
   1413.97278     606.1353     393.7336   1413.97278     606.1353     393.7336
   1413.95752     602.1846     392.7808   1413.95752     602.1846     392.7808
   1413.94226     598.7209     391.2215   1413.94226     598.7209     391.2215
   1413.92700     596.3153     388.8141   1413.92700     596.3153     388.8141
   1413.91174     592.9901     387.8797   1413.91174     592.9901     387.8797
   1413.89648     588.9539     384.9637   1413.89648     588.9539     384.9637
   1413.88123     586.7525     383.6287   1413.88123     586.7525     383.6287
   1413.86597     583.5579     382.0095   1413.86597     583.5579     382.0095
   1413.85071     580.3329     380.9712   1413.85071     580.3329     380.9712
   1413.83545     576.4344     378.5488   1413.83545     576.4344     378.5488
   1413.82019     574.0425     377.7638   1413.82019     574.0425     377.7638
   1413.80493     570.7247     375.6881   1413.80493     570.7247     375.6881
   1413.78967     568.5633     374.3521   1413.78967     568.5633     374.3521
   1413.77441     563.9246     372.3585   1413.77441     563.9246     372.3585
   1413.75916     560.6962     370.1691   1413.75916     560.6962     370.1691
   1413.74390     558.6141     368.7675   1413.74390     558.6141     368.7675
   1413.72864     554.3076     367.4439   1413.72864     554.3076     367.4439
   1413.71338     551.8419     365.3638   1413.71338     551.8419     365.3638
   1413.69812     549.2965     363.5687   1413.69812     549.2965     363.5687
   1413.68286     545.4041     361.8841   1413.68286     545.4041     361.8841
   1413.66760     541.6613     360.0212   1413.66760     541.6613     360.0212
   1413.65234     540.0635     358.8091   1413.65234     540.0635     358.8091
   1413.63708     536.5286     356.5377   1413.63708     536.5286     356.5377
   1413.62183     532.9352     355.9264   1413.62183     532.9352     355.9264
   1413.60657     529.6807     354.1911   1413.60657     529.6807     354.1911
   1413.59131     527.1747     352.1585   1413.59131     527.1747     352.1585
   1413.57605     523.5715     349.4807   1413.57605     523.5715     349.4807
   1413.56079     520.5059     348.1813   1413.56079     520.5059     348.1813
   1413.54553     518.1045     347.1712   1413.54553     518.1045     347.1712
   1413.53027     514.9412     345.1826   1413.53027     514.9412     345.1826
   1413.51501     511.8690     343.5224   1413.51501     511.8690     343.5224
   1413.49976     508.4443     342.5597   1413.49976     508.4443     342.5597
   1413.48450     505.2754     340.3574   1413.48450     505.2754     340.3574
   1413.46924     502.8369     338.3698   1413.46924     502.8369     338.3698
   1413.45398     498.4009     337.0972   1413.45398     498.4009     337.0972
   1413.43872     497.0334     334.8164   1413.43872     497.0334     334.8164
   1413.42346     493.1454     333.9873   1413.42346     493.1454     333.9873
   1413.40820     490.0556     332.6897   1413.40820     490.0556     332.6897
   1413.39294     487.8849     330.2832   1413.39294     487.8849     330.2832
   1413.37769     484.6275     328.8413   1413.37769     484.6275     328.8413
   1413.36243     481.9779     327.4054   1413.36243     481.9779     327.4054
   1413.34717     478.6198     325.9066   1413.34717     478.6198     325.9066
   1413.33191     476.3527     323.6678   1413.33191     476.3527     323.6678
   1413.31665     473.7611     322.4111   1413.31665     473.7611     322.4111
   1413.30139     470.3194     320.9773   1413.30139     470.3194     320.9773
   1413.28613     467.2312     319.6665   1413.28613     467.2312     319.6665
   1413.27087     465.3094     318.2790   1413.27087     465.3094     318.2790
   1413.25562     461.3645     316.3709   1413.25562     461.3645     316.3709
   1413.24036     459.0600     315.2495   1413.24036     459.0600     315.2495
   1413.22510     456.6013     313.6323   1413.22510     456.6013     313.6323
   1413.20984     453.7748     311.9384   1413.20984     453.7748     311.9384
   1413.19458     451.7784     311.3841   1413.19458     451.7784     311.3841
   1413.17932     448.9480     309.4525   1413.17932     448.9480     309.4525
   1413.16406     445.7543     307.6355   1413.16406     445.7543     307.6355
   1413.14880     443.5047     306.3719   1413.14880     443.5047     306.3719
   1413.13354     440.9575     305.0004   1413.13354     440.9575     305.0004
   1413.11829     438.6310     303.8588   1413.11829     438.6310     303.8588
   1413.10303     436.2805     302.4512   1413.10303     436.2805     302.4512
   1413.08777     433.6595     301.3529   1413.08777     433.6595     301.3529
   1413.07251     431.1656     299.7153   1413.07251     431.1656     299.7153
   1413.05725     429.0224     298.9070   1413.05725     429.0224     298.9070
   1413.04199     426.5592     297.2745   1413.04199     426.5592     297.2745
   1413.02673     424.5531     296.1064   1413.02673     424.5531     296.1064
   1413.01147     422.2647     295.1308   1413.01147     422.2647     295.1308
   1412.99622     420.0875     293.6524   1412.99622     420.0875     293.6524
   1412.98096     418.1289     292.4773   1412.98096     418.1289     292.4773
   1412.96570     415.8446     291.3849   1412.96570     415.8446     291.3849
   1412.95044     413.9092     290.5490   1412.95044     413.9092     290.5490
   1412.93518     411.5067     289.5193   1412.93518     411.5067     289.5193
   1412.91992     409.6321     288.2574   1412.91992     409.6321     288.2574
   1412.90466     407.8354     287.3627   1412.90466     407.8354     287.3627
   1412.88940     406.1859     286.1693   1412.88940     406.1859     286.1693
   1412.87415     403.5132     285.4531   1412.87415     403.5132     285.4531
   1412.85889     402.5031     283.9102   1412.85889     402.5031     283.9102
   1412.84363     400.9966     283.7047   1412.84363     400.9966     283.7047
   1412.82837     398.5625     282.2515   1412.82837     398.5625     282.2515
   1412.81311     396.7601     281.3595   1412.81311     396.7601     281.3595
   1412.79785     395.7237     280.9482   1412.79785     395.7237     280.9482
   1412.78259     394.4264     280.0898   1412.78259     394.4264     280.0898
   1412.76733     392.4242     279.1640   1412.76733     392.4242     279.1640
   1412.75208     391.0263     278.6589   1412.75208     391.0263     278.6589
   1412.73682     389.3763     277.8068   1412.73682     389.3763     277.8068
   1412.72156     387.7624     277.2498   1412.72156     387.7624     277.2498
   1412.70630     387.1584     276.7900   1412.70630     387.1584     276.7900
   1412.69104     385.2993     275.9525   1412.69104     385.2993     275.9525
   1412.67578     384.7760     275.6177   1412.67578     384.7760     275.6177
   1412.66052     383.4176     274.8399   1412.66052     383.4176     274.8399
   1412.64526     382.5211     274.3306   1412.64526     382.5211     274.3306
   1412.63000     381.3844     273.8482   1412.63000     381.3844     273.8482
   1412.61475     380.1553     273.6108   1412.61475     380.1553     273.6108
   1412.59949     378.7663     273.2280   1412.59949     378.7663     273.2280
   1412.58423     377.8912     272.9093   1412.58423     377.8912     272.9093
   1412.56897     377.0248     272.2926   1412.56897     377.0248     272.2926
   1412.55371     376.4844     272.3598   1412.55371     376.4844     272.3598
   1412.53845     375.4220     272.2884   1412.53845     375.4220     272.2884
   1412.52319     375.4834     271.6830   1412.52319     375.4834     271.6830
   1412.50793     374.6205     271.6154   1412.50793     374.6205     271.6154
   1412.49268     374.3007     271.4500   1412.49268     374.3007     271.4500
   1412.47742     373.9760     271.4321   1412.47742     373.9760     271.4321
   1412.46216     373.6093     271.5238   1412.46216     373.6093     271.5238
   1412.44690     372.8405     271.2124   1412.44690     372.8405     271.2124
   1412.43164     372.5141     271.7850   1412.43164     372.5141     271.7850
   1412.41638     371.8500     271.5481   1412.41638     371.8500     271.5481
   1412.40112     372.0529     271.8621   1412.40112     372.0529     271.8621
   1412.38586     371.6317     271.7756   1412.38586     371.6317     271.7756
   1412.37061     370.7392     271.7546   1412.37061     370.7392     271.7546
   1412.35535     371.9666     272.2727   1412.35535     371.9666     272.2727
   1412.34009     371.9395     272.3620   1412.34009     371.9395     272.3620
   1412.32483     372.0196     272.7730   1412.32483     372.0196     272.7730
   1412.30957     371.6306     273.1135   1412.30957     371.6306     273.1135
   1412.29431     372.2690     273.6701   1412.29431     372.2690     273.6701
   1412.27905     372.3194     273.9944   1412.27905     372.3194     273.9944
   1412.26379     373.1012     274.8409   1412.26379     373.1012     274.8409
   1412.24854     372.6593     275.3013   1412.24854     372.6593     275.3013
   1412.23328     373.6508     275.4884   1412.23328     373.6508     275.4884
   1412.21802     373.8359     276.1220   1412.21802     373.8359     276.1220
   1412.20276     374.4033     276.8988   1412.20276     374.4033     276.8988