#     FILENAME=!Skynet_57528_lach-cc-242_20658_21019.cyb.fits
#     BASENAME=Skynet_57528_lach-cc-242_20658_21019
#     SRC_NAME=lach-cc-242
#     OBSERVER=ccmadison16_9505
#     DATE_OBS=2016-05-20T19:13:53.750
#        OBSID=20658
#      SCANNUM=21019
#          MJD=57528.8024
#          UTC=69322
#     SCANTYPE=track
#     DATAMODE=HIRES
#     TUNEFREQ=1420.0000
# Actual_FREQ1=1420.0000
# Actual_FREQ2=1420.0000
#    LO1Tuning=6870.000
#     RFFILTER=1355_1435
#        OBSBW=-15.6250
#        NCHAN=1024 
#        FOCUS=37.0709
#           RA=07:48:24.07
#          DEC=-25:37:09.44
#      RA(hrs)=7.806700
#     DEC(deg)=-25.619300
#    AZIM(deg)=151.036
#    ELEV(deg)=19.953
#     IFattens=11.00, 10.00
#      WARNING=None
#    TCAL_XL1=7.9635
#    TCAL_YR1=9.1340
#    TCAL_XL2=7.9635
#    TCAL_YR2=9.1340
#     TRX_XL1=11.7060
#     TRX_YR1=11.7060
#     TRX_XL2=11.7060
#     TRX_YR2=11.7060
#        TAVE=1.0000
#Freq1(MHz)          XL1          YR1  Freq2(MHz)          XL2          YR2 

   1427.81250     304.2400     244.9951   1427.81250     304.2400     244.9951
   1427.79724     304.5307     245.5455   1427.79724     304.5307     245.5455
   1427.78198     305.3938     245.8488   1427.78198     305.3938     245.8488
   1427.76672     305.9466     246.0054   1427.76672     305.9466     246.0054
   1427.75146     306.2907     246.4327   1427.75146     306.2907     246.4327
   1427.73621     307.1463     247.0416   1427.73621     307.1463     247.0416
   1427.72095     308.1802     248.0336   1427.72095     308.1802     248.0336
   1427.70569     308.4844     248.6709   1427.70569     308.4844     248.6709
   1427.69043     309.9355     248.7709   1427.69043     309.9355     248.7709
   1427.67517     310.7363     249.8082   1427.67517     310.7363     249.8082
   1427.65991     311.6167     250.3701   1427.65991     311.6167     250.3701
   1427.64465     312.4031     251.3225   1427.64465     312.4031     251.3225
   1427.62939     313.9449     251.9330   1427.62939     313.9449     251.9330
   1427.61414     314.4192     252.7320   1427.61414     314.4192     252.7320
   1427.59888     315.6326     253.9486   1427.59888     315.6326     253.9486
   1427.58362     316.1857     254.3500   1427.58362     316.1857     254.3500
   1427.56836     317.3195     255.5935   1427.56836     317.3195     255.5935
   1427.55310     318.6530     256.3965   1427.55310     318.6530     256.3965
   1427.53784     320.5696     257.7888   1427.53784     320.5696     257.7888
   1427.52258     321.5752     257.9605   1427.52258     321.5752     257.9605
   1427.50732     323.1393     259.5833   1427.50732     323.1393     259.5833
   1427.49207     324.2274     260.6270   1427.49207     324.2274     260.6270
   1427.47681     325.8069     261.4197   1427.47681     325.8069     261.4197
   1427.46155     327.4437     263.0015   1427.46155     327.4437     263.0015
   1427.44629     328.0858     264.1518   1427.44629     328.0858     264.1518
   1427.43103     330.0155     265.3345   1427.43103     330.0155     265.3345
   1427.41577     331.0217     266.1796   1427.41577     331.0217     266.1796
   1427.40051     332.9328     267.8758   1427.40051     332.9328     267.8758
   1427.38525     334.9972     269.2647   1427.38525     334.9972     269.2647
   1427.37000     336.5585     270.2517   1427.37000     336.5585     270.2517
   1427.35474     337.9711     271.3064   1427.35474     337.9711     271.3064
   1427.33948     339.7399     272.8084   1427.33948     339.7399     272.8084
   1427.32422     341.7248     274.5010   1427.32422     341.7248     274.5010
   1427.30896     343.1968     275.7328   1427.30896     343.1968     275.7328
   1427.29370     345.2031     277.3702   1427.29370     345.2031     277.3702
   1427.27844     346.6108     278.5620   1427.27844     346.6108     278.5620
   1427.26318     348.6054     280.0229   1427.26318     348.6054     280.0229
   1427.24792     351.1496     282.0066   1427.24792     351.1496     282.0066
   1427.23267     352.4903     283.3821   1427.23267     352.4903     283.3821
   1427.21741     354.5076     285.1269   1427.21741     354.5076     285.1269
   1427.20215     356.2789     286.5072   1427.20215     356.2789     286.5072
   1427.18689     357.9643     288.0321   1427.18689     357.9643     288.0321
   1427.17163     359.6532     289.6763   1427.17163     359.6532     289.6763
   1427.15637     362.3141     291.7076   1427.15637     362.3141     291.7076
   1427.14111     364.4411     292.7812   1427.14111     364.4411     292.7812
   1427.12585     366.5343     295.2151   1427.12585     366.5343     295.2151
   1427.11060     369.1772     296.5094   1427.11060     369.1772     296.5094
   1427.09534     371.2632     298.4717   1427.09534     371.2632     298.4717
   1427.08008     372.8557     300.4239   1427.08008     372.8557     300.4239
   1427.06482     375.0155     301.9802   1427.06482     375.0155     301.9802
   1427.04956     377.4586     303.5190   1427.04956     377.4586     303.5190
   1427.03430     380.0603     305.9705   1427.03430     380.0603     305.9705
   1427.01904     381.6363     307.6160   1427.01904     381.6363     307.6160
   1427.00378     384.5208     309.1941   1427.00378     384.5208     309.1941
   1426.98853     386.3857     311.3540   1426.98853     386.3857     311.3540
   1426.97327     388.5573     313.1787   1426.97327     388.5573     313.1787
   1426.95801     390.9557     315.2935   1426.95801     390.9557     315.2935
   1426.94275     393.7609     316.9740   1426.94275     393.7609     316.9740
   1426.92749     395.5229     318.3661   1426.92749     395.5229     318.3661
   1426.91223     398.3373     321.0590   1426.91223     398.3373     321.0590
   1426.89697     400.0773     322.9557   1426.89697     400.0773     322.9557
   1426.88171     403.1612     325.4570   1426.88171     403.1612     325.4570
   1426.86646     405.0525     326.5495   1426.86646     405.0525     326.5495
   1426.85120     407.2873     328.7601   1426.85120     407.2873     328.7601
   1426.83594     410.0555     330.8689   1426.83594     410.0555     330.8689
   1426.82068     411.7397     332.7458   1426.82068     411.7397     332.7458
   1426.80542     414.8812     334.4857   1426.80542     414.8812     334.4857
   1426.79016     416.8207     337.0290   1426.79016     416.8207     337.0290
   1426.77490     419.3674     338.6178   1426.77490     419.3674     338.6178
   1426.75964     422.1219     340.8847   1426.75964     422.1219     340.8847
   1426.74438     424.5551     343.1062   1426.74438     424.5551     343.1062
   1426.72913     426.9373     344.7398   1426.72913     426.9373     344.7398
   1426.71387     429.0957     346.6758   1426.71387     429.0957     346.6758
   1426.69861     431.7477     349.1965   1426.69861     431.7477     349.1965
   1426.68335     434.3618     351.1931   1426.68335     434.3618     351.1931
   1426.66809     436.7358     352.8461   1426.66809     436.7358     352.8461
   1426.65283     439.7985     354.3690   1426.65283     439.7985     354.3690
   1426.63757     442.2963     357.8136   1426.63757     442.2963     357.8136
   1426.62231     444.9589     359.9448   1426.62231     444.9589     359.9448
   1426.60706     446.6057     361.3963   1426.60706     446.6057     361.3963
   1426.59180     449.1436     363.4775   1426.59180     449.1436     363.4775
   1426.57654     451.8101     365.7115   1426.57654     451.8101     365.7115
   1426.56128     453.7857     367.0098   1426.56128     453.7857     367.0098
   1426.54602     456.4997     369.7740   1426.54602     456.4997     369.7740
   1426.53076     458.4739     371.4889   1426.53076     458.4739     371.4889
   1426.51550     460.7025     373.5486   1426.51550     460.7025     373.5486
   1426.50024     463.6187     376.1003   1426.50024     463.6187     376.1003
   1426.48499     466.1982     377.8167   1426.48499     466.1982     377.8167
   1426.46973     468.4463     379.8914   1426.46973     468.4463     379.8914
   1426.45447     471.0591     381.7505   1426.45447     471.0591     381.7505
   1426.43921     474.3196     384.3623   1426.43921     474.3196     384.3623
   1426.42395     476.1463     386.1375   1426.42395     476.1463     386.1375
   1426.40869     478.6801     388.5117   1426.40869     478.6801     388.5117
   1426.39343     480.8509     390.8339   1426.39343     480.8509     390.8339
   1426.37817     482.9120     392.6890   1426.37817     482.9120     392.6890
   1426.36292     484.8734     394.4602   1426.36292     484.8734     394.4602
   1426.34766     487.9588     397.0414   1426.34766     487.9588     397.0414
   1426.33240     489.9562     399.1849   1426.33240     489.9562     399.1849
   1426.31714     491.6656     401.0156   1426.31714     491.6656     401.0156
   1426.30188     494.8654     403.0191   1426.30188     494.8654     403.0191
   1426.28662     497.2619     405.2744   1426.28662     497.2619     405.2744
   1426.27136     499.9889     407.1738   1426.27136     499.9889     407.1738
   1426.25610     502.3412     409.8505   1426.25610     502.3412     409.8505
   1426.24084     503.7993     411.5189   1426.24084     503.7993     411.5189
   1426.22559     505.9806     413.3778   1426.22559     505.9806     413.3778
   1426.21033     509.1504     414.9238   1426.21033     509.1504     414.9238
   1426.19507     511.4131     417.5290   1426.19507     511.4131     417.5290
   1426.17981     512.5969     418.9303   1426.17981     512.5969     418.9303
   1426.16455     515.7776     421.5514   1426.16455     515.7776     421.5514
   1426.14929     517.4249     422.5533   1426.14929     517.4249     422.5533
   1426.13403     519.7578     424.6501   1426.13403     519.7578     424.6501
   1426.11877     521.4065     426.4130   1426.11877     521.4065     426.4130
   1426.10352     522.9063     428.8213   1426.10352     522.9063     428.8213
   1426.08826     524.3491     430.8365   1426.08826     524.3491     430.8365
   1426.07300     527.4384     432.1794   1426.07300     527.4384     432.1794
   1426.05774     529.0884     433.9304   1426.05774     529.0884     433.9304
   1426.04248     530.8381     436.5164   1426.04248     530.8381     436.5164
   1426.02722     532.9108     438.0568   1426.02722     532.9108     438.0568
   1426.01196     535.3334     439.1711   1426.01196     535.3334     439.1711
   1425.99670     537.4437     441.4674   1425.99670     537.4437     441.4674
   1425.98145     538.7607     442.7997   1425.98145     538.7607     442.7997
   1425.96619     540.6399     445.0078   1425.96619     540.6399     445.0078
   1425.95093     542.6326     446.8531   1425.95093     542.6326     446.8531
   1425.93567     545.2366     448.3566   1425.93567     545.2366     448.3566
   1425.92041     546.4716     449.5418   1425.92041     546.4716     449.5418
   1425.90515     548.3800     452.0009   1425.90515     548.3800     452.0009
   1425.88989     549.7613     452.9965   1425.88989     549.7613     452.9965
   1425.87463     551.3587     455.0707   1425.87463     551.3587     455.0707
   1425.85938     553.1756     456.7509   1425.85938     553.1756     456.7509
   1425.84412     554.3741     458.5262   1425.84412     554.3741     458.5262
   1425.82886     556.8208     460.3952   1425.82886     556.8208     460.3952
   1425.81360     558.6633     462.1053   1425.81360     558.6633     462.1053
   1425.79834     562.8481     466.1159   1425.79834     562.8481     466.1159
   1425.78308     561.3160     466.0423   1425.78308     561.3160     466.0423
   1425.76782     562.5294     467.0181   1425.76782     562.5294     467.0181
   1425.75256     564.7888     468.5096   1425.75256     564.7888     468.5096
   1425.73730     566.0389     469.8382   1425.73730     566.0389     469.8382
   1425.72205     567.4550     471.2711   1425.72205     567.4550     471.2711
   1425.70679     569.0626     472.8865   1425.70679     569.0626     472.8865
   1425.69153     570.8417     475.1684   1425.69153     570.8417     475.1684
   1425.67627     571.5114     476.3024   1425.67627     571.5114     476.3024
   1425.66101     572.9205     477.2527   1425.66101     572.9205     477.2527
   1425.64575     574.9564     479.6697   1425.64575     574.9564     479.6697
   1425.63049     576.3212     481.4557   1425.63049     576.3212     481.4557
   1425.61523     578.2330     483.3533   1425.61523     578.2330     483.3533
   1425.59998     578.6604     484.3069   1425.59998     578.6604     484.3069
   1425.58472     580.5958     484.9616   1425.58472     580.5958     484.9616
   1425.56946     581.2150     487.3421   1425.56946     581.2150     487.3421
   1425.55420     582.1110     488.2643   1425.55420     582.1110     488.2643
   1425.53894     584.3340     489.6449   1425.53894     584.3340     489.6449
   1425.52368     585.3831     491.5497   1425.52368     585.3831     491.5497
   1425.50842     587.2460     493.1680   1425.50842     587.2460     493.1680
   1425.49316     586.9129     495.4365   1425.49316     586.9129     495.4365
   1425.47791     587.8805     496.5450   1425.47791     587.8805     496.5450
   1425.46265     590.4848     497.4545   1425.46265     590.4848     497.4545
   1425.44739     591.6521     499.2398   1425.44739     591.6521     499.2398
   1425.43213     593.2831     500.8098   1425.43213     593.2831     500.8098
   1425.41687     594.0862     502.2400   1425.41687     594.0862     502.2400
   1425.40161     594.5207     503.3736   1425.40161     594.5207     503.3736
   1425.38635     595.9766     506.1694   1425.38635     595.9766     506.1694
   1425.37109     596.2944     506.1706   1425.37109     596.2944     506.1706
   1425.35583     597.5585     508.4622   1425.35583     597.5585     508.4622
   1425.34058     598.6592     510.0117   1425.34058     598.6592     510.0117
   1425.32532     598.0709     510.2227   1425.32532     598.0709     510.2227
   1425.31006     599.7272     511.2928   1425.31006     599.7272     511.2928
   1425.29480     600.8811     512.8489   1425.29480     600.8811     512.8489
   1425.27954     602.3945     514.5079   1425.27954     602.3945     514.5079
   1425.26428     603.5538     515.9230   1425.26428     603.5538     515.9230
   1425.24902     603.3030     517.2335   1425.24902     603.3030     517.2335
   1425.23376     603.1913     517.6191   1425.23376     603.1913     517.6191
   1425.21851     604.7133     519.4428   1425.21851     604.7133     519.4428
   1425.20325     605.2478     519.7155   1425.20325     605.2478     519.7155
   1425.18799     606.2464     522.1888   1425.18799     606.2464     522.1888
   1425.17273     607.3286     524.1175   1425.17273     607.3286     524.1175
   1425.15747     606.4036     523.5484   1425.15747     606.4036     523.5484
   1425.14221     607.4984     524.2147   1425.14221     607.4984     524.2147
   1425.12695     609.2697     525.0785   1425.12695     609.2697     525.0785
   1425.11169     609.0042     527.5618   1425.11169     609.0042     527.5618
   1425.09644     609.6974     527.4349   1425.09644     609.6974     527.4349
   1425.08118     610.8229     529.7692   1425.08118     610.8229     529.7692
   1425.06592     610.6625     529.7456   1425.06592     610.6625     529.7456
   1425.05066     610.4987     530.5876   1425.05066     610.4987     530.5876
   1425.03540     610.4671     531.2299   1425.03540     610.4671     531.2299
   1425.02014     611.5890     532.6058   1425.02014     611.5890     532.6058
   1425.00488     612.8534     534.8328   1425.00488     612.8534     534.8328
   1424.98962     612.3842     534.6435   1424.98962     612.3842     534.6435
   1424.97437     613.9451     535.1659   1424.97437     613.9451     535.1659
   1424.95911     614.1584     536.7521   1424.95911     614.1584     536.7521
   1424.94385     613.5135     538.0623   1424.94385     613.5135     538.0623
   1424.92859     614.9725     538.9210   1424.92859     614.9725     538.9210
   1424.91333     614.8108     540.1140   1424.91333     614.8108     540.1140
   1424.89807     616.3041     540.4508   1424.89807     616.3041     540.4508
   1424.88281     615.5375     542.6105   1424.88281     615.5375     542.6105
   1424.86755     615.3796     543.7260   1424.86755     615.3796     543.7260
   1424.85229     615.3036     544.2959   1424.85229     615.3036     544.2959
   1424.83704     615.6104     545.1478   1424.83704     615.6104     545.1478
   1424.82178     616.4779     546.1979   1424.82178     616.4779     546.1979
   1424.80652     616.5675     547.3510   1424.80652     616.5675     547.3510
   1424.79126     616.1726     547.5546   1424.79126     616.1726     547.5546
   1424.77600     617.5407     549.2549   1424.77600     617.5407     549.2549
   1424.76074     617.6209     548.9345   1424.76074     617.6209     548.9345
   1424.74548     617.0971     550.7659   1424.74548     617.0971     550.7659
   1424.73022     617.6985     552.1479   1424.73022     617.6985     552.1479
   1424.71497     618.0595     552.5227   1424.71497     618.0595     552.5227
   1424.69971     618.3574     552.8655   1424.69971     618.3574     552.8655
   1424.68445     617.7230     554.1104   1424.68445     617.7230     554.1104
   1424.66919     618.1387     554.7846   1424.66919     618.1387     554.7846
   1424.65393     618.7091     556.6334   1424.65393     618.7091     556.6334
   1424.63867     618.4996     558.2936   1424.63867     618.4996     558.2936
   1424.62341     617.9159     557.4495   1424.62341     617.9159     557.4495
   1424.60815     619.1218     558.8530   1424.60815     619.1218     558.8530
   1424.59290     618.4324     559.8419   1424.59290     618.4324     559.8419
   1424.57764     618.5749     559.4960   1424.57764     618.5749     559.4960
   1424.56238     618.7914     560.6552   1424.56238     618.7914     560.6552
   1424.54712     617.9430     561.4620   1424.54712     617.9430     561.4620
   1424.53186     618.8923     562.3152   1424.53186     618.8923     562.3152
   1424.51660     619.0804     563.3666   1424.51660     619.0804     563.3666
   1424.50134     619.6196     563.6694   1424.50134     619.6196     563.6694
   1424.48608     619.0204     564.4025   1424.48608     619.0204     564.4025
   1424.47083     619.3125     565.4893   1424.47083     619.3125     565.4893
   1424.45557     619.3489     566.3686   1424.45557     619.3489     566.3686
   1424.44031     619.1119     567.6942   1424.44031     619.1119     567.6942
   1424.42505     619.4456     566.9063   1424.42505     619.4456     566.9063
   1424.40979     619.2079     568.2747   1424.40979     619.2079     568.2747
   1424.39453     618.7947     569.0943   1424.39453     618.7947     569.0943
   1424.37927     618.6874     569.7103   1424.37927     618.6874     569.7103
   1424.36401     618.8692     570.5580   1424.36401     618.8692     570.5580
   1424.34875     618.5754     570.9019   1424.34875     618.5754     570.9019
   1424.33350     619.3859     571.0746   1424.33350     619.3859     571.0746
   1424.31824     620.0692     571.9719   1424.31824     620.0692     571.9719
   1424.30298     619.0974     573.1296   1424.30298     619.0974     573.1296
   1424.28772     618.8594     573.1523   1424.28772     618.8594     573.1523
   1424.27246     618.2578     573.5016   1424.27246     618.2578     573.5016
   1424.25720     617.6228     573.7618   1424.25720     617.6228     573.7618
   1424.24194     618.0267     574.5286   1424.24194     618.0267     574.5286
   1424.22668     618.2466     575.6969   1424.22668     618.2466     575.6969
   1424.21143     618.1569     576.4796   1424.21143     618.1569     576.4796
   1424.19617     617.9556     577.0537   1424.19617     617.9556     577.0537
   1424.18091     617.8575     577.0721   1424.18091     617.8575     577.0721
   1424.16565     618.0644     577.8026   1424.16565     618.0644     577.8026
   1424.15039     616.8839     577.2246   1424.15039     616.8839     577.2246
   1424.13513     618.2118     577.4916   1424.13513     618.2118     577.4916
   1424.11987     616.9819     578.1395   1424.11987     616.9819     578.1395
   1424.10461     617.3687     579.0849   1424.10461     617.3687     579.0849
   1424.08936     617.4459     579.3049   1424.08936     617.4459     579.3049
   1424.07410     616.4673     580.1957   1424.07410     616.4673     580.1957
   1424.05884     617.1832     580.1275   1424.05884     617.1832     580.1275
   1424.04358     617.0352     580.5214   1424.04358     617.0352     580.5214
   1424.02832     617.0219     581.3900   1424.02832     617.0219     581.3900
   1424.01306     616.3353     581.3578   1424.01306     616.3353     581.3578
   1423.99780     615.7769     581.8630   1423.99780     615.7769     581.8630
   1423.98254     616.0945     581.3582   1423.98254     616.0945     581.3582
   1423.96729     616.4308     582.3953   1423.96729     616.4308     582.3953
   1423.95203     615.6356     583.1180   1423.95203     615.6356     583.1180
   1423.93677     616.1008     582.5389   1423.93677     616.1008     582.5389
   1423.92151     616.2874     582.2830   1423.92151     616.2874     582.2830
   1423.90625     615.4783     582.8276   1423.90625     615.4783     582.8276
   1423.89099     614.5364     583.5038   1423.89099     614.5364     583.5038
   1423.87573     614.5557     584.6895   1423.87573     614.5557     584.6895
   1423.86047     615.0659     584.2314   1423.86047     615.0659     584.2314
   1423.84521     615.0576     582.8145   1423.84521     615.0576     582.8145
   1423.82996     614.7205     584.0801   1423.82996     614.7205     584.0801
   1423.81470     613.5203     584.6130   1423.81470     613.5203     584.6130
   1423.79944     614.2397     585.8411   1423.79944     614.2397     585.8411
   1423.78418     613.1044     583.6455   1423.78418     613.1044     583.6455
   1423.76892     614.2567     584.8890   1423.76892     614.2567     584.8890
   1423.75366     613.0157     585.2842   1423.75366     613.0157     585.2842
   1423.73840     614.0665     585.5872   1423.73840     614.0665     585.5872
   1423.72314     612.5414     585.3449   1423.72314     612.5414     585.3449
   1423.70789     612.3425     585.6995   1423.70789     612.3425     585.6995
   1423.69263     612.0334     584.8085   1423.69263     612.0334     584.8085
   1423.67737     612.4125     584.8435   1423.67737     612.4125     584.8435
   1423.66211     612.2101     584.8627   1423.66211     612.2101     584.8627
   1423.64685     612.2708     584.9456   1423.64685     612.2708     584.9456
   1423.63159     611.4537     584.9334   1423.63159     611.4537     584.9334
   1423.61633     612.1106     585.1136   1423.61633     612.1106     585.1136
   1423.60107     612.3149     584.1365   1423.60107     612.3149     584.1365
   1423.58582     610.5741     584.6263   1423.58582     610.5741     584.6263
   1423.57056     611.4410     585.2934   1423.57056     611.4410     585.2934
   1423.55530     611.2812     584.9778   1423.55530     611.2812     584.9778
   1423.54004     610.5620     584.3001   1423.54004     610.5620     584.3001
   1423.52478     609.7043     584.4009   1423.52478     609.7043     584.4009
   1423.50952     610.0197     585.2057   1423.50952     610.0197     585.2057
   1423.49426     610.3499     583.8519   1423.49426     610.3499     583.8519
   1423.47900     609.4111     584.1677   1423.47900     609.4111     584.1677
   1423.46375     609.2662     583.9365   1423.46375     609.2662     583.9365
   1423.44849     609.8095     583.7939   1423.44849     609.8095     583.7939
   1423.43323     609.2875     582.6027   1423.43323     609.2875     582.6027
   1423.41797     608.7154     583.7857   1423.41797     608.7154     583.7857
   1423.40271     608.7231     582.8275   1423.40271     608.7231     582.8275
   1423.38745     608.5322     582.0701   1423.38745     608.5322     582.0701
   1423.37219     608.5462     583.1573   1423.37219     608.5462     583.1573
   1423.35693     607.5909     581.4489   1423.35693     607.5909     581.4489
   1423.34167     607.9260     581.2146   1423.34167     607.9260     581.2146
   1423.32642     607.3569     581.7406   1423.32642     607.3569     581.7406
   1423.31116     607.5984     580.5234   1423.31116     607.5984     580.5234
   1423.29590     607.2218     580.0538   1423.29590     607.2218     580.0538
   1423.28064     607.8462     579.9694   1423.28064     607.8462     579.9694
   1423.26538     606.5294     579.3139   1423.26538     606.5294     579.3139
   1423.25012     606.8890     578.2669   1423.25012     606.8890     578.2669
   1423.23486     606.5311     579.1203   1423.23486     606.5311     579.1203
   1423.21960     605.6254     578.0758   1423.21960     605.6254     578.0758
   1423.20435     605.4923     578.2973   1423.20435     605.4923     578.2973
   1423.18909     605.6753     577.5390   1423.18909     605.6753     577.5390
   1423.17383     604.3313     576.3823   1423.17383     604.3313     576.3823
   1423.15857     605.0339     575.8069   1423.15857     605.0339     575.8069
   1423.14331     605.1168     574.3479   1423.14331     605.1168     574.3479
   1423.12805     604.8765     574.3499   1423.12805     604.8765     574.3499
   1423.11279     604.9413     575.6317   1423.11279     604.9413     575.6317
   1423.09753     604.8222     574.0224   1423.09753     604.8222     574.0224
   1423.08228     603.5416     572.8114   1423.08228     603.5416     572.8114
   1423.06702     603.2896     572.0205   1423.06702     603.2896     572.0205
   1423.05176     603.1967     572.9597   1423.05176     603.1967     572.9597
   1423.03650     602.8940     571.1295   1423.03650     602.8940     571.1295
   1423.02124     603.9631     570.3847   1423.02124     603.9631     570.3847
   1423.00598     603.1692     569.4819   1423.00598     603.1692     569.4819
   1422.99072     602.2662     568.9501   1422.99072     602.2662     568.9501
   1422.97546     602.3255     568.3012   1422.97546     602.3255     568.3012
   1422.96021     601.9505     566.4775   1422.96021     601.9505     566.4775
   1422.94495     601.4978     566.0923   1422.94495     601.4978     566.0923
   1422.92969     602.1804     564.3984   1422.92969     602.1804     564.3984
   1422.91443     601.7098     563.6964   1422.91443     601.7098     563.6964
   1422.89917     601.4203     564.0880   1422.89917     601.4203     564.0880
   1422.88391     601.6722     562.7916   1422.88391     601.6722     562.7916
   1422.86865     600.1613     561.4567   1422.86865     600.1613     561.4567
   1422.85339     600.4550     561.2269   1422.85339     600.4550     561.2269
   1422.83813     600.6212     560.6670   1422.83813     600.6212     560.6670
   1422.82288     601.0694     559.7363   1422.82288     601.0694     559.7363
   1422.80762     599.5879     559.1940   1422.80762     599.5879     559.1940
   1422.79236     599.2208     557.9350   1422.79236     599.2208     557.9350
   1422.77710     600.0580     557.2550   1422.77710     600.0580     557.2550
   1422.76184     598.9161     556.0868   1422.76184     598.9161     556.0868
   1422.74658     599.1246     554.4424   1422.74658     599.1246     554.4424
   1422.73132     598.6736     553.9922   1422.73132     598.6736     553.9922
   1422.71606     599.1365     553.7795   1422.71606     599.1365     553.7795
   1422.70081     598.9716     551.9822   1422.70081     598.9716     551.9822
   1422.68555     598.6177     550.5238   1422.68555     598.6177     550.5238
   1422.67029     598.1514     549.6715   1422.67029     598.1514     549.6715
   1422.65503     598.1117     550.0790   1422.65503     598.1117     550.0790
   1422.63977     597.6081     548.6797   1422.63977     597.6081     548.6797
   1422.62451     596.9291     546.6090   1422.62451     596.9291     546.6090
   1422.60925     597.8468     545.9094   1422.60925     597.8468     545.9094
   1422.59399     596.4692     545.1989   1422.59399     596.4692     545.1989
   1422.57874     597.3267     544.0203   1422.57874     597.3267     544.0203
   1422.56348     596.9316     542.5297   1422.56348     596.9316     542.5297
   1422.54822     596.1860     541.1586   1422.54822     596.1860     541.1586
   1422.53296     595.6420     539.9490   1422.53296     595.6420     539.9490
   1422.51770     595.3594     538.7691   1422.51770     595.3594     538.7691
   1422.50244     596.9830     537.7009   1422.50244     596.9830     537.7009
   1422.48718     595.3671     537.3517   1422.48718     595.3671     537.3517
   1422.47192     595.6504     535.5049   1422.47192     595.6504     535.5049
   1422.45667     594.6470     534.6360   1422.45667     594.6470     534.6360
   1422.44141     595.2787     532.8909   1422.44141     595.2787     532.8909
   1422.42615     594.0677     531.7712   1422.42615     594.0677     531.7712
   1422.41089     594.4985     530.7426   1422.41089     594.4985     530.7426
   1422.39563     593.4738     528.5040   1422.39563     593.4738     528.5040
   1422.38037     594.4282     528.1035   1422.38037     594.4282     528.1035
   1422.36511     593.1364     527.3722   1422.36511     593.1364     527.3722
   1422.34985     593.7027     525.9479   1422.34985     593.7027     525.9479
   1422.33459     593.5109     525.1212   1422.33459     593.5109     525.1212
   1422.31934     593.5257     523.0946   1422.31934     593.5257     523.0946
   1422.30408     593.4532     522.2156   1422.30408     593.4532     522.2156
   1422.28882     592.8053     521.1097   1422.28882     592.8053     521.1097
   1422.27356     592.8464     520.1944   1422.27356     592.8464     520.1944
   1422.25830     593.2049     518.4254   1422.25830     593.2049     518.4254
   1422.24304     592.0726     517.4492   1422.24304     592.0726     517.4492
   1422.22778     592.2529     516.5003   1422.22778     592.2529     516.5003
   1422.21252     591.8384     515.1508   1422.21252     591.8384     515.1508
   1422.19727     591.9070     513.7883   1422.19727     591.9070     513.7883
   1422.18201     592.1185     512.7252   1422.18201     592.1185     512.7252
   1422.16675     591.9330     511.4187   1422.16675     591.9330     511.4187
   1422.15149     591.1750     510.8192   1422.15149     591.1750     510.8192
   1422.13623     591.1749     508.5355   1422.13623     591.1749     508.5355
   1422.12097     590.8279     507.5808   1422.12097     590.8279     507.5808
   1422.10571     590.2410     506.0776   1422.10571     590.2410     506.0776
   1422.09045     590.1889     504.8534   1422.09045     590.1889     504.8534
   1422.07520     590.0289     504.3961   1422.07520     590.0289     504.3961
   1422.05994     589.4589     502.7184   1422.05994     589.4589     502.7184
   1422.04468     589.2769     500.1179   1422.04468     589.2769     500.1179
   1422.02942     588.9932     499.4707   1422.02942     588.9932     499.4707
   1422.01416     588.9890     499.1503   1422.01416     588.9890     499.1503
   1421.99890     588.6876     497.4032   1421.99890     588.6876     497.4032
   1421.98364     588.5599     496.1498   1421.98364     588.5599     496.1498
   1421.96838     588.9893     494.8542   1421.96838     588.9893     494.8542
   1421.95312     589.0052     493.4183   1421.95312     589.0052     493.4183
   1421.93787     588.7926     492.9358   1421.93787     588.7926     492.9358
   1421.92261     585.8796     491.2961   1421.92261     585.8796     491.2961
   1421.90735     588.6568     490.3033   1421.90735     588.6568     490.3033
   1421.89209     587.4821     488.5066   1421.89209     587.4821     488.5066
   1421.87683     587.2144     487.7093   1421.87683     587.2144     487.7093
   1421.86157     587.0674     486.0626   1421.86157     587.0674     486.0626
   1421.84631     586.7340     485.6849   1421.84631     586.7340     485.6849
   1421.83105     586.2408     484.4204   1421.83105     586.2408     484.4204
   1421.81580     586.0814     482.0062   1421.81580     586.0814     482.0062
   1421.80054     587.0776     481.9660   1421.80054     587.0776     481.9660
   1421.78528     586.2172     479.5224   1421.78528     586.2172     479.5224
   1421.77002     585.3366     478.1611   1421.77002     585.3366     478.1611
   1421.75476     585.6452     476.9556   1421.75476     585.6452     476.9556
   1421.73950     585.0787     476.3695   1421.73950     585.0787     476.3695
   1421.72424     585.5939     475.6073   1421.72424     585.5939     475.6073
   1421.70898     584.8486     472.7269   1421.70898     584.8486     472.7269
   1421.69373     584.8465     472.1047   1421.69373     584.8465     472.1047
   1421.67847     584.1169     470.8611   1421.67847     584.1169     470.8611
   1421.66321     584.7386     469.5084   1421.66321     584.7386     469.5084
   1421.64795     584.2369     468.3282   1421.64795     584.2369     468.3282
   1421.63269     584.0786     467.7205   1421.63269     584.0786     467.7205
   1421.61743     584.2850     467.0345   1421.61743     584.2850     467.0345
   1421.60217     583.9033     464.7325   1421.60217     583.9033     464.7325
   1421.58691     583.8242     463.6551   1421.58691     583.8242     463.6551
   1421.57166     583.6923     462.7166   1421.57166     583.6923     462.7166
   1421.55640     582.8485     461.3919   1421.55640     582.8485     461.3919
   1421.54114     582.5228     459.8075   1421.54114     582.5228     459.8075
   1421.52588     582.0552     458.9216   1421.52588     582.0552     458.9216
   1421.51062     583.0217     457.6526   1421.51062     583.0217     457.6526
   1421.49536     582.6797     456.5035   1421.49536     582.6797     456.5035
   1421.48010     582.6463     455.1664   1421.48010     582.6463     455.1664
   1421.46484     581.6631     454.6275   1421.46484     581.6631     454.6275
   1421.44958     581.3870     452.9868   1421.44958     581.3870     452.9868
   1421.43433     581.5615     451.9586   1421.43433     581.5615     451.9586
   1421.41907     580.8331     450.2757   1421.41907     580.8331     450.2757
   1421.40381     580.9376     449.4887   1421.40381     580.9376     449.4887
   1421.38855     580.6590     447.8330   1421.38855     580.6590     447.8330
   1421.37329     580.1858     447.2423   1421.37329     580.1858     447.2423
   1421.35803     581.0787     445.0869   1421.35803     581.0787     445.0869
   1421.34277     580.5046     444.9561   1421.34277     580.5046     444.9561
   1421.32751     580.1608     443.0954   1421.32751     580.1608     443.0954
   1421.31226     579.9080     442.4227   1421.31226     579.9080     442.4227
   1421.29700     580.2314     441.6052   1421.29700     580.2314     441.6052
   1421.28174     578.9509     439.7243   1421.28174     578.9509     439.7243
   1421.26648     579.4194     439.3045   1421.26648     579.4194     439.3045
   1421.25122     579.1207     437.0562   1421.25122     579.1207     437.0562
   1421.23596     578.8575     436.3670   1421.23596     578.8575     436.3670
   1421.22070     577.8292     436.2563   1421.22070     577.8292     436.2563
   1421.20544     579.2781     434.4974   1421.20544     579.2781     434.4974
   1421.19019     577.1583     433.1317   1421.19019     577.1583     433.1317
   1421.17493     578.2014     431.8177   1421.17493     578.2014     431.8177
   1421.15967     576.8645     430.3488   1421.15967     576.8645     430.3488
   1421.14441     577.5110     429.9649   1421.14441     577.5110     429.9649
   1421.12915     576.8704     428.7772   1421.12915     576.8704     428.7772
   1421.11389     577.7886     428.0857   1421.11389     577.7886     428.0857
   1421.09863     577.0037     426.3203   1421.09863     577.0037     426.3203
   1421.08337     576.2223     425.9106   1421.08337     576.2223     425.9106
   1421.06812     576.0491     424.9135   1421.06812     576.0491     424.9135
   1421.05286     577.2995     423.1950   1421.05286     577.2995     423.1950
   1421.03760     576.0905     422.6550   1421.03760     576.0905     422.6550
   1421.02234     575.0608     421.2477   1421.02234     575.0608     421.2477
   1421.00708     575.9315     420.9064   1421.00708     575.9315     420.9064
   1420.99182     575.0158     419.1909   1420.99182     575.0158     419.1909
   1420.97656     575.0522     419.1313   1420.97656     575.0522     419.1313
   1420.96130     575.6479     418.3031   1420.96130     575.6479     418.3031
   1420.94604     574.9980     416.0092   1420.94604     574.9980     416.0092
   1420.93079     574.6688     415.6777   1420.93079     574.6688     415.6777
   1420.91553     574.7878     414.7404   1420.91553     574.7878     414.7404
   1420.90027     574.4628     413.9624   1420.90027     574.4628     413.9624
   1420.88501     573.7507     412.6737   1420.88501     573.7507     412.6737
   1420.86975     574.2236     412.2547   1420.86975     574.2236     412.2547
   1420.85449     574.9579     411.2820   1420.85449     574.9579     411.2820
   1420.83923     574.2074     410.2557   1420.83923     574.2074     410.2557
   1420.82397     574.1469     409.5063   1420.82397     574.1469     409.5063
   1420.80872     573.2704     408.8293   1420.80872     573.2704     408.8293
   1420.79346     574.8173     407.8377   1420.79346     574.8173     407.8377
   1420.77820     574.1884     406.9553   1420.77820     574.1884     406.9553
   1420.76294     574.3590     406.1994   1420.76294     574.3590     406.1994
   1420.74768     574.3470     405.6136   1420.74768     574.3470     405.6136
   1420.73242     573.3962     404.0399   1420.73242     573.3962     404.0399
   1420.71716     573.6786     403.8352   1420.71716     573.6786     403.8352
   1420.70190     573.3755     403.0056   1420.70190     573.3755     403.0056
   1420.68665     573.8041     401.6537   1420.68665     573.8041     401.6537
   1420.67139     572.6725     401.3342   1420.67139     572.6725     401.3342
   1420.65613     572.2974     400.3684   1420.65613     572.2974     400.3684
   1420.64087     572.8978     398.7601   1420.64087     572.8978     398.7601
   1420.62561     572.8003     399.2379   1420.62561     572.8003     399.2379
   1420.61035     572.8586     397.7434   1420.61035     572.8586     397.7434
   1420.59509     573.1710     397.2427   1420.59509     573.1710     397.2427
   1420.57983     573.9072     396.7417   1420.57983     573.9072     396.7417
   1420.56458     573.1043     395.7390   1420.56458     573.1043     395.7390
   1420.54932     573.9117     396.0385   1420.54932     573.9117     396.0385
   1420.53406     575.1665     395.6085   1420.53406     575.1665     395.6085
   1420.51880     575.4659     395.1359   1420.51880     575.4659     395.1359
   1420.50354     575.8126     394.0621   1420.50354     575.8126     394.0621
   1420.48828     576.6523     394.0380   1420.48828     576.6523     394.0380
   1420.47302     575.5262     392.4681   1420.47302     575.5262     392.4681
   1420.45776     575.8582     392.4717   1420.45776     575.8582     392.4717
   1420.44250     575.3406     391.1014   1420.44250     575.3406     391.1014
   1420.42725     574.9514     389.8952   1420.42725     574.9514     389.8952
   1420.41199     573.8104     389.4667   1420.41199     573.8104     389.4667
   1420.39673     574.7076     387.8167   1420.39673     574.7076     387.8167
   1420.38147     573.1126     387.0181   1420.38147     573.1126     387.0181
   1420.36621     573.3291     386.9235   1420.36621     573.3291     386.9235
   1420.35095     573.5804     386.0399   1420.35095     573.5804     386.0399
   1420.33569     573.9412     386.4601   1420.33569     573.9412     386.4601
   1420.32043     574.3618     386.0960   1420.32043     574.3618     386.0960
   1420.30518     576.7524     386.8835   1420.30518     576.7524     386.8835
   1420.28992     579.1196     387.7849   1420.28992     579.1196     387.7849
   1420.27466     586.1477     391.8305   1420.27466     586.1477     391.8305
   1420.25940     605.1937     403.5293   1420.25940     605.1937     403.5293
   1420.24414     642.8221     427.8503   1420.24414     642.8221     427.8503
   1420.22888     680.2085     449.6115   1420.22888     680.2085     449.6115
   1420.21362     697.8346     460.6955   1420.21362     697.8346     460.6955
   1420.19836     709.2731     467.3027   1420.19836     709.2731     467.3027
   1420.18311     783.3926     514.6295   1420.18311     783.3926     514.6295
   1420.16785     988.7589     644.4659   1420.16785     988.7589     644.4659
   1420.15259    1237.8186     796.9808   1420.15259    1237.8186     796.9808
   1420.13733    1369.6403     880.1429   1420.13733    1369.6403     880.1429
   1420.12207    1154.6882     744.4143   1420.12207    1154.6882     744.4143
   1420.10681     859.8808     557.0981   1420.10681     859.8808     557.0981
   1420.09155     711.0992     464.1422   1420.09155     711.0992     464.1422
   1420.07629     660.2066     430.7335   1420.07629     660.2066     430.7335
   1420.06104     627.6853     408.6411   1420.06104     627.6853     408.6411
   1420.04578     607.8593     396.3433   1420.04578     607.8593     396.3433
   1420.03052     613.3596     399.7753   1420.03052     613.3596     399.7753
   1420.01526     646.1498     417.7808   1420.01526     646.1498     417.7808
   1420.00000     738.9067     476.0242   1420.00000     738.9067     476.0242
   1419.98474     831.6636     534.2675   1419.98474     831.6636     534.2675
   1419.96948     996.4470     634.3889   1419.96948     996.4470     634.3889
   1419.95422    1197.1161     757.3076   1419.95422    1197.1161     757.3076
   1419.93896    1311.6906     828.2634   1419.93896    1311.6906     828.2634
   1419.92371    1262.8854     797.7332   1419.92371    1262.8854     797.7332
   1419.90845    1259.0991     795.4881   1419.90845    1259.0991     795.4881
   1419.89319    1150.0236     726.1110   1419.89319    1150.0236     726.1110
   1419.87793    1056.0709     668.6498   1419.87793    1056.0709     668.6498
   1419.86267    1090.9884     688.5031   1419.86267    1090.9884     688.5031
   1419.84741    1061.2610     668.1100   1419.84741    1061.2610     668.1100
   1419.83215     904.6426     572.1016   1419.83215     904.6426     572.1016
   1419.81689     827.5869     523.7136   1419.81689     827.5869     523.7136
   1419.80164     771.3375     489.9453   1419.80164     771.3375     489.9453
   1419.78638     726.7695     461.0132   1419.78638     726.7695     461.0132
   1419.77112     694.4662     439.9251   1419.77112     694.4662     439.9251
   1419.75586     673.8285     427.0224   1419.75586     673.8285     427.0224
   1419.74060     666.8194     422.1489   1419.74060     666.8194     422.1489
   1419.72534     655.6509     415.7372   1419.72534     655.6509     415.7372
   1419.71008     645.5125     407.4188   1419.71008     645.5125     407.4188
   1419.69482     636.6175     402.7761   1419.69482     636.6175     402.7761
   1419.67957     629.1485     398.5510   1419.67957     629.1485     398.5510
   1419.66431     623.1652     393.8460   1419.66431     623.1652     393.8460
   1419.64905     617.5840     390.2764   1419.64905     617.5840     390.2764
   1419.63379     612.5304     387.1888   1419.63379     612.5304     387.1888
   1419.61853     602.7851     380.8518   1419.61853     602.7851     380.8518
   1419.60327     593.2671     373.8472   1419.60327     593.2671     373.8472
   1419.58801     584.1321     368.0175   1419.58801     584.1321     368.0175
   1419.57275     578.4601     363.8270   1419.57275     578.4601     363.8270
   1419.55750     573.7293     361.5444   1419.55750     573.7293     361.5444
   1419.54224     571.8324     359.8546   1419.54224     571.8324     359.8546
   1419.52698     571.3327     358.8895   1419.52698     571.3327     358.8895
   1419.51172     570.0234     358.1506   1419.51172     570.0234     358.1506
   1419.49646     570.0236     357.2588   1419.49646     570.0236     357.2588
   1419.48120     569.8575     357.4240   1419.48120     569.8575     357.4240
   1419.46594     570.7803     357.0041   1419.46594     570.7803     357.0041
   1419.45068     570.1392     356.3738   1419.45068     570.1392     356.3738
   1419.43542     570.4351     356.8596   1419.43542     570.4351     356.8596
   1419.42017     570.5771     356.8354   1419.42017     570.5771     356.8354
   1419.40491     570.2534     356.1642   1419.40491     570.2534     356.1642
   1419.38965     570.7622     355.5638   1419.38965     570.7622     355.5638
   1419.37439     571.2015     355.4322   1419.37439     571.2015     355.4322
   1419.35913     571.9864     356.3420   1419.35913     571.9864     356.3420
   1419.34387     571.8922     355.0475   1419.34387     571.8922     355.0475
   1419.32861     572.5189     355.6595   1419.32861     572.5189     355.6595
   1419.31335     571.3929     355.2606   1419.31335     571.3929     355.2606
   1419.29810     572.1855     354.8668   1419.29810     572.1855     354.8668
   1419.28284     573.1313     355.5243   1419.28284     573.1313     355.5243
   1419.26758     573.0674     355.4282   1419.26758     573.0674     355.4282
   1419.25232     573.6246     355.0613   1419.25232     573.6246     355.0613
   1419.23706     573.2271     355.4619   1419.23706     573.2271     355.4619
   1419.22180     574.7136     354.9723   1419.22180     574.7136     354.9723
   1419.20654     573.5818     354.9575   1419.20654     573.5818     354.9575
   1419.19128     574.5143     354.9138   1419.19128     574.5143     354.9138
   1419.17603     574.4540     354.7549   1419.17603     574.4540     354.7549
   1419.16077     575.9714     355.1021   1419.16077     575.9714     355.1021
   1419.14551     575.6393     354.9698   1419.14551     575.6393     354.9698
   1419.13025     575.8567     354.6397   1419.13025     575.8567     354.6397
   1419.11499     576.8619     354.7762   1419.11499     576.8619     354.7762
   1419.09973     577.3591     354.6616   1419.09973     577.3591     354.6616
   1419.08447     577.7106     354.7997   1419.08447     577.7106     354.7997
   1419.06921     578.7262     355.0974   1419.06921     578.7262     355.0974
   1419.05396     578.6708     355.0473   1419.05396     578.6708     355.0473
   1419.03870     579.0713     355.3965   1419.03870     579.0713     355.3965
   1419.02344     578.8271     355.3242   1419.02344     578.8271     355.3242
   1419.00818     580.2170     354.8929   1419.00818     580.2170     354.8929
   1418.99292     579.9280     355.9012   1418.99292     579.9280     355.9012
   1418.97766     580.4662     355.6360   1418.97766     580.4662     355.6360
   1418.96240     581.1510     355.6301   1418.96240     581.1510     355.6301
   1418.94714     582.2446     355.7067   1418.94714     582.2446     355.7067
   1418.93188     582.6562     355.4302   1418.93188     582.6562     355.4302
   1418.91663     582.4695     355.8291   1418.91663     582.4695     355.8291
   1418.90137     583.9219     356.5657   1418.90137     583.9219     356.5657
   1418.88611     583.8792     355.6587   1418.88611     583.8792     355.6587
   1418.87085     583.8201     356.0372   1418.87085     583.8201     356.0372
   1418.85559     584.8483     355.9721   1418.85559     584.8483     355.9721
   1418.84033     585.7071     356.8195   1418.84033     585.7071     356.8195
   1418.82507     586.4542     356.7607   1418.82507     586.4542     356.7607
   1418.80981     585.5453     357.3540   1418.80981     585.5453     357.3540
   1418.79456     587.7343     357.7083   1418.79456     587.7343     357.7083
   1418.77930     587.6854     357.3187   1418.77930     587.6854     357.3187
   1418.76404     588.8835     358.0238   1418.76404     588.8835     358.0238
   1418.74878     588.7842     358.2072   1418.74878     588.7842     358.2072
   1418.73352     590.5826     358.2256   1418.73352     590.5826     358.2256
   1418.71826     590.8750     358.9930   1418.71826     590.8750     358.9930
   1418.70300     590.9709     358.3433   1418.70300     590.9709     358.3433
   1418.68774     591.6293     358.9165   1418.68774     591.6293     358.9165
   1418.67249     592.0654     359.0590   1418.67249     592.0654     359.0590
   1418.65723     593.1429     359.6818   1418.65723     593.1429     359.6818
   1418.64197     592.6514     359.7510   1418.64197     592.6514     359.7510
   1418.62671     594.6203     360.0923   1418.62671     594.6203     360.0923
   1418.61145     595.4948     360.8974   1418.61145     595.4948     360.8974
   1418.59619     596.1270     360.9814   1418.59619     596.1270     360.9814
   1418.58093     596.2092     360.8335   1418.58093     596.2092     360.8335
   1418.56567     597.1933     361.1969   1418.56567     597.1933     361.1969
   1418.55042     597.6273     361.4897   1418.55042     597.6273     361.4897
   1418.53516     599.0130     361.9203   1418.53516     599.0130     361.9203
   1418.51990     599.2599     362.2257   1418.51990     599.2599     362.2257
   1418.50464     600.0857     362.3624   1418.50464     600.0857     362.3624
   1418.48938     600.9644     362.5845   1418.48938     600.9644     362.5845
   1418.47412     601.9001     363.3843   1418.47412     601.9001     363.3843
   1418.45886     601.8725     363.9494   1418.45886     601.8725     363.9494
   1418.44360     603.0170     364.2990   1418.44360     603.0170     364.2990
   1418.42834     603.4802     364.2660   1418.42834     603.4802     364.2660
   1418.41309     605.5073     364.5665   1418.41309     605.5073     364.5665
   1418.39783     605.5455     365.4872   1418.39783     605.5455     365.4872
   1418.38257     607.7727     366.0451   1418.38257     607.7727     366.0451
   1418.36731     607.3962     366.2270   1418.36731     607.3962     366.2270
   1418.35205     607.3669     366.7181   1418.35205     607.3669     366.7181
   1418.33679     608.9416     366.2834   1418.33679     608.9416     366.2834
   1418.32153     610.5898     367.6325   1418.32153     610.5898     367.6325
   1418.30627     610.0646     367.6429   1418.30627     610.0646     367.6429
   1418.29102     611.4808     368.0458   1418.29102     611.4808     368.0458
   1418.27576     612.3018     368.7896   1418.27576     612.3018     368.7896
   1418.26050     613.8084     369.4839   1418.26050     613.8084     369.4839
   1418.24524     614.9520     369.2598   1418.24524     614.9520     369.2598
   1418.22998     615.3137     370.0638   1418.22998     615.3137     370.0638
   1418.21472     615.4158     370.2657   1418.21472     615.4158     370.2657
   1418.19946     617.3975     370.7024   1418.19946     617.3975     370.7024
   1418.18420     617.7932     371.0290   1418.18420     617.7932     371.0290
   1418.16895     619.1848     371.3647   1418.16895     619.1848     371.3647
   1418.15369     619.2890     372.1502   1418.15369     619.2890     372.1502
   1418.13843     621.0671     372.8720   1418.13843     621.0671     372.8720
   1418.12317     621.4261     373.1841   1418.12317     621.4261     373.1841
   1418.10791     623.0557     373.8492   1418.10791     623.0557     373.8492
   1418.09265     624.0345     373.8763   1418.09265     624.0345     373.8763
   1418.07739     625.2333     374.9696   1418.07739     625.2333     374.9696
   1418.06213     624.1973     375.4032   1418.06213     624.1973     375.4032
   1418.04688     626.8581     375.7554   1418.04688     626.8581     375.7554
   1418.03162     627.4100     375.9801   1418.03162     627.4100     375.9801
   1418.01636     628.9397     376.3258   1418.01636     628.9397     376.3258
   1418.00110     628.8610     376.8404   1418.00110     628.8610     376.8404
   1417.98584     630.4551     377.5922   1417.98584     630.4551     377.5922
   1417.97058     632.4163     378.8008   1417.97058     632.4163     378.8008
   1417.95532     632.2382     379.2693   1417.95532     632.2382     379.2693
   1417.94006     633.6228     379.6278   1417.94006     633.6228     379.6278
   1417.92480     634.7390     379.8760   1417.92480     634.7390     379.8760
   1417.90955     635.9126     380.3498   1417.90955     635.9126     380.3498
   1417.89429     636.2728     380.9125   1417.89429     636.2728     380.9125
   1417.87903     637.8961     381.7807   1417.87903     637.8961     381.7807
   1417.86377     638.6716     381.7379   1417.86377     638.6716     381.7379
   1417.84851     640.1389     382.9395   1417.84851     640.1389     382.9395
   1417.83325     640.6951     383.5473   1417.83325     640.6951     383.5473
   1417.81799     641.4309     383.7400   1417.81799     641.4309     383.7400
   1417.80273     642.6282     384.1469   1417.80273     642.6282     384.1469
   1417.78748     642.9430     384.6618   1417.78748     642.9430     384.6618
   1417.77222     645.6489     385.0330   1417.77222     645.6489     385.0330
   1417.75696     647.0346     385.5319   1417.75696     647.0346     385.5319
   1417.74170     646.3366     386.5921   1417.74170     646.3366     386.5921
   1417.72644     647.4933     387.0729   1417.72644     647.4933     387.0729
   1417.71118     648.9802     387.4829   1417.71118     648.9802     387.4829
   1417.69592     650.2930     388.7519   1417.69592     650.2930     388.7519
   1417.68066     650.3676     388.6779   1417.68066     650.3676     388.6779
   1417.66541     651.5994     389.7210   1417.66541     651.5994     389.7210
   1417.65015     653.2982     389.9180   1417.65015     653.2982     389.9180
   1417.63489     654.0657     390.4826   1417.63489     654.0657     390.4826
   1417.61963     655.0985     391.2349   1417.61963     655.0985     391.2349
   1417.60437     656.5857     391.7046   1417.60437     656.5857     391.7046
   1417.58911     658.2479     392.6134   1417.58911     658.2479     392.6134
   1417.57385     657.1096     393.2413   1417.57385     657.1096     393.2413
   1417.55859     658.8809     393.8007   1417.55859     658.8809     393.8007
   1417.54333     660.4752     394.3718   1417.54333     660.4752     394.3718
   1417.52808     663.2355     394.7978   1417.52808     663.2355     394.7978
   1417.51282     662.8390     395.5467   1417.51282     662.8390     395.5467
   1417.49756     664.5934     395.7752   1417.49756     664.5934     395.7752
   1417.48230     664.2586     396.1888   1417.48230     664.2586     396.1888
   1417.46704     665.6832     396.7813   1417.46704     665.6832     396.7813
   1417.45178     667.6272     397.7490   1417.45178     667.6272     397.7490
   1417.43652     668.1639     398.9802   1417.43652     668.1639     398.9802
   1417.42126     669.1064     398.7271   1417.42126     669.1064     398.7271
   1417.40601     669.6581     399.1742   1417.40601     669.6581     399.1742
   1417.39075     669.5847     400.2175   1417.39075     669.5847     400.2175
   1417.37549     672.5848     401.3105   1417.37549     672.5848     401.3105
   1417.36023     672.8554     401.6148   1417.36023     672.8554     401.6148
   1417.34497     673.1091     401.2229   1417.34497     673.1091     401.2229
   1417.32971     674.7726     402.0753   1417.32971     674.7726     402.0753
   1417.31445     676.2307     403.5252   1417.31445     676.2307     403.5252
   1417.29919     677.0973     403.2837   1417.29919     677.0973     403.2837
   1417.28394     678.2836     404.9915   1417.28394     678.2836     404.9915
   1417.26868     678.0792     404.7309   1417.26868     678.0792     404.7309
   1417.25342     679.6731     405.1191   1417.25342     679.6731     405.1191
   1417.23816     678.8961     405.2986   1417.23816     678.8961     405.2986
   1417.22290     681.8306     407.5602   1417.22290     681.8306     407.5602
   1417.20764     682.1328     406.9192   1417.20764     682.1328     406.9192
   1417.19238     682.3854     407.1638   1417.19238     682.3854     407.1638
   1417.17712     683.9159     408.6234   1417.17712     683.9159     408.6234
   1417.16187     683.8350     408.8374   1417.16187     683.8350     408.8374
   1417.14661     686.3142     409.3071   1417.14661     686.3142     409.3071
   1417.13135     686.5796     409.9138   1417.13135     686.5796     409.9138
   1417.11609     687.5305     409.7815   1417.11609     687.5305     409.7815
   1417.10083     688.7584     410.5374   1417.10083     688.7584     410.5374
   1417.08557     688.5213     410.8948   1417.08557     688.5213     410.8948
   1417.07031     690.3793     411.2849   1417.07031     690.3793     411.2849
   1417.05505     690.8213     411.5856   1417.05505     690.8213     411.5856
   1417.03979     692.1879     412.6302   1417.03979     692.1879     412.6302
   1417.02454     692.3577     412.8298   1417.02454     692.3577     412.8298
   1417.00928     692.6406     414.0099   1417.00928     692.6406     414.0099
   1416.99402     693.7491     414.2590   1416.99402     693.7491     414.2590
   1416.97876     695.8031     414.5586   1416.97876     695.8031     414.5586
   1416.96350     695.7748     414.6949   1416.96350     695.7748     414.6949
   1416.94824     695.9426     415.1085   1416.94824     695.9426     415.1085
   1416.93298     695.2768     415.7911   1416.93298     695.2768     415.7911
   1416.91772     697.0471     416.7097   1416.91772     697.0471     416.7097
   1416.90247     698.2764     416.4872   1416.90247     698.2764     416.4872
   1416.88721     697.5226     416.7918   1416.88721     697.5226     416.7918
   1416.87195     699.8381     416.9303   1416.87195     699.8381     416.9303
   1416.85669     699.4830     418.0843   1416.85669     699.4830     418.0843
   1416.84143     701.4073     418.0226   1416.84143     701.4073     418.0226
   1416.82617     701.6077     418.3224   1416.82617     701.6077     418.3224
   1416.81091     701.6976     418.3362   1416.81091     701.6976     418.3362
   1416.79565     702.0880     419.5018   1416.79565     702.0880     419.5018
   1416.78040     703.2037     419.0100   1416.78040     703.2037     419.0100
   1416.76514     701.2450     419.7043   1416.76514     701.2450     419.7043
   1416.74988     703.0291     420.6969   1416.74988     703.0291     420.6969
   1416.73462     703.7418     420.2253   1416.73462     703.7418     420.2253
   1416.71936     704.6760     420.8115   1416.71936     704.6760     420.8115
   1416.70410     704.7305     420.8280   1416.70410     704.7305     420.8280
   1416.68884     704.8715     421.3250   1416.68884     704.8715     421.3250
   1416.67358     703.9792     421.3736   1416.67358     703.9792     421.3736
   1416.65833     704.4294     421.8268   1416.65833     704.4294     421.8268
   1416.64307     704.7499     421.3961   1416.64307     704.7499     421.3961
   1416.62781     706.3580     421.5261   1416.62781     706.3580     421.5261
   1416.61255     706.9779     423.1563   1416.61255     706.9779     423.1563
   1416.59729     708.5322     423.6292   1416.59729     708.5322     423.6292
   1416.58203     706.4587     423.6253   1416.58203     706.4587     423.6253
   1416.56677     707.0904     422.8831   1416.56677     707.0904     422.8831
   1416.55151     706.8895     422.9816   1416.55151     706.8895     422.9816
   1416.53625     706.4143     423.8863   1416.53625     706.4143     423.8863
   1416.52100     707.1852     423.5368   1416.52100     707.1852     423.5368
   1416.50574     706.6445     423.0905   1416.50574     706.6445     423.0905
   1416.49048     706.9913     423.3312   1416.49048     706.9913     423.3312
   1416.47522     707.9096     423.5152   1416.47522     707.9096     423.5152
   1416.45996     708.0935     423.6400   1416.45996     708.0935     423.6400
   1416.44470     706.6634     423.7688   1416.44470     706.6634     423.7688
   1416.42944     707.3633     424.1218   1416.42944     707.3633     424.1218
   1416.41418     709.1131     424.8997   1416.41418     709.1131     424.8997
   1416.39893     706.2136     423.5473   1416.39893     706.2136     423.5473
   1416.38367     706.1682     423.7950   1416.38367     706.1682     423.7950
   1416.36841     706.7421     423.5921   1416.36841     706.7421     423.5921
   1416.35315     706.7148     423.1319   1416.35315     706.7148     423.1319
   1416.33789     707.4582     423.3281   1416.33789     707.4582     423.3281
   1416.32263     705.3314     424.1456   1416.32263     705.3314     424.1456
   1416.30737     706.2011     423.7572   1416.30737     706.2011     423.7572
   1416.29211     705.9855     423.3430   1416.29211     705.9855     423.3430
   1416.27686     703.9682     424.0616   1416.27686     703.9682     424.0616
   1416.26160     705.6411     423.4695   1416.26160     705.6411     423.4695
   1416.24634     704.5507     423.2692   1416.24634     704.5507     423.2692
   1416.23108     705.0215     424.3062   1416.23108     705.0215     424.3062
   1416.21582     706.7507     425.3785   1416.21582     706.7507     425.3785
   1416.20056     703.0524     423.7101   1416.20056     703.0524     423.7101
   1416.18530     703.3661     423.1766   1416.18530     703.3661     423.1766
   1416.17004     702.6547     422.7107   1416.17004     702.6547     422.7107
   1416.15479     703.5513     423.1201   1416.15479     703.5513     423.1201
   1416.13953     701.6925     423.5941   1416.13953     701.6925     423.5941
   1416.12427     702.2355     422.7888   1416.12427     702.2355     422.7888
   1416.10901     701.9974     422.3903   1416.10901     701.9974     422.3903
   1416.09375     701.4512     421.8759   1416.09375     701.4512     421.8759
   1416.07849     701.1318     422.3370   1416.07849     701.1318     422.3370
   1416.06323     700.4656     422.7323   1416.06323     700.4656     422.7323
   1416.04797     700.1036     421.6951   1416.04797     700.1036     421.6951
   1416.03271     699.8613     422.3745   1416.03271     699.8613     422.3745
   1416.01746     698.8940     421.2072   1416.01746     698.8940     421.2072
   1416.00220     698.5830     422.0656   1416.00220     698.5830     422.0656
   1415.98694     697.1006     421.9529   1415.98694     697.1006     421.9529
   1415.97168     697.8052     421.2071   1415.97168     697.8052     421.2071
   1415.95642     696.3328     420.6353   1415.95642     696.3328     420.6353
   1415.94116     696.8656     420.9731   1415.94116     696.8656     420.9731
   1415.92590     695.6479     420.1815   1415.92590     695.6479     420.1815
   1415.91064     694.4831     420.3366   1415.91064     694.4831     420.3366
   1415.89539     695.5295     420.5424   1415.89539     695.5295     420.5424
   1415.88013     693.2256     419.7056   1415.88013     693.2256     419.7056
   1415.86487     692.7803     419.3438   1415.86487     692.7803     419.3438
   1415.84961     692.6169     418.8671   1415.84961     692.6169     418.8671
   1415.83435     693.2305     421.0800   1415.83435     693.2305     421.0800
   1415.81909     690.6904     418.8729   1415.81909     690.6904     418.8729
   1415.80383     689.6996     418.4490   1415.80383     689.6996     418.4490
   1415.78857     688.8128     417.7180   1415.78857     688.8128     417.7180
   1415.77332     689.2444     418.3161   1415.77332     689.2444     418.3161
   1415.75806     687.7667     418.6915   1415.75806     687.7667     418.6915
   1415.74280     686.1501     418.0448   1415.74280     686.1501     418.0448
   1415.72754     685.5715     417.8742   1415.72754     685.5715     417.8742
   1415.71228     685.4658     418.2608   1415.71228     685.4658     418.2608
   1415.69702     683.6655     417.2163   1415.69702     683.6655     417.2163
   1415.68176     683.4382     416.1866   1415.68176     683.4382     416.1866
   1415.66650     683.5587     417.1310   1415.66650     683.5587     417.1310
   1415.65125     682.7401     416.9852   1415.65125     682.7401     416.9852
   1415.63599     681.7850     416.2346   1415.63599     681.7850     416.2346
   1415.62073     681.1312     415.7677   1415.62073     681.1312     415.7677
   1415.60547     679.2709     416.1290   1415.60547     679.2709     416.1290
   1415.59021     678.6754     415.1920   1415.59021     678.6754     415.1920
   1415.57495     677.8513     415.6826   1415.57495     677.8513     415.6826
   1415.55969     677.2073     415.3156   1415.55969     677.2073     415.3156
   1415.54443     676.1201     414.5320   1415.54443     676.1201     414.5320
   1415.52917     675.1888     414.5717   1415.52917     675.1888     414.5717
   1415.51392     674.2486     414.0912   1415.51392     674.2486     414.0912
   1415.49866     673.2503     413.5501   1415.49866     673.2503     413.5501
   1415.48340     671.9642     413.4064   1415.48340     671.9642     413.4064
   1415.46814     671.9314     413.0262   1415.46814     671.9314     413.0262
   1415.45288     673.7972     416.2875   1415.45288     673.7972     416.2875
   1415.43762     668.3456     412.6889   1415.43762     668.3456     412.6889
   1415.42236     668.0337     412.9016   1415.42236     668.0337     412.9016
   1415.40710     666.1846     411.2241   1415.40710     666.1846     411.2241
   1415.39185     665.9582     412.1480   1415.39185     665.9582     412.1480
   1415.37659     664.5374     411.0370   1415.37659     664.5374     411.0370
   1415.36133     663.0704     410.6990   1415.36133     663.0704     410.6990
   1415.34607     663.5536     410.7737   1415.34607     663.5536     410.7737
   1415.33081     660.4576     410.3119   1415.33081     660.4576     410.3119
   1415.31555     660.2930     410.1316   1415.31555     660.2930     410.1316
   1415.30029     658.7259     409.8629   1415.30029     658.7259     409.8629
   1415.28503     658.3010     410.0029   1415.28503     658.3010     410.0029
   1415.26978     657.6557     408.8468   1415.26978     657.6557     408.8468
   1415.25452     655.7331     409.2192   1415.25452     655.7331     409.2192
   1415.23926     654.3623     408.2264   1415.23926     654.3623     408.2264
   1415.22400     653.1345     407.0476   1415.22400     653.1345     407.0476
   1415.20874     652.7541     407.5225   1415.20874     652.7541     407.5225
   1415.19348     650.1688     406.9895   1415.19348     650.1688     406.9895
   1415.17822     651.0787     407.2818   1415.17822     651.0787     407.2818
   1415.16296     647.2125     406.4303   1415.16296     647.2125     406.4303
   1415.14771     647.1219     406.1883   1415.14771     647.1219     406.1883
   1415.13245     645.2695     405.0850   1415.13245     645.2695     405.0850
   1415.11719     644.2571     405.7215   1415.11719     644.2571     405.7215
   1415.10193     642.9321     405.4226   1415.10193     642.9321     405.4226
   1415.08667     641.3347     403.7790   1415.08667     641.3347     403.7790
   1415.07141     639.8872     404.0032   1415.07141     639.8872     404.0032
   1415.05615     637.8749     403.4363   1415.05615     637.8749     403.4363
   1415.04089     636.5693     402.6672   1415.04089     636.5693     402.6672
   1415.02563     636.1292     402.3324   1415.02563     636.1292     402.3324
   1415.01038     633.4127     401.4944   1415.01038     633.4127     401.4944
   1414.99512     634.1246     400.7491   1414.99512     634.1246     400.7491
   1414.97986     630.7634     400.7436   1414.97986     630.7634     400.7436
   1414.96460     629.6785     399.7570   1414.96460     629.6785     399.7570
   1414.94934     628.8958     399.6948   1414.94934     628.8958     399.6948
   1414.93408     626.7035     398.9550   1414.93408     626.7035     398.9550
   1414.91882     624.9115     398.3957   1414.91882     624.9115     398.3957
   1414.90356     623.6162     398.3841   1414.90356     623.6162     398.3841
   1414.88831     620.8641     397.3316   1414.88831     620.8641     397.3316
   1414.87305     620.5575     396.8863   1414.87305     620.5575     396.8863
   1414.85779     618.8060     396.7278   1414.85779     618.8060     396.7278
   1414.84253     616.7175     395.9068   1414.84253     616.7175     395.9068
   1414.82727     615.3145     395.8373   1414.82727     615.3145     395.8373
   1414.81201     613.8255     394.2346   1414.81201     613.8255     394.2346
   1414.79675     611.2322     394.4095   1414.79675     611.2322     394.4095
   1414.78149     609.7373     393.3295   1414.78149     609.7373     393.3295
   1414.76624     608.1566     392.5522   1414.76624     608.1566     392.5522
   1414.75098     606.7540     392.4030   1414.75098     606.7540     392.4030
   1414.73572     604.9011     391.8221   1414.73572     604.9011     391.8221
   1414.72046     602.4572     391.8302   1414.72046     602.4572     391.8302
   1414.70520     600.2178     390.3700   1414.70520     600.2178     390.3700
   1414.68994     600.2866     390.5931   1414.68994     600.2866     390.5931
   1414.67468     597.5768     388.5695   1414.67468     597.5768     388.5695
   1414.65942     594.8644     387.6310   1414.65942     594.8644     387.6310
   1414.64417     593.8146     387.2384   1414.64417     593.8146     387.2384
   1414.62891     592.1946     387.0433   1414.62891     592.1946     387.0433
   1414.61365     589.2980     385.7323   1414.61365     589.2980     385.7323
   1414.59839     587.1553     385.8686   1414.59839     587.1553     385.8686
   1414.58313     584.9548     384.6900   1414.58313     584.9548     384.6900
   1414.56787     583.5921     383.9454   1414.56787     583.5921     383.9454
   1414.55261     582.3644     382.9867   1414.55261     582.3644     382.9867
   1414.53735     578.9525     382.6633   1414.53735     578.9525     382.6633
   1414.52209     578.0709     381.5741   1414.52209     578.0709     381.5741
   1414.50684     575.8273     380.7228   1414.50684     575.8273     380.7228
   1414.49158     573.6389     380.1362   1414.49158     573.6389     380.1362
   1414.47632     571.3692     378.6543   1414.47632     571.3692     378.6543
   1414.46106     568.7422     377.5106   1414.46106     568.7422     377.5106
   1414.44580     566.3513     377.3939   1414.44580     566.3513     377.3939
   1414.43054     565.5631     376.8633   1414.43054     565.5631     376.8633
   1414.41528     563.0556     375.7301   1414.41528     563.0556     375.7301
   1414.40002     561.4179     374.8016   1414.40002     561.4179     374.8016
   1414.38477     558.9498     374.1220   1414.38477     558.9498     374.1220
   1414.36951     556.8279     372.8896   1414.36951     556.8279     372.8896
   1414.35425     554.0743     372.1570   1414.35425     554.0743     372.1570
   1414.33899     550.9896     371.8056   1414.33899     550.9896     371.8056
   1414.32373     550.6270     370.4547   1414.32373     550.6270     370.4547
   1414.30847     548.9299     370.8609   1414.30847     548.9299     370.8609
   1414.29321     544.8381     368.0508   1414.29321     544.8381     368.0508
   1414.27795     542.6939     367.6997   1414.27795     542.6939     367.6997
   1414.26270     540.0455     366.7190   1414.26270     540.0455     366.7190
   1414.24744     538.2484     364.9560   1414.24744     538.2484     364.9560
   1414.23218     535.4003     363.9865   1414.23218     535.4003     363.9865
   1414.21692     532.7994     363.5706   1414.21692     532.7994     363.5706
   1414.20166     529.9592     363.0923   1414.20166     529.9592     363.0923
   1414.18640     529.0448     361.4703   1414.18640     529.0448     361.4703
   1414.17114     525.1562     360.3875   1414.17114     525.1562     360.3875
   1414.15588     523.5473     359.8820   1414.15588     523.5473     359.8820
   1414.14062     520.6804     359.0002   1414.14062     520.6804     359.0002
   1414.12537     517.6524     358.3181   1414.12537     517.6524     358.3181
   1414.11011     516.7076     356.3473   1414.11011     516.7076     356.3473
   1414.09485     514.0659     355.3438   1414.09485     514.0659     355.3438
   1414.07959     511.4828     354.1041   1414.07959     511.4828     354.1041
   1414.06433     508.9132     353.2998   1414.06433     508.9132     353.2998
   1414.04907     506.0889     352.2167   1414.04907     506.0889     352.2167
   1414.03381     503.8371     350.9873   1414.03381     503.8371     350.9873
   1414.01855     501.9787     350.1404   1414.01855     501.9787     350.1404
   1414.00330     518.4368     355.2041   1414.00330     518.4368     355.2041
   1413.98804     497.2565     348.3026   1413.98804     497.2565     348.3026
   1413.97278     493.8031     346.4896   1413.97278     493.8031     346.4896
   1413.95752     490.7578     344.8673   1413.95752     490.7578     344.8673
   1413.94226     489.1794     344.5092   1413.94226     489.1794     344.5092
   1413.92700     486.6310     342.9214   1413.92700     486.6310     342.9214
   1413.91174     484.2135     341.3350   1413.91174     484.2135     341.3350
   1413.89648     481.1315     340.4481   1413.89648     481.1315     340.4481
   1413.88123     477.9491     339.5453   1413.88123     477.9491     339.5453
   1413.86597     475.2477     338.0476   1413.86597     475.2477     338.0476
   1413.85071     472.7548     337.1280   1413.85071     472.7548     337.1280
   1413.83545     470.4737     335.4656   1413.83545     470.4737     335.4656
   1413.82019     468.1385     334.6819   1413.82019     468.1385     334.6819
   1413.80493     464.8007     333.6664   1413.80493     464.8007     333.6664
   1413.78967     462.3433     332.6232   1413.78967     462.3433     332.6232
   1413.77441     459.9152     330.9464   1413.77441     459.9152     330.9464
   1413.75916     456.6202     329.1017   1413.75916     456.6202     329.1017
   1413.74390     455.3060     328.3542   1413.74390     455.3060     328.3542
   1413.72864     452.4442     327.0238   1413.72864     452.4442     327.0238
   1413.71338     449.6376     325.7972   1413.71338     449.6376     325.7972
   1413.69812     446.1722     324.4247   1413.69812     446.1722     324.4247
   1413.68286     444.3344     323.7585   1413.68286     444.3344     323.7585
   1413.66760     441.8589     321.8381   1413.66760     441.8589     321.8381
   1413.65234     439.5323     320.5520   1413.65234     439.5323     320.5520
   1413.63708     436.6819     319.1962   1413.63708     436.6819     319.1962
   1413.62183     433.8325     318.3537   1413.62183     433.8325     318.3537
   1413.60657     431.7183     317.3274   1413.60657     431.7183     317.3274
   1413.59131     428.2694     315.4124   1413.59131     428.2694     315.4124
   1413.57605     426.1421     313.8474   1413.57605     426.1421     313.8474
   1413.56079     423.8354     312.7900   1413.56079     423.8354     312.7900
   1413.54553     422.0616     312.3658   1413.54553     422.0616     312.3658
   1413.53027     419.2496     310.6837   1413.53027     419.2496     310.6837
   1413.51501     415.3043     308.8057   1413.51501     415.3043     308.8057
   1413.49976     413.5103     308.0577   1413.49976     413.5103     308.0577
   1413.48450     411.1682     306.1635   1413.48450     411.1682     306.1635
   1413.46924     408.6351     305.0751   1413.46924     408.6351     305.0751
   1413.45398     406.1116     303.7150   1413.45398     406.1116     303.7150
   1413.43872     403.6957     302.2718   1413.43872     403.6957     302.2718
   1413.42346     400.8052     301.1765   1413.42346     400.8052     301.1765
   1413.40820     398.9524     299.2100   1413.40820     398.9524     299.2100
   1413.39294     396.3406     298.0540   1413.39294     396.3406     298.0540
   1413.37769     393.9918     297.2539   1413.37769     393.9918     297.2539
   1413.36243     391.9073     295.9613   1413.36243     391.9073     295.9613
   1413.34717     389.4800     295.2750   1413.34717     389.4800     295.2750
   1413.33191     386.2480     292.6246   1413.33191     386.2480     292.6246
   1413.31665     384.6368     291.7581   1413.31665     384.6368     291.7581
   1413.30139     381.7832     290.2461   1413.30139     381.7832     290.2461
   1413.28613     379.1670     289.3858   1413.28613     379.1670     289.3858
   1413.27087     377.4724     288.2701   1413.27087     377.4724     288.2701
   1413.25562     375.5067     286.4533   1413.25562     375.5067     286.4533
   1413.24036     372.8597     285.8542   1413.24036     372.8597     285.8542
   1413.22510     370.5796     284.6346   1413.22510     370.5796     284.6346
   1413.20984     369.1172     283.3534   1413.20984     369.1172     283.3534
   1413.19458     366.9413     281.9596   1413.19458     366.9413     281.9596
   1413.17932     363.6118     280.6568   1413.17932     363.6118     280.6568
   1413.16406     362.7507     279.7562   1413.16406     362.7507     279.7562
   1413.14880     360.4222     278.2158   1413.14880     360.4222     278.2158
   1413.13354     358.5416     277.2120   1413.13354     358.5416     277.2120
   1413.11829     355.6991     275.8782   1413.11829     355.6991     275.8782
   1413.10303     353.8550     274.7370   1413.10303     353.8550     274.7370
   1413.08777     352.1743     273.5432   1413.08777     352.1743     273.5432
   1413.07251     350.3114     272.2543   1413.07251     350.3114     272.2543
   1413.05725     347.9100     271.3445   1413.05725     347.9100     271.3445
   1413.04199     346.3326     270.1555   1413.04199     346.3326     270.1555
   1413.02673     344.7645     269.2562   1413.02673     344.7645     269.2562
   1413.01147     342.9859     267.9761   1413.01147     342.9859     267.9761
   1412.99622     341.0434     266.8820   1412.99622     341.0434     266.8820
   1412.98096     338.3773     266.0368   1412.98096     338.3773     266.0368
   1412.96570     337.5274     264.8027   1412.96570     337.5274     264.8027
   1412.95044     335.9437     263.9916   1412.95044     335.9437     263.9916
   1412.93518     334.0016     263.1880   1412.93518     334.0016     263.1880
   1412.91992     332.2738     261.7976   1412.91992     332.2738     261.7976
   1412.90466     331.5191     261.0151   1412.90466     331.5191     261.0151
   1412.88940     329.4462     260.2007   1412.88940     329.4462     260.2007
   1412.87415     327.6001     259.3195   1412.87415     327.6001     259.3195
   1412.85889     326.1288     258.0556   1412.85889     326.1288     258.0556
   1412.84363     325.1264     257.3326   1412.84363     325.1264     257.3326
   1412.82837     323.3366     255.9170   1412.82837     323.3366     255.9170
   1412.81311     322.1932     255.5824   1412.81311     322.1932     255.5824
   1412.79785     321.2465     255.0884   1412.79785     321.2465     255.0884
   1412.78259     319.5005     254.4329   1412.78259     319.5005     254.4329
   1412.76733     318.4406     253.1693   1412.76733     318.4406     253.1693
   1412.75208     317.3890     252.4034   1412.75208     317.3890     252.4034
   1412.73682     316.0875     251.3600   1412.73682     316.0875     251.3600
   1412.72156     314.8384     250.8929   1412.72156     314.8384     250.8929
   1412.70630     314.0104     250.4607   1412.70630     314.0104     250.4607
   1412.69104     312.6725     249.4842   1412.69104     312.6725     249.4842
   1412.67578     311.9698     248.5635   1412.67578     311.9698     248.5635
   1412.66052     310.8302     248.3104   1412.66052     310.8302     248.3104
   1412.64526     309.9869     247.4129   1412.64526     309.9869     247.4129
   1412.63000     308.7957     247.0728   1412.63000     308.7957     247.0728
   1412.61475     308.5850     246.5029   1412.61475     308.5850     246.5029
   1412.59949     307.6189     246.2487   1412.59949     307.6189     246.2487
   1412.58423     306.8688     245.6810   1412.58423     306.8688     245.6810
   1412.56897     306.1194     245.4175   1412.56897     306.1194     245.4175
   1412.55371     305.6089     244.8311   1412.55371     305.6089     244.8311
   1412.53845     304.7752     244.5168   1412.53845     304.7752     244.5168
   1412.52319     304.2751     244.0183   1412.52319     304.2751     244.0183
   1412.50793     304.3930     243.6737   1412.50793     304.3930     243.6737
   1412.49268     303.2454     243.5028   1412.49268     303.2454     243.5028
   1412.47742     302.9800     243.4699   1412.47742     302.9800     243.4699
   1412.46216     302.2579     243.0990   1412.46216     302.2579     243.0990
   1412.44690     302.5822     243.1335   1412.44690     302.5822     243.1335
   1412.43164     302.0536     242.8384   1412.43164     302.0536     242.8384
   1412.41638     302.0523     242.6212   1412.41638     302.0523     242.6212
   1412.40112     301.4912     242.9904   1412.40112     301.4912     242.9904
   1412.38586     301.7482     242.1759   1412.38586     301.7482     242.1759
   1412.37061     302.3402     242.3514   1412.37061     302.3402     242.3514
   1412.35535     301.4369     242.3190   1412.35535     301.4369     242.3190
   1412.34009     301.3170     242.4907   1412.34009     301.3170     242.4907
   1412.32483     301.5125     242.6133   1412.32483     301.5125     242.6133
   1412.30957     301.7147     242.9886   1412.30957     301.7147     242.9886
   1412.29431     301.7248     242.7841   1412.29431     301.7248     242.7841
   1412.27905     302.3159     243.0190   1412.27905     302.3159     243.0190
   1412.26379     302.5781     243.0991   1412.26379     302.5781     243.0991
   1412.24854     302.8828     243.4376   1412.24854     302.8828     243.4376
   1412.23328     302.8447     243.5726   1412.23328     302.8447     243.5726
   1412.21802     302.8165     244.4506   1412.21802     302.8165     244.4506
   1412.20276     303.9617     244.2605   1412.20276     303.9617     244.2605