#     FILENAME=!Skynet_57528_lach-cc-184_20576_21007.cyb.fits
#     BASENAME=Skynet_57528_lach-cc-184_20576_21007
#     SRC_NAME=lach-cc-184
#     OBSERVER=ccmadison16_9505
#     DATE_OBS=2016-05-20T18:48:14.120
#        OBSID=20576
#      SCANNUM=21007
#          MJD=57528.7845
#          UTC=67783
#     SCANTYPE=track
#     DATAMODE=HIRES
#     TUNEFREQ=1420.0000
# Actual_FREQ1=1420.0000
# Actual_FREQ2=1420.0000
#    LO1Tuning=6870.000
#     RFFILTER=1355_1435
#        OBSBW=-15.6250
#        NCHAN=1024 
#        FOCUS=37.0709
#           RA=05:54:48.77
#          DEC=25:30:05.60
#      RA(hrs)=5.913600
#     DEC(deg)=25.502000
#    AZIM(deg)=150.034
#    ELEV(deg)=75.349
#     IFattens=10.00, 9.00
#      WARNING=None
#    TCAL_XL1=7.9635
#    TCAL_YR1=9.1340
#    TCAL_XL2=7.9635
#    TCAL_YR2=9.1340
#     TRX_XL1=11.7060
#     TRX_YR1=11.7060
#     TRX_XL2=11.7060
#     TRX_YR2=11.7060
#        TAVE=1.0000
#Freq1(MHz)          XL1          YR1  Freq2(MHz)          XL2          YR2 

   1427.81250     376.0580     342.9639   1427.81250     376.0580     342.9639
   1427.79724     377.4196     343.7120   1427.79724     377.4196     343.7120
   1427.78198     377.5992     345.0832   1427.78198     377.5992     345.0832
   1427.76672     378.6030     346.7467   1427.76672     378.6030     346.7467
   1427.75146     378.7932     348.1123   1427.75146     378.7932     348.1123
   1427.73621     380.5134     349.9427   1427.73621     380.5134     349.9427
   1427.72095     380.8012     351.2357   1427.72095     380.8012     351.2357
   1427.70569     381.4967     352.6573   1427.70569     381.4967     352.6573
   1427.69043     382.8054     354.4349   1427.69043     382.8054     354.4349
   1427.67517     383.4804     356.1347   1427.67517     383.4804     356.1347
   1427.65991     385.1778     357.9886   1427.65991     385.1778     357.9886
   1427.64465     385.7148     358.8291   1427.64465     385.7148     358.8291
   1427.62939     387.6039     361.2464   1427.62939     387.6039     361.2464
   1427.61414     388.2350     362.9089   1427.61414     388.2350     362.9089
   1427.59888     389.7582     364.4023   1427.59888     389.7582     364.4023
   1427.58362     391.0944     366.3617   1427.58362     391.0944     366.3617
   1427.56836     392.2958     368.1119   1427.56836     392.2958     368.1119
   1427.55310     393.4881     369.8949   1427.55310     393.4881     369.8949
   1427.53784     395.5987     371.1844   1427.53784     395.5987     371.1844
   1427.52258     396.9959     373.6684   1427.52258     396.9959     373.6684
   1427.50732     398.3774     375.4633   1427.50732     398.3774     375.4633
   1427.49207     400.5424     377.8695   1427.49207     400.5424     377.8695
   1427.47681     402.0605     379.6374   1427.47681     402.0605     379.6374
   1427.46155     403.3982     382.1280   1427.46155     403.3982     382.1280
   1427.44629     405.2095     383.7549   1427.44629     405.2095     383.7549
   1427.43103     406.9114     385.2095   1427.43103     406.9114     385.2095
   1427.41577     409.2635     387.8313   1427.41577     409.2635     387.8313
   1427.40051     411.1808     390.3007   1427.40051     411.1808     390.3007
   1427.38525     413.1608     391.5972   1427.38525     413.1608     391.5972
   1427.37000     415.4266     393.6962   1427.37000     415.4266     393.6962
   1427.35474     417.3100     396.1445   1427.35474     417.3100     396.1445
   1427.33948     419.1950     398.6483   1427.33948     419.1950     398.6483
   1427.32422     421.0426     400.4365   1427.32422     421.0426     400.4365
   1427.30896     423.7458     402.4702   1427.30896     423.7458     402.4702
   1427.29370     425.2294     404.8006   1427.29370     425.2294     404.8006
   1427.27844     427.7986     406.9802   1427.27844     427.7986     406.9802
   1427.26318     429.6020     409.2945   1427.26318     429.6020     409.2945
   1427.24792     431.9766     411.7662   1427.24792     431.9766     411.7662
   1427.23267     434.8901     412.9647   1427.23267     434.8901     412.9647
   1427.21741     437.5636     416.0211   1427.21741     437.5636     416.0211
   1427.20215     440.0353     417.5841   1427.20215     440.0353     417.5841
   1427.18689     442.2339     421.3823   1427.18689     442.2339     421.3823
   1427.17163     444.3685     422.8692   1427.17163     444.3685     422.8692
   1427.15637     447.2054     424.4409   1427.15637     447.2054     424.4409
   1427.14111     449.2812     427.4015   1427.14111     449.2812     427.4015
   1427.12585     452.3318     429.5406   1427.12585     452.3318     429.5406
   1427.11060     455.0813     432.0619   1427.11060     455.0813     432.0619
   1427.09534     457.2023     434.0613   1427.09534     457.2023     434.0613
   1427.08008     459.4997     436.4993   1427.08008     459.4997     436.4993
   1427.06482     463.0904     438.9824   1427.06482     463.0904     438.9824
   1427.04956     466.2013     441.2525   1427.04956     466.2013     441.2525
   1427.03430     468.3208     443.3869   1427.03430     468.3208     443.3869
   1427.01904     471.1714     446.2809   1427.01904     471.1714     446.2809
   1427.00378     473.8488     448.0553   1427.00378     473.8488     448.0553
   1426.98853     476.8608     451.3241   1426.98853     476.8608     451.3241
   1426.97327     479.7000     453.3525   1426.97327     479.7000     453.3525
   1426.95801     482.6698     455.1661   1426.95801     482.6698     455.1661
   1426.94275     485.5090     457.7347   1426.94275     485.5090     457.7347
   1426.92749     488.6705     460.2275   1426.92749     488.6705     460.2275
   1426.91223     490.7964     462.0889   1426.91223     490.7964     462.0889
   1426.89697     493.4325     464.6931   1426.89697     493.4325     464.6931
   1426.88171     497.2564     467.1603   1426.88171     497.2564     467.1603
   1426.86646     500.2147     468.2456   1426.86646     500.2147     468.2456
   1426.85120     503.7897     470.4095   1426.85120     503.7897     470.4095
   1426.83594     506.8432     473.6292   1426.83594     506.8432     473.6292
   1426.82068     509.3782     475.6890   1426.82068     509.3782     475.6890
   1426.80542     512.1096     477.9643   1426.80542     512.1096     477.9643
   1426.79016     514.8876     480.6690   1426.79016     514.8876     480.6690
   1426.77490     517.6072     482.4264   1426.77490     517.6072     482.4264
   1426.75964     520.4795     484.6522   1426.75964     520.4795     484.6522
   1426.74438     524.6683     486.4045   1426.74438     524.6683     486.4045
   1426.72913     527.4250     489.2728   1426.72913     527.4250     489.2728
   1426.71387     531.3862     491.8783   1426.71387     531.3862     491.8783
   1426.69861     534.1655     493.7639   1426.69861     534.1655     493.7639
   1426.68335     536.3106     495.1728   1426.68335     536.3106     495.1728
   1426.66809     539.7795     497.1624   1426.66809     539.7795     497.1624
   1426.65283     542.8220     499.7684   1426.65283     542.8220     499.7684
   1426.63757     546.6840     502.5048   1426.63757     546.6840     502.5048
   1426.62231     549.8983     509.1732   1426.62231     549.8983     509.1732
   1426.60706     552.9037     505.8693   1426.60706     552.9037     505.8693
   1426.59180     555.0753     508.5275   1426.59180     555.0753     508.5275
   1426.57654     558.3062     510.4952   1426.57654     558.3062     510.4952
   1426.56128     561.6755     512.2278   1426.56128     561.6755     512.2278
   1426.54602     565.1835     514.5416   1426.54602     565.1835     514.5416
   1426.53076     569.2230     517.7784   1426.53076     569.2230     517.7784
   1426.51550     570.6215     518.8783   1426.51550     570.6215     518.8783
   1426.50024     572.9974     520.6972   1426.50024     572.9974     520.6972
   1426.48499     576.8983     522.8318   1426.48499     576.8983     522.8318
   1426.46973     580.0146     524.5535   1426.46973     580.0146     524.5535
   1426.45447     583.4780     526.2703   1426.45447     583.4780     526.2703
   1426.43921     586.1655     528.2349   1426.43921     586.1655     528.2349
   1426.42395     589.7104     530.5334   1426.42395     589.7104     530.5334
   1426.40869     592.3854     532.3380   1426.40869     592.3854     532.3380
   1426.39343     595.0425     534.7689   1426.39343     595.0425     534.7689
   1426.37817     598.5306     535.9069   1426.37817     598.5306     535.9069
   1426.36292     602.3400     537.7497   1426.36292     602.3400     537.7497
   1426.34766     604.9002     539.9734   1426.34766     604.9002     539.9734
   1426.33240     607.5291     542.8964   1426.33240     607.5291     542.8964
   1426.31714     610.7550     543.5567   1426.31714     610.7550     543.5567
   1426.30188     613.1809     546.1199   1426.30188     613.1809     546.1199
   1426.28662     615.4046     547.0946   1426.28662     615.4046     547.0946
   1426.27136     619.9392     549.4988   1426.27136     619.9392     549.4988
   1426.25610     621.4124     551.9858   1426.25610     621.4124     551.9858
   1426.24084     625.3520     552.4106   1426.24084     625.3520     552.4106
   1426.22559     628.9057     553.7501   1426.22559     628.9057     553.7501
   1426.21033     630.3544     556.3310   1426.21033     630.3544     556.3310
   1426.19507     634.0363     558.6572   1426.19507     634.0363     558.6572
   1426.17981     637.5657     559.5020   1426.17981     637.5657     559.5020
   1426.16455     639.1523     561.8833   1426.16455     639.1523     561.8833
   1426.14929     642.1664     563.3933   1426.14929     642.1664     563.3933
   1426.13403     644.7767     564.2739   1426.13403     644.7767     564.2739
   1426.11877     647.5148     566.4309   1426.11877     647.5148     566.4309
   1426.10352     651.2252     568.8928   1426.10352     651.2252     568.8928
   1426.08826     652.8768     570.0061   1426.08826     652.8768     570.0061
   1426.07300     655.3262     570.7784   1426.07300     655.3262     570.7784
   1426.05774     658.6401     571.8013   1426.05774     658.6401     571.8013
   1426.04248     660.3679     574.1401   1426.04248     660.3679     574.1401
   1426.02722     663.5361     575.2999   1426.02722     663.5361     575.2999
   1426.01196     666.0322     576.6700   1426.01196     666.0322     576.6700
   1425.99670     669.3850     578.6270   1425.99670     669.3850     578.6270
   1425.98145     670.8528     579.8827   1425.98145     670.8528     579.8827
   1425.96619     674.3658     581.1130   1425.96619     674.3658     581.1130
   1425.95093     675.6653     582.6165   1425.95093     675.6653     582.6165
   1425.93567     677.5339     584.5508   1425.93567     677.5339     584.5508
   1425.92041     681.0950     584.8796   1425.92041     681.0950     584.8796
   1425.90515     683.3004     586.5082   1425.90515     683.3004     586.5082
   1425.88989     685.1135     588.5028   1425.88989     685.1135     588.5028
   1425.87463     687.0356     588.7227   1425.87463     687.0356     588.7227
   1425.85938     689.5144     590.5031   1425.85938     689.5144     590.5031
   1425.84412     692.4560     591.9702   1425.84412     692.4560     591.9702
   1425.82886     694.7321     593.0487   1425.82886     694.7321     593.0487
   1425.81360     696.2524     594.8679   1425.81360     696.2524     594.8679
   1425.79834     698.0986     596.3403   1425.79834     698.0986     596.3403
   1425.78308     699.9187     597.3578   1425.78308     699.9187     597.3578
   1425.76782     702.3842     597.7223   1425.76782     702.3842     597.7223
   1425.75256     704.5237     598.9537   1425.75256     704.5237     598.9537
   1425.73730     706.4755     599.8345   1425.73730     706.4755     599.8345
   1425.72205     708.5307     601.5929   1425.72205     708.5307     601.5929
   1425.70679     709.1191     602.4395   1425.70679     709.1191     602.4395
   1425.69153     712.4289     602.8940   1425.69153     712.4289     602.8940
   1425.67627     714.8111     604.4952   1425.67627     714.8111     604.4952
   1425.66101     716.9906     604.5933   1425.66101     716.9906     604.5933
   1425.64575     718.8837     606.5015   1425.64575     718.8837     606.5015
   1425.63049     719.9344     607.3502   1425.63049     719.9344     607.3502
   1425.61523     722.6500     607.8696   1425.61523     722.6500     607.8696
   1425.59998     723.4577     608.9995   1425.59998     723.4577     608.9995
   1425.58472     726.0124     610.0019   1425.58472     726.0124     610.0019
   1425.56946     726.1642     609.5360   1425.56946     726.1642     609.5360
   1425.55420     728.4424     611.8981   1425.55420     728.4424     611.8981
   1425.53894     731.3285     611.8182   1425.53894     731.3285     611.8182
   1425.52368     731.8219     613.4811   1425.52368     731.8219     613.4811
   1425.50842     734.1891     614.3348   1425.50842     734.1891     614.3348
   1425.49316     734.7960     613.8986   1425.49316     734.7960     613.8986
   1425.47791     735.3879     615.4969   1425.47791     735.3879     615.4969
   1425.46265     737.5864     615.4020   1425.46265     737.5864     615.4020
   1425.44739     739.6686     616.8250   1425.44739     739.6686     616.8250
   1425.43213     739.6765     618.0140   1425.43213     739.6765     618.0140
   1425.41687     742.1526     619.4210   1425.41687     742.1526     619.4210
   1425.40161     742.4498     619.5744   1425.40161     742.4498     619.5744
   1425.38635     742.6820     619.4180   1425.38635     742.6820     619.4180
   1425.37109     745.9875     619.9324   1425.37109     745.9875     619.9324
   1425.35583     745.9849     620.7659   1425.35583     745.9849     620.7659
   1425.34058     747.2352     621.4131   1425.34058     747.2352     621.4131
   1425.32532     748.6848     621.3775   1425.32532     748.6848     621.3775
   1425.31006     750.6779     623.3096   1425.31006     750.6779     623.3096
   1425.29480     749.6025     623.4268   1425.29480     749.6025     623.4268
   1425.27954     751.2050     622.6924   1425.27954     751.2050     622.6924
   1425.26428     753.0991     624.1206   1425.26428     753.0991     624.1206
   1425.24902     754.5568     624.0052   1425.24902     754.5568     624.0052
   1425.23376     755.2083     624.6451   1425.23376     755.2083     624.6451
   1425.21851     756.6481     624.6820   1425.21851     756.6481     624.6820
   1425.20325     756.8871     625.8286   1425.20325     756.8871     625.8286
   1425.18799     757.0179     626.2845   1425.18799     757.0179     626.2845
   1425.17273     758.0461     626.1931   1425.17273     758.0461     626.1931
   1425.15747     760.2634     626.3959   1425.15747     760.2634     626.3959
   1425.14221     759.8103     626.9493   1425.14221     759.8103     626.9493
   1425.12695     759.4610     628.9760   1425.12695     759.4610     628.9760
   1425.11169     762.3226     627.5909   1425.11169     762.3226     627.5909
   1425.09644     763.0558     629.1120   1425.09644     763.0558     629.1120
   1425.08118     763.0195     628.7594   1425.08118     763.0195     628.7594
   1425.06592     762.5843     627.6329   1425.06592     762.5843     627.6329
   1425.05066     763.8627     628.2594   1425.05066     763.8627     628.2594
   1425.03540     765.8448     628.9978   1425.03540     765.8448     628.9978
   1425.02014     764.4110     628.5192   1425.02014     764.4110     628.5192
   1425.00488     764.5475     628.9745   1425.00488     764.5475     628.9745
   1424.98962     766.1624     630.4368   1424.98962     766.1624     630.4368
   1424.97437     766.4072     628.1466   1424.97437     766.4072     628.1466
   1424.95911     766.2469     629.5966   1424.95911     766.2469     629.5966
   1424.94385     765.9625     629.2909   1424.94385     765.9625     629.2909
   1424.92859     767.8310     629.6664   1424.92859     767.8310     629.6664
   1424.91333     766.7487     629.7188   1424.91333     766.7487     629.7188
   1424.89807     768.2962     630.5688   1424.89807     768.2962     630.5688
   1424.88281     768.9495     630.1672   1424.88281     768.9495     630.1672
   1424.86755     768.4440     629.6429   1424.86755     768.4440     629.6429
   1424.85229     768.6812     630.2924   1424.85229     768.6812     630.2924
   1424.83704     769.9229     629.9296   1424.83704     769.9229     629.9296
   1424.82178     769.4215     630.0415   1424.82178     769.4215     630.0415
   1424.80652     770.2859     630.0104   1424.80652     770.2859     630.0104
   1424.79126     770.5758     630.0996   1424.79126     770.5758     630.0996
   1424.77600     769.8428     629.3616   1424.77600     769.8428     629.3616
   1424.76074     769.4537     629.0009   1424.76074     769.4537     629.0009
   1424.74548     769.0880     629.3345   1424.74548     769.0880     629.3345
   1424.73022     771.3336     628.9855   1424.73022     771.3336     628.9855
   1424.71497     770.9706     629.0197   1424.71497     770.9706     629.0197
   1424.69971     769.9897     629.3899   1424.69971     769.9897     629.3899
   1424.68445     770.3152     629.1967   1424.68445     770.3152     629.1967
   1424.66919     769.7424     629.0775   1424.66919     769.7424     629.0775
   1424.65393     771.0408     628.1071   1424.65393     771.0408     628.1071
   1424.63867     770.5215     627.6119   1424.63867     770.5215     627.6119
   1424.62341     770.0765     628.7888   1424.62341     770.0765     628.7888
   1424.60815     769.2066     626.8770   1424.60815     769.2066     626.8770
   1424.59290     770.7355     628.1574   1424.59290     770.7355     628.1574
   1424.57764     770.1154     627.3689   1424.57764     770.1154     627.3689
   1424.56238     769.3434     627.5330   1424.56238     769.3434     627.5330
   1424.54712     770.4233     626.6866   1424.54712     770.4233     626.6866
   1424.53186     769.6205     627.3099   1424.53186     769.6205     627.3099
   1424.51660     769.4355     626.9701   1424.51660     769.4355     626.9701
   1424.50134     770.2155     626.7343   1424.50134     770.2155     626.7343
   1424.48608     767.7225     626.5037   1424.48608     767.7225     626.5037
   1424.47083     769.0475     625.7068   1424.47083     769.0475     625.7068
   1424.45557     768.1367     624.8626   1424.45557     768.1367     624.8626
   1424.44031     768.5166     625.1775   1424.44031     768.5166     625.1775
   1424.42505     767.4509     625.0742   1424.42505     767.4509     625.0742
   1424.40979     767.0651     624.3484   1424.40979     767.0651     624.3484
   1424.39453     767.0203     623.8137   1424.39453     767.0203     623.8137
   1424.37927     767.6628     623.0049   1424.37927     767.6628     623.0049
   1424.36401     766.3497     622.6643   1424.36401     766.3497     622.6643
   1424.34875     766.9749     622.5077   1424.34875     766.9749     622.5077
   1424.33350     767.2161     621.1986   1424.33350     767.2161     621.1986
   1424.31824     765.8295     621.3734   1424.31824     765.8295     621.3734
   1424.30298     765.6700     621.7379   1424.30298     765.6700     621.7379
   1424.28772     765.7406     621.6347   1424.28772     765.7406     621.6347
   1424.27246     766.1165     620.7254   1424.27246     766.1165     620.7254
   1424.25720     765.3011     618.9490   1424.25720     765.3011     618.9490
   1424.24194     764.7333     619.4944   1424.24194     764.7333     619.4944
   1424.22668     763.3138     617.8746   1424.22668     763.3138     617.8746
   1424.21143     763.0947     617.9808   1424.21143     763.0947     617.9808
   1424.19617     763.4314     617.3824   1424.19617     763.4314     617.3824
   1424.18091     762.1877     616.8235   1424.18091     762.1877     616.8235
   1424.16565     761.4929     616.3608   1424.16565     761.4929     616.3608
   1424.15039     762.1730     616.4898   1424.15039     762.1730     616.4898
   1424.13513     760.9653     615.6675   1424.13513     760.9653     615.6675
   1424.11987     760.7062     614.7621   1424.11987     760.7062     614.7621
   1424.10461     760.6805     614.6331   1424.10461     760.6805     614.6331
   1424.08936     758.9785     614.4668   1424.08936     758.9785     614.4668
   1424.07410     760.3599     614.3596   1424.07410     760.3599     614.3596
   1424.05884     759.5187     612.6302   1424.05884     759.5187     612.6302
   1424.04358     758.2720     611.9453   1424.04358     758.2720     611.9453
   1424.02832     757.3277     610.8243   1424.02832     757.3277     610.8243
   1424.01306     758.2761     610.5185   1424.01306     758.2761     610.5185
   1423.99780     756.7787     610.3895   1423.99780     756.7787     610.3895
   1423.98254     757.4498     610.4550   1423.98254     757.4498     610.4550
   1423.96729     756.8008     608.2455   1423.96729     756.8008     608.2455
   1423.95203     756.3743     608.1761   1423.95203     756.3743     608.1761
   1423.93677     754.6763     607.7380   1423.93677     754.6763     607.7380
   1423.92151     754.0289     606.6925   1423.92151     754.0289     606.6925
   1423.90625     755.3011     606.7162   1423.90625     755.3011     606.7162
   1423.89099     753.9102     604.8590   1423.89099     753.9102     604.8590
   1423.87573     753.2017     605.1288   1423.87573     753.2017     605.1288
   1423.86047     751.8103     603.3740   1423.86047     751.8103     603.3740
   1423.84521     753.6509     603.8249   1423.84521     753.6509     603.8249
   1423.82996     753.0142     602.1725   1423.82996     753.0142     602.1725
   1423.81470     750.6139     602.6883   1423.81470     750.6139     602.6883
   1423.79944     750.5823     600.1529   1423.79944     750.5823     600.1529
   1423.78418     751.1141     600.3729   1423.78418     751.1141     600.3729
   1423.76892     750.2959     599.8183   1423.76892     750.2959     599.8183
   1423.75366     749.6426     598.8403   1423.75366     749.6426     598.8403
   1423.73840     748.0914     598.3654   1423.73840     748.0914     598.3654
   1423.72314     748.1906     597.7101   1423.72314     748.1906     597.7101
   1423.70789     747.3534     595.8890   1423.70789     747.3534     595.8890
   1423.69263     747.3102     596.0002   1423.69263     747.3102     596.0002
   1423.67737     746.6412     595.4293   1423.67737     746.6412     595.4293
   1423.66211     746.7920     593.5424   1423.66211     746.7920     593.5424
   1423.64685     745.8608     592.3065   1423.64685     745.8608     592.3065
   1423.63159     745.3906     592.9324   1423.63159     745.3906     592.9324
   1423.61633     744.9330     592.0835   1423.61633     744.9330     592.0835
   1423.60107     744.6608     591.5212   1423.60107     744.6608     591.5212
   1423.58582     743.7821     590.3284   1423.58582     743.7821     590.3284
   1423.57056     743.0665     589.7930   1423.57056     743.0665     589.7930
   1423.55530     743.4724     587.8459   1423.55530     743.4724     587.8459
   1423.54004     743.7962     588.3216   1423.54004     743.7962     588.3216
   1423.52478     743.3298     585.9355   1423.52478     743.3298     585.9355
   1423.50952     741.2537     586.1614   1423.50952     741.2537     586.1614
   1423.49426     742.4172     584.7991   1423.49426     742.4172     584.7991
   1423.47900     740.8474     584.5541   1423.47900     740.8474     584.5541
   1423.46375     739.9947     583.5115   1423.46375     739.9947     583.5115
   1423.44849     740.4548     583.1295   1423.44849     740.4548     583.1295
   1423.43323     739.6439     582.4022   1423.43323     739.6439     582.4022
   1423.41797     739.7836     580.6298   1423.41797     739.7836     580.6298
   1423.40271     738.5912     579.3890   1423.40271     738.5912     579.3890
   1423.38745     739.4003     579.6164   1423.38745     739.4003     579.6164
   1423.37219     737.8692     578.8336   1423.37219     737.8692     578.8336
   1423.35693     736.5587     577.7057   1423.35693     736.5587     577.7057
   1423.34167     736.2997     576.9539   1423.34167     736.2997     576.9539
   1423.32642     736.0737     575.3873   1423.32642     736.0737     575.3873
   1423.31116     737.3071     574.5030   1423.31116     737.3071     574.5030
   1423.29590     735.1568     573.8502   1423.29590     735.1568     573.8502
   1423.28064     735.2788     573.0537   1423.28064     735.2788     573.0537
   1423.26538     735.4581     572.5277   1423.26538     735.4581     572.5277
   1423.25012     734.3785     571.6686   1423.25012     734.3785     571.6686
   1423.23486     734.7090     571.2867   1423.23486     734.7090     571.2867
   1423.21960     733.1094     569.7415   1423.21960     733.1094     569.7415
   1423.20435     734.4114     568.0439   1423.20435     734.4114     568.0439
   1423.18909     733.7482     567.4763   1423.18909     733.7482     567.4763
   1423.17383     732.2490     567.2219   1423.17383     732.2490     567.2219
   1423.15857     732.0112     565.1870   1423.15857     732.0112     565.1870
   1423.14331     732.4792     564.5142   1423.14331     732.4792     564.5142
   1423.12805     730.7621     564.1439   1423.12805     730.7621     564.1439
   1423.11279     731.2651     562.3231   1423.11279     731.2651     562.3231
   1423.09753     731.0377     562.9664   1423.09753     731.0377     562.9664
   1423.08228     730.4363     561.6246   1423.08228     730.4363     561.6246
   1423.06702     729.3578     559.3340   1423.06702     729.3578     559.3340
   1423.05176     729.3867     559.9526   1423.05176     729.3867     559.9526
   1423.03650     729.6069     558.0321   1423.03650     729.6069     558.0321
   1423.02124     728.1425     556.3812   1423.02124     728.1425     556.3812
   1423.00598     728.6854     556.3079   1423.00598     728.6854     556.3079
   1422.99072     728.6653     555.6673   1422.99072     728.6653     555.6673
   1422.97546     728.8654     554.8635   1422.97546     728.8654     554.8635
   1422.96021     727.9610     553.3486   1422.96021     727.9610     553.3486
   1422.94495     726.9873     553.5399   1422.94495     726.9873     553.5399
   1422.92969     727.1773     552.3024   1422.92969     727.1773     552.3024
   1422.91443     727.0477     549.9567   1422.91443     727.0477     549.9567
   1422.89917     728.4034     551.0026   1422.89917     728.4034     551.0026
   1422.88391     725.7253     549.4662   1422.88391     725.7253     549.4662
   1422.86865     724.6941     547.2120   1422.86865     724.6941     547.2120
   1422.85339     726.6802     547.7217   1422.85339     726.6802     547.7217
   1422.83813     725.4131     545.9952   1422.83813     725.4131     545.9952
   1422.82288     725.7713     545.3795   1422.82288     725.7713     545.3795
   1422.80762     725.4059     544.9081   1422.80762     725.4059     544.9081
   1422.79236     725.3010     543.0161   1422.79236     725.3010     543.0161
   1422.77710     723.8011     542.2256   1422.77710     723.8011     542.2256
   1422.76184     724.2285     540.9053   1422.76184     724.2285     540.9053
   1422.74658     723.5024     540.1907   1422.74658     723.5024     540.1907
   1422.73132     724.7070     539.8860   1422.73132     724.7070     539.8860
   1422.71606     723.2305     538.9987   1422.71606     723.2305     538.9987
   1422.70081     724.5771     537.6229   1422.70081     724.5771     537.6229
   1422.68555     724.0534     535.8171   1422.68555     724.0534     535.8171
   1422.67029     723.8672     535.3696   1422.67029     723.8672     535.3696
   1422.65503     722.3764     534.4387   1422.65503     722.3764     534.4387
   1422.63977     723.3444     533.0870   1422.63977     723.3444     533.0870
   1422.62451     721.9783     532.5618   1422.62451     721.9783     532.5618
   1422.60925     721.3789     530.8446   1422.60925     721.3789     530.8446
   1422.59399     721.3408     531.1539   1422.59399     721.3408     531.1539
   1422.57874     721.7741     530.3270   1422.57874     721.7741     530.3270
   1422.56348     721.7069     529.0516   1422.56348     721.7069     529.0516
   1422.54822     721.2338     527.3662   1422.54822     721.2338     527.3662
   1422.53296     721.6812     526.5603   1422.53296     721.6812     526.5603
   1422.51770     720.3636     526.1830   1422.51770     720.3636     526.1830
   1422.50244     720.2187     524.7354   1422.50244     720.2187     524.7354
   1422.48718     719.6696     523.9658   1422.48718     719.6696     523.9658
   1422.47192     719.8289     523.2847   1422.47192     719.8289     523.2847
   1422.45667     720.0577     521.4761   1422.45667     720.0577     521.4761
   1422.44141     720.0936     521.1506   1422.44141     720.0936     521.1506
   1422.42615     720.3348     520.1536   1422.42615     720.3348     520.1536
   1422.41089     719.5500     519.6064   1422.41089     719.5500     519.6064
   1422.39563     720.1972     517.9933   1422.39563     720.1972     517.9933
   1422.38037     719.9748     517.3224   1422.38037     719.9748     517.3224
   1422.36511     719.1554     516.2568   1422.36511     719.1554     516.2568
   1422.34985     719.0453     516.2985   1422.34985     719.0453     516.2985
   1422.33459     719.3982     514.2287   1422.33459     719.3982     514.2287
   1422.31934     719.0093     514.3409   1422.31934     719.0093     514.3409
   1422.30408     719.4476     512.1606   1422.30408     719.4476     512.1606
   1422.28882     718.2026     512.0563   1422.28882     718.2026     512.0563
   1422.27356     718.6012     511.0776   1422.27356     718.6012     511.0776
   1422.25830     718.6891     509.8674   1422.25830     718.6891     509.8674
   1422.24304     717.5374     508.7200   1422.24304     717.5374     508.7200
   1422.22778     719.0112     507.6981   1422.22778     719.0112     507.6981
   1422.21252     718.5623     508.0142   1422.21252     718.5623     508.0142
   1422.19727     717.7821     506.6772   1422.19727     717.7821     506.6772
   1422.18201     717.7496     505.3799   1422.18201     717.7496     505.3799
   1422.16675     717.2265     503.6055   1422.16675     717.2265     503.6055
   1422.15149     717.1015     503.3339   1422.15149     717.1015     503.3339
   1422.13623     717.6666     502.0387   1422.13623     717.6666     502.0387
   1422.12097     716.7936     501.2915   1422.12097     716.7936     501.2915
   1422.10571     718.0293     500.3403   1422.10571     718.0293     500.3403
   1422.09045     717.1180     499.9717   1422.09045     717.1180     499.9717
   1422.07520     716.7865     498.6089   1422.07520     716.7865     498.6089
   1422.05994     716.8154     497.6252   1422.05994     716.8154     497.6252
   1422.04468     715.9297     496.7595   1422.04468     715.9297     496.7595
   1422.02942     717.5146     495.9508   1422.02942     717.5146     495.9508
   1422.01416     718.0909     495.2684   1422.01416     718.0909     495.2684
   1421.99890     716.4760     494.8267   1421.99890     716.4760     494.8267
   1421.98364     717.5495     493.8281   1421.98364     717.5495     493.8281
   1421.96838     716.1478     492.0360   1421.96838     716.1478     492.0360
   1421.95312     717.2842     491.4800   1421.95312     717.2842     491.4800
   1421.93787     716.0363     489.8108   1421.93787     716.0363     489.8108
   1421.92261     716.8543     489.9716   1421.92261     716.8543     489.9716
   1421.90735     716.2654     488.9070   1421.90735     716.2654     488.9070
   1421.89209     716.2063     487.9621   1421.89209     716.2063     487.9621
   1421.87683     715.8206     486.4026   1421.87683     715.8206     486.4026
   1421.86157     714.7950     486.1676   1421.86157     714.7950     486.1676
   1421.84631     716.8858     485.8563   1421.84631     716.8858     485.8563
   1421.83105     716.0891     484.6936   1421.83105     716.0891     484.6936
   1421.81580     715.8528     484.1281   1421.81580     715.8528     484.1281
   1421.80054     715.7250     482.5559   1421.80054     715.7250     482.5559
   1421.78528     714.7220     482.4769   1421.78528     714.7220     482.4769
   1421.77002     714.5038     481.1800   1421.77002     714.5038     481.1800
   1421.75476     714.8117     480.5186   1421.75476     714.8117     480.5186
   1421.73950     715.4348     479.0752   1421.73950     715.4348     479.0752
   1421.72424     714.2555     478.4994   1421.72424     714.2555     478.4994
   1421.70898     714.5969     476.9144   1421.70898     714.5969     476.9144
   1421.69373     714.8159     477.0663   1421.69373     714.8159     477.0663
   1421.67847     714.7428     475.6606   1421.67847     714.7428     475.6606
   1421.66321     713.5641     475.2672   1421.66321     713.5641     475.2672
   1421.64795     714.3004     473.3339   1421.64795     714.3004     473.3339
   1421.63269     714.5111     473.0420   1421.63269     714.5111     473.0420
   1421.61743     714.1395     471.7484   1421.61743     714.1395     471.7484
   1421.60217     712.2369     472.0528   1421.60217     712.2369     472.0528
   1421.58691     713.6939     470.1948   1421.58691     713.6939     470.1948
   1421.57166     713.6962     470.3317   1421.57166     713.6962     470.3317
   1421.55640     713.5278     469.4416   1421.55640     713.5278     469.4416
   1421.54114     712.7200     469.5321   1421.54114     712.7200     469.5321
   1421.52588     713.1968     467.7549   1421.52588     713.1968     467.7549
   1421.51062     713.5070     466.3420   1421.51062     713.5070     466.3420
   1421.49536     712.3720     465.3858   1421.49536     712.3720     465.3858
   1421.48010     713.2333     465.1772   1421.48010     713.2333     465.1772
   1421.46484     711.9918     463.2360   1421.46484     711.9918     463.2360
   1421.44958     711.2781     463.3585   1421.44958     711.2781     463.3585
   1421.43433     711.9950     462.5910   1421.43433     711.9950     462.5910
   1421.41907     710.9871     461.7319   1421.41907     710.9871     461.7319
   1421.40381     711.9485     460.7358   1421.40381     711.9485     460.7358
   1421.38855     711.7578     460.3646   1421.38855     711.7578     460.3646
   1421.37329     711.0808     458.7862   1421.37329     711.0808     458.7862
   1421.35803     711.0121     458.1014   1421.35803     711.0121     458.1014
   1421.34277     712.2023     457.4868   1421.34277     712.2023     457.4868
   1421.32751     711.6359     457.2921   1421.32751     711.6359     457.2921
   1421.31226     710.7895     456.2184   1421.31226     710.7895     456.2184
   1421.29700     711.1266     455.7344   1421.29700     711.1266     455.7344
   1421.28174     709.8583     454.5970   1421.28174     709.8583     454.5970
   1421.26648     709.7488     453.9172   1421.26648     709.7488     453.9172
   1421.25122     710.8584     453.2189   1421.25122     710.8584     453.2189
   1421.23596     711.3765     451.6365   1421.23596     711.3765     451.6365
   1421.22070     709.5607     451.7295   1421.22070     709.5607     451.7295
   1421.20544     709.1891     450.8313   1421.20544     709.1891     450.8313
   1421.19019     709.4732     450.3208   1421.19019     709.4732     450.3208
   1421.17493     709.4000     449.9969   1421.17493     709.4000     449.9969
   1421.15967     708.3900     448.0894   1421.15967     708.3900     448.0894
   1421.14441     707.8351     447.5457   1421.14441     707.8351     447.5457
   1421.12915     707.6882     447.0022   1421.12915     707.6882     447.0022
   1421.11389     708.2200     446.0078   1421.11389     708.2200     446.0078
   1421.09863     706.9714     445.6558   1421.09863     706.9714     445.6558
   1421.08337     706.3297     444.1236   1421.08337     706.3297     444.1236
   1421.06812     707.4900     444.4137   1421.06812     707.4900     444.4137
   1421.05286     707.4033     443.2223   1421.05286     707.4033     443.2223
   1421.03760     706.4888     442.1258   1421.03760     706.4888     442.1258
   1421.02234     706.4012     441.5428   1421.02234     706.4012     441.5428
   1421.00708     707.9709     440.9109   1421.00708     707.9709     440.9109
   1420.99182     707.4882     439.2512   1420.99182     707.4882     439.2512
   1420.97656     706.0797     439.6870   1420.97656     706.0797     439.6870
   1420.96130     705.3055     439.0737   1420.96130     705.3055     439.0737
   1420.94604     706.1643     438.2947   1420.94604     706.1643     438.2947
   1420.93079     707.7769     437.2404   1420.93079     707.7769     437.2404
   1420.91553     706.6850     437.1432   1420.91553     706.6850     437.1432
   1420.90027     706.1747     436.7311   1420.90027     706.1747     436.7311
   1420.88501     706.1941     435.8955   1420.88501     706.1941     435.8955
   1420.86975     705.3955     435.4027   1420.86975     705.3955     435.4027
   1420.85449     705.3141     433.9548   1420.85449     705.3141     433.9548
   1420.83923     705.5410     433.2287   1420.83923     705.5410     433.2287
   1420.82397     705.7984     433.5593   1420.82397     705.7984     433.5593
   1420.80872     705.0654     432.5778   1420.80872     705.0654     432.5778
   1420.79346     705.3869     431.8270   1420.79346     705.3869     431.8270
   1420.77820     705.6810     430.8344   1420.77820     705.6810     430.8344
   1420.76294     705.2838     430.6272   1420.76294     705.2838     430.6272
   1420.74768     703.6975     430.3194   1420.74768     703.6975     430.3194
   1420.73242     705.8438     429.5185   1420.73242     705.8438     429.5185
   1420.71716     705.9392     429.0231   1420.71716     705.9392     429.0231
   1420.70190     704.9077     428.2145   1420.70190     704.9077     428.2145
   1420.68665     704.9973     428.9118   1420.68665     704.9973     428.9118
   1420.67139     704.0627     427.0350   1420.67139     704.0627     427.0350
   1420.65613     705.3561     427.7466   1420.65613     705.3561     427.7466
   1420.64087     705.3594     427.3683   1420.64087     705.3594     427.3683
   1420.62561     704.7778     425.8044   1420.62561     704.7778     425.8044
   1420.61035     706.3356     425.7240   1420.61035     706.3356     425.7240
   1420.59509     707.4226     425.5381   1420.59509     707.4226     425.5381
   1420.57983     708.3390     426.0696   1420.57983     708.3390     426.0696
   1420.56458     709.2929     426.5551   1420.56458     709.2929     426.5551
   1420.54932     710.7588     427.1681   1420.54932     710.7588     427.1681
   1420.53406     712.1689     427.5460   1420.53406     712.1689     427.5460
   1420.51880     714.5099     428.3573   1420.51880     714.5099     428.3573
   1420.50354     716.9323     428.9634   1420.50354     716.9323     428.9634
   1420.48828     720.1569     430.5199   1420.48828     720.1569     430.5199
   1420.47302     724.3550     432.6293   1420.47302     724.3550     432.6293
   1420.45776     730.0056     435.7068   1420.45776     730.0056     435.7068
   1420.44250     740.9249     441.5146   1420.44250     740.9249     441.5146
   1420.42725     753.5253     448.7062   1420.42725     753.5253     448.7062
   1420.41199     773.3448     457.9221   1420.41199     773.3448     457.9221
   1420.39673     796.3578     470.9254   1420.39673     796.3578     470.9254
   1420.38147     826.4036     487.4433   1420.38147     826.4036     487.4433
   1420.36621     873.6454     514.8099   1420.36621     873.6454     514.8099
   1420.35095     983.2078     576.1677   1420.35095     983.2078     576.1677
   1420.33569    1207.0894     703.3528   1420.33569    1207.0894     703.3528
   1420.32043    1550.3524     898.4019   1420.32043    1550.3524     898.4019
   1420.30518    2025.6089    1169.0813   1420.30518    2025.6089    1169.0813
   1420.28992    2474.1040    1423.2739   1420.28992    2474.1040    1423.2739
   1420.27466    2743.8027    1580.4906   1420.27466    2743.8027    1580.4906
   1420.25940    2931.3818    1686.7073   1420.25940    2931.3818    1686.7073
   1420.24414    2825.4707    1620.0876   1420.24414    2825.4707    1620.0876
   1420.22888    2378.0100    1365.6927   1420.22888    2378.0100    1365.6927
   1420.21362    1626.9329     937.6815   1420.21362    1626.9329     937.6815
   1420.19836    1081.6368     627.1725   1420.19836    1081.6368     627.1725
   1420.18311     872.4708     509.3875   1420.18311     872.4708     509.3875
   1420.16785     789.9045     461.8682   1420.16785     789.9045     461.8682
   1420.15259     751.4307     438.5256   1420.15259     751.4307     438.5256
   1420.13733     730.2576     426.6865   1420.13733     730.2576     426.6865
   1420.12207     717.0701     419.2947   1420.12207     717.0701     419.2947
   1420.10681     710.1343     414.2949   1420.10681     710.1343     414.2949
   1420.09155     704.8452     411.5422   1420.09155     704.8452     411.5422
   1420.07629     701.7499     408.6911   1420.07629     701.7499     408.6911
   1420.06104     698.5349     406.5327   1420.06104     698.5349     406.5327
   1420.04578     696.7460     406.8298   1420.04578     696.7460     406.8298
   1420.03052     695.7125     404.7859   1420.03052     695.7125     404.7859
   1420.01526     698.0202     405.3394   1420.01526     698.0202     405.3394
   1420.00000     697.7549     405.7084   1420.00000     697.7549     405.7084
   1419.98474     697.4895     406.0773   1419.98474     697.4895     406.0773
   1419.96948     696.1189     403.7991   1419.96948     696.1189     403.7991
   1419.95422     694.8147     402.4029   1419.95422     694.8147     402.4029
   1419.93896     693.4745     402.1635   1419.93896     693.4745     402.1635
   1419.92371     694.0508     400.9674   1419.92371     694.0508     400.9674
   1419.90845     692.9022     400.4925   1419.90845     692.9022     400.4925
   1419.89319     692.2430     400.6005   1419.89319     692.2430     400.6005
   1419.87793     693.3647     400.3473   1419.87793     693.3647     400.3473
   1419.86267     693.8032     399.7072   1419.86267     693.8032     399.7072
   1419.84741     692.5150     398.8901   1419.84741     692.5150     398.8901
   1419.83215     692.5665     399.4878   1419.83215     692.5665     399.4878
   1419.81689     692.8463     398.3247   1419.81689     692.8463     398.3247
   1419.80164     693.2658     398.5026   1419.80164     693.2658     398.5026
   1419.78638     692.5271     397.7259   1419.78638     692.5271     397.7259
   1419.77112     693.3903     397.4769   1419.77112     693.3903     397.4769
   1419.75586     691.8551     396.9669   1419.75586     691.8551     396.9669
   1419.74060     691.6228     396.7484   1419.74060     691.6228     396.7484
   1419.72534     692.5861     396.8245   1419.72534     692.5861     396.8245
   1419.71008     693.2089     396.6772   1419.71008     693.2089     396.6772
   1419.69482     693.3746     396.5907   1419.69482     693.3746     396.5907
   1419.67957     692.7021     396.3237   1419.67957     692.7021     396.3237
   1419.66431     693.5114     396.1515   1419.66431     693.5114     396.1515
   1419.64905     692.7711     396.2238   1419.64905     692.7711     396.2238
   1419.63379     694.2615     395.8690   1419.63379     694.2615     395.8690
   1419.61853     692.4250     395.3640   1419.61853     692.4250     395.3640
   1419.60327     693.3404     395.9364   1419.60327     693.3404     395.9364
   1419.58801     692.3267     395.3997   1419.58801     692.3267     395.3997
   1419.57275     692.6201     395.8740   1419.57275     692.6201     395.8740
   1419.55750     694.5229     394.9821   1419.55750     694.5229     394.9821
   1419.54224     694.3668     394.9269   1419.54224     694.3668     394.9269
   1419.52698     695.0488     394.5993   1419.52698     695.0488     394.5993
   1419.51172     693.5103     395.0925   1419.51172     693.5103     395.0925
   1419.49646     695.0929     394.6393   1419.49646     695.0929     394.6393
   1419.48120     694.5828     395.0725   1419.48120     694.5828     395.0725
   1419.46594     696.1830     395.0279   1419.46594     696.1830     395.0279
   1419.45068     696.1417     394.8313   1419.45068     696.1417     394.8313
   1419.43542     695.6265     394.4341   1419.43542     695.6265     394.4341
   1419.42017     696.4202     394.7733   1419.42017     696.4202     394.7733
   1419.40491     696.6362     395.1426   1419.40491     696.6362     395.1426
   1419.38965     696.5061     394.7079   1419.38965     696.5061     394.7079
   1419.37439     696.2283     394.8507   1419.37439     696.2283     394.8507
   1419.35913     697.0001     394.6239   1419.35913     697.0001     394.6239
   1419.34387     697.0450     394.8108   1419.34387     697.0450     394.8108
   1419.32861     696.7310     395.4499   1419.32861     696.7310     395.4499
   1419.31335     697.6060     394.7879   1419.31335     697.6060     394.7879
   1419.29810     697.3452     394.9809   1419.29810     697.3452     394.9809
   1419.28284     699.0573     395.1977   1419.28284     699.0573     395.1977
   1419.26758     698.4807     395.8168   1419.26758     698.4807     395.8168
   1419.25232     699.7543     395.5179   1419.25232     699.7543     395.5179
   1419.23706     700.9688     395.5287   1419.23706     700.9688     395.5287
   1419.22180     701.0824     395.5912   1419.22180     701.0824     395.5912
   1419.20654     700.1061     396.4924   1419.20654     700.1061     396.4924
   1419.19128     700.5298     396.4281   1419.19128     700.5298     396.4281
   1419.17603     701.3433     396.3446   1419.17603     701.3433     396.3446
   1419.16077     701.0035     396.3036   1419.16077     701.0035     396.3036
   1419.14551     701.8785     396.6530   1419.14551     701.8785     396.6530
   1419.13025     701.2337     396.3474   1419.13025     701.2337     396.3474
   1419.11499     702.9009     396.6068   1419.11499     702.9009     396.6068
   1419.09973     703.4150     397.0185   1419.09973     703.4150     397.0185
   1419.08447     704.2830     396.9916   1419.08447     704.2830     396.9916
   1419.06921     704.3245     397.5853   1419.06921     704.3245     397.5853
   1419.05396     705.3913     397.8065   1419.05396     705.3913     397.8065
   1419.03870     705.5085     397.7759   1419.03870     705.5085     397.7759
   1419.02344     705.0966     397.6627   1419.02344     705.0966     397.6627
   1419.00818     705.3602     398.4817   1419.00818     705.3602     398.4817
   1418.99292     707.6615     398.7100   1418.99292     707.6615     398.7100
   1418.97766     706.7868     399.0638   1418.97766     706.7868     399.0638
   1418.96240     706.8583     398.8157   1418.96240     706.8583     398.8157
   1418.94714     708.6034     399.3925   1418.94714     708.6034     399.3925
   1418.93188     709.4441     399.8093   1418.93188     709.4441     399.8093
   1418.91663     709.7169     400.9414   1418.91663     709.7169     400.9414
   1418.90137     708.4898     400.8426   1418.90137     708.4898     400.8426
   1418.88611     710.8174     401.0306   1418.88611     710.8174     401.0306
   1418.87085     709.6632     401.2922   1418.87085     709.6632     401.2922
   1418.85559     712.3303     401.2585   1418.85559     712.3303     401.2585
   1418.84033     712.4467     401.4135   1418.84033     712.4467     401.4135
   1418.82507     712.8747     402.4556   1418.82507     712.8747     402.4556
   1418.80981     713.3021     402.3376   1418.80981     713.3021     402.3376
   1418.79456     713.3238     402.9419   1418.79456     713.3238     402.9419
   1418.77930     713.9813     403.4274   1418.77930     713.9813     403.4274
   1418.76404     714.4138     403.8279   1418.76404     714.4138     403.8279
   1418.74878     715.3594     404.1289   1418.74878     715.3594     404.1289
   1418.73352     715.2131     404.7143   1418.73352     715.2131     404.7143
   1418.71826     717.7291     404.9031   1418.71826     717.7291     404.9031
   1418.70300     716.9194     405.8037   1418.70300     716.9194     405.8037
   1418.68774     718.6206     405.8653   1418.68774     718.6206     405.8653
   1418.67249     719.1915     405.6844   1418.67249     719.1915     405.6844
   1418.65723     720.0999     406.3797   1418.65723     720.0999     406.3797
   1418.64197     719.7489     407.3996   1418.64197     719.7489     407.3996
   1418.62671     719.7420     408.1628   1418.62671     719.7420     408.1628
   1418.61145     720.6239     408.3229   1418.61145     720.6239     408.3229
   1418.59619     722.1408     409.0671   1418.59619     722.1408     409.0671
   1418.58093     722.9271     409.3325   1418.58093     722.9271     409.3325
   1418.56567     722.6053     409.7396   1418.56567     722.6053     409.7396
   1418.55042     723.2595     409.5544   1418.55042     723.2595     409.5544
   1418.53516     724.6375     411.4262   1418.53516     724.6375     411.4262
   1418.51990     724.8677     410.9646   1418.51990     724.8677     410.9646
   1418.50464     726.2699     411.2465   1418.50464     726.2699     411.2465
   1418.48938     727.9584     412.6202   1418.48938     727.9584     412.6202
   1418.47412     727.9991     413.0331   1418.47412     727.9991     413.0331
   1418.45886     729.6516     413.5573   1418.45886     729.6516     413.5573
   1418.44360     728.4050     414.1129   1418.44360     728.4050     414.1129
   1418.42834     731.2751     415.4341   1418.42834     731.2751     415.4341
   1418.41309     730.8088     415.8766   1418.41309     730.8088     415.8766
   1418.39783     731.5674     416.4629   1418.39783     731.5674     416.4629
   1418.38257     732.5158     416.8904   1418.38257     732.5158     416.8904
   1418.36731     733.7644     417.9961   1418.36731     733.7644     417.9961
   1418.35205     734.7262     418.1847   1418.35205     734.7262     418.1847
   1418.33679     734.4525     419.0461   1418.33679     734.4525     419.0461
   1418.32153     735.9766     419.7151   1418.32153     735.9766     419.7151
   1418.30627     735.5176     420.4093   1418.30627     735.5176     420.4093
   1418.29102     736.4871     421.0631   1418.29102     736.4871     421.0631
   1418.27576     738.2354     421.7447   1418.27576     738.2354     421.7447
   1418.26050     739.7186     421.8622   1418.26050     739.7186     421.8622
   1418.24524     739.7819     423.7764   1418.24524     739.7819     423.7764
   1418.22998     740.7630     424.0280   1418.22998     740.7630     424.0280
   1418.21472     741.5500     424.1616   1418.21472     741.5500     424.1616
   1418.19946     741.8779     425.0306   1418.19946     741.8779     425.0306
   1418.18420     743.8422     426.3958   1418.18420     743.8422     426.3958
   1418.16895     743.4429     426.8209   1418.16895     743.4429     426.8209
   1418.15369     745.1225     427.5455   1418.15369     745.1225     427.5455
   1418.13843     745.8752     428.8775   1418.13843     745.8752     428.8775
   1418.12317     747.3455     429.4537   1418.12317     747.3455     429.4537
   1418.10791     747.3761     429.9660   1418.10791     747.3761     429.9660
   1418.09265     747.7377     430.6212   1418.09265     747.7377     430.6212
   1418.07739     750.6666     431.0265   1418.07739     750.6666     431.0265
   1418.06213     750.6861     432.3067   1418.06213     750.6861     432.3067
   1418.04688     751.2272     432.9595   1418.04688     751.2272     432.9595
   1418.03162     751.8331     433.5274   1418.03162     751.8331     433.5274
   1418.01636     753.2105     434.7668   1418.01636     753.2105     434.7668
   1418.00110     754.5804     435.4038   1418.00110     754.5804     435.4038
   1417.98584     753.8057     435.9658   1417.98584     753.8057     435.9658
   1417.97058     756.3140     437.2294   1417.97058     756.3140     437.2294
   1417.95532     756.4542     436.8686   1417.95532     756.4542     436.8686
   1417.94006     756.6610     438.6281   1417.94006     756.6610     438.6281
   1417.92480     757.8502     440.1721   1417.92480     757.8502     440.1721
   1417.90955     759.2084     440.8988   1417.90955     759.2084     440.8988
   1417.89429     759.6311     441.7316   1417.89429     759.6311     441.7316
   1417.87903     761.0991     442.4330   1417.87903     761.0991     442.4330
   1417.86377     761.8133     443.1682   1417.86377     761.8133     443.1682
   1417.84851     762.6748     443.8466   1417.84851     762.6748     443.8466
   1417.83325     763.0364     445.0976   1417.83325     763.0364     445.0976
   1417.81799     764.8012     446.0737   1417.81799     764.8012     446.0737
   1417.80273     765.6100     447.2952   1417.80273     765.6100     447.2952
   1417.78748     764.8901     447.7516   1417.78748     764.8901     447.7516
   1417.77222     765.3142     448.7569   1417.77222     765.3142     448.7569
   1417.75696     768.0831     449.5151   1417.75696     768.0831     449.5151
   1417.74170     767.8193     450.5476   1417.74170     767.8193     450.5476
   1417.72644     767.1972     451.0934   1417.72644     767.1972     451.0934
   1417.71118     770.8166     452.0759   1417.71118     770.8166     452.0759
   1417.69592     770.9200     453.6691   1417.69592     770.9200     453.6691
   1417.68066     771.6162     454.6597   1417.68066     771.6162     454.6597
   1417.66541     775.0580     455.8941   1417.66541     775.0580     455.8941
   1417.65015     772.9135     456.5359   1417.65015     772.9135     456.5359
   1417.63489     773.6362     457.4666   1417.63489     773.6362     457.4666
   1417.61963     775.9097     459.0912   1417.61963     775.9097     459.0912
   1417.60437     775.2985     459.0820   1417.60437     775.2985     459.0820
   1417.58911     777.3135     460.6215   1417.58911     777.3135     460.6215
   1417.57385     776.5206     461.3381   1417.57385     776.5206     461.3381
   1417.55859     778.8778     461.8162   1417.55859     778.8778     461.8162
   1417.54333     778.4903     463.2932   1417.54333     778.4903     463.2932
   1417.52808     779.6699     465.0363   1417.52808     779.6699     465.0363
   1417.51282     779.6583     465.2264   1417.51282     779.6583     465.2264
   1417.49756     781.4280     465.6241   1417.49756     781.4280     465.6241
   1417.48230     782.7192     467.1212   1417.48230     782.7192     467.1212
   1417.46704     782.6007     468.2358   1417.46704     782.6007     468.2358
   1417.45178     783.2313     468.8437   1417.45178     783.2313     468.8437
   1417.43652     784.9576     470.1491   1417.43652     784.9576     470.1491
   1417.42126     785.8804     471.3118   1417.42126     785.8804     471.3118
   1417.40601     786.2239     472.1447   1417.40601     786.2239     472.1447
   1417.39075     787.0061     472.9991   1417.39075     787.0061     472.9991
   1417.37549     788.7518     473.8868   1417.37549     788.7518     473.8868
   1417.36023     787.2041     475.1746   1417.36023     787.2041     475.1746
   1417.34497     789.1367     475.9975   1417.34497     789.1367     475.9975
   1417.32971     789.6201     476.8622   1417.32971     789.6201     476.8622
   1417.31445     790.7329     477.6157   1417.31445     790.7329     477.6157
   1417.29919     791.1024     478.4424   1417.29919     791.1024     478.4424
   1417.28394     789.6102     480.1761   1417.28394     789.6102     480.1761
   1417.26868     791.6394     480.8793   1417.26868     791.6394     480.8793
   1417.25342     793.3519     482.4613   1417.25342     793.3519     482.4613
   1417.23816     792.0938     482.9127   1417.23816     792.0938     482.9127
   1417.22290     794.0169     483.7398   1417.22290     794.0169     483.7398
   1417.20764     794.7767     484.7048   1417.20764     794.7767     484.7048
   1417.19238     795.0225     486.1772   1417.19238     795.0225     486.1772
   1417.17712     794.8865     486.6064   1417.17712     794.8865     486.6064
   1417.16187     796.9663     487.6560   1417.16187     796.9663     487.6560
   1417.14661     797.5732     488.9366   1417.14661     797.5732     488.9366
   1417.13135     796.9425     490.4203   1417.13135     796.9425     490.4203
   1417.11609     797.5041     490.7941   1417.11609     797.5041     490.7941
   1417.10083     798.9987     491.7596   1417.10083     798.9987     491.7596
   1417.08557     799.5740     491.8258   1417.08557     799.5740     491.8258
   1417.07031     797.8507     494.1223   1417.07031     797.8507     494.1223
   1417.05505     800.9527     494.0800   1417.05505     800.9527     494.0800
   1417.03979     799.8658     494.7954   1417.03979     799.8658     494.7954
   1417.02454     799.5407     495.2958   1417.02454     799.5407     495.2958
   1417.00928     800.8742     496.6965   1417.00928     800.8742     496.6965
   1416.99402     801.0744     497.5838   1416.99402     801.0744     497.5838
   1416.97876     801.5170     498.7630   1416.97876     801.5170     498.7630
   1416.96350     801.2386     499.5353   1416.96350     801.2386     499.5353
   1416.94824     802.2589     500.4487   1416.94824     802.2589     500.4487
   1416.93298     802.4505     501.7041   1416.93298     802.4505     501.7041
   1416.91772     803.1158     502.0324   1416.91772     803.1158     502.0324
   1416.90247     802.7614     502.7883   1416.90247     802.7614     502.7883
   1416.88721     803.6494     503.4832   1416.88721     803.6494     503.4832
   1416.87195     804.4376     504.1191   1416.87195     804.4376     504.1191
   1416.85669     803.6910     504.1290   1416.85669     803.6910     504.1290
   1416.84143     803.3860     505.3488   1416.84143     803.3860     505.3488
   1416.82617     804.2548     506.5007   1416.82617     804.2548     506.5007
   1416.81091     804.1813     507.2561   1416.81091     804.1813     507.2561
   1416.79565     804.2845     508.0467   1416.79565     804.2845     508.0467
   1416.78040     804.5562     508.3841   1416.78040     804.5562     508.3841
   1416.76514     804.9681     509.5259   1416.76514     804.9681     509.5259
   1416.74988     805.3588     509.5517   1416.74988     805.3588     509.5517
   1416.73462     804.6945     510.6938   1416.73462     804.6945     510.6938
   1416.71936     804.5335     510.4253   1416.71936     804.5335     510.4253
   1416.70410     805.2275     511.4154   1416.70410     805.2275     511.4154
   1416.68884     803.9944     511.8478   1416.68884     803.9944     511.8478
   1416.67358     805.8397     512.8629   1416.67358     805.8397     512.8629
   1416.65833     804.1789     513.4193   1416.65833     804.1789     513.4193
   1416.64307     804.8972     513.3655   1416.64307     804.8972     513.3655
   1416.62781     803.3665     513.8831   1416.62781     803.3665     513.8831
   1416.61255     804.6865     515.1599   1416.61255     804.6865     515.1599
   1416.59729     804.3703     515.3366   1416.59729     804.3703     515.3366
   1416.58203     804.4571     515.4512   1416.58203     804.4571     515.4512
   1416.56677     804.0391     515.7366   1416.56677     804.0391     515.7366
   1416.55151     805.5284     517.1289   1416.55151     805.5284     517.1289
   1416.53625     804.8861     518.2159   1416.53625     804.8861     518.2159
   1416.52100     804.2334     517.6062   1416.52100     804.2334     517.6062
   1416.50574     803.6933     517.7715   1416.50574     803.6933     517.7715
   1416.49048     802.5205     518.1847   1416.49048     802.5205     518.1847
   1416.47522     803.2729     517.3954   1416.47522     803.2729     517.3954
   1416.45996     802.7905     518.7946   1416.45996     802.7905     518.7946
   1416.44470     803.2104     518.2214   1416.44470     803.2104     518.2214
   1416.42944     802.3776     519.0055   1416.42944     802.3776     519.0055
   1416.41418     803.3077     518.8471   1416.41418     803.3077     518.8471
   1416.39893     801.4722     519.2260   1416.39893     801.4722     519.2260
   1416.38367     800.8721     519.7446   1416.38367     800.8721     519.7446
   1416.36841     800.7387     520.2532   1416.36841     800.7387     520.2532
   1416.35315     802.0004     519.7110   1416.35315     802.0004     519.7110
   1416.33789     798.9320     520.8770   1416.33789     798.9320     520.8770
   1416.32263     800.5021     520.8846   1416.32263     800.5021     520.8846
   1416.30737     800.3425     521.2266   1416.30737     800.3425     521.2266
   1416.29211     798.0416     520.7194   1416.29211     798.0416     520.7194
   1416.27686     798.2722     520.6719   1416.27686     798.2722     520.6719
   1416.26160     797.1896     520.8560   1416.26160     797.1896     520.8560
   1416.24634     797.4034     521.0018   1416.24634     797.4034     521.0018
   1416.23108     796.2656     520.4232   1416.23108     796.2656     520.4232
   1416.21582     797.0847     521.5608   1416.21582     797.0847     521.5608
   1416.20056     796.6968     521.0492   1416.20056     796.6968     521.0492
   1416.18530     795.0670     521.3400   1416.18530     795.0670     521.3400
   1416.17004     795.2782     520.9395   1416.17004     795.2782     520.9395
   1416.15479     793.4840     521.0008   1416.15479     793.4840     521.0008
   1416.13953     793.4667     521.2918   1416.13953     793.4667     521.2918
   1416.12427     792.7480     521.4456   1416.12427     792.7480     521.4456
   1416.10901     791.8705     521.6949   1416.10901     791.8705     521.6949
   1416.09375     792.1707     521.4427   1416.09375     792.1707     521.4427
   1416.07849     790.5588     520.9905   1416.07849     790.5588     520.9905
   1416.06323     790.0826     521.3563   1416.06323     790.0826     521.3563
   1416.04797     789.4498     520.7517   1416.04797     789.4498     520.7517
   1416.03271     790.7542     520.2073   1416.03271     790.7542     520.2073
   1416.01746     788.5732     521.3684   1416.01746     788.5732     521.3684
   1416.00220     788.4902     520.1335   1416.00220     788.4902     520.1335
   1415.98694     787.7134     520.3884   1415.98694     787.7134     520.3884
   1415.97168     787.3817     520.1757   1415.97168     787.3817     520.1757
   1415.95642     785.5544     521.0927   1415.95642     785.5544     521.0927
   1415.94116     784.5783     520.4426   1415.94116     784.5783     520.4426
   1415.92590     784.9713     520.9308   1415.92590     784.9713     520.9308
   1415.91064     784.2014     519.4335   1415.91064     784.2014     519.4335
   1415.89539     782.0319     519.8159   1415.89539     782.0319     519.8159
   1415.88013     782.8967     519.7826   1415.88013     782.8967     519.7826
   1415.86487     781.9599     519.7358   1415.86487     781.9599     519.7358
   1415.84961     780.2508     519.2376   1415.84961     780.2508     519.2376
   1415.83435     778.7771     519.0880   1415.83435     778.7771     519.0880
   1415.81909     779.3612     518.7955   1415.81909     779.3612     518.7955
   1415.80383     777.2784     517.7001   1415.80383     777.2784     517.7001
   1415.78857     777.9935     519.2436   1415.78857     777.9935     519.2436
   1415.77332     776.7247     517.5331   1415.77332     776.7247     517.5331
   1415.75806     774.5420     517.6216   1415.75806     774.5420     517.6216
   1415.74280     774.2064     516.6907   1415.74280     774.2064     516.6907
   1415.72754     772.9777     517.7833   1415.72754     772.9777     517.7833
   1415.71228     772.2631     516.8495   1415.71228     772.2631     516.8495
   1415.69702     771.6795     516.5963   1415.69702     771.6795     516.5963
   1415.68176     769.8563     516.9979   1415.68176     769.8563     516.9979
   1415.66650     769.4185     516.4755   1415.66650     769.4185     516.4755
   1415.65125     768.9829     515.8633   1415.65125     768.9829     515.8633
   1415.63599     766.9847     515.7439   1415.63599     766.9847     515.7439
   1415.62073     768.0368     515.3055   1415.62073     768.0368     515.3055
   1415.60547     766.1425     515.3295   1415.60547     766.1425     515.3295
   1415.59021     765.9383     515.1068   1415.59021     765.9383     515.1068
   1415.57495     764.3883     515.4359   1415.57495     764.3883     515.4359
   1415.55969     762.8959     513.5927   1415.55969     762.8959     513.5927
   1415.54443     761.6462     512.7834   1415.54443     761.6462     512.7834
   1415.52917     762.1378     513.5417   1415.52917     762.1378     513.5417
   1415.51392     760.1512     512.9730   1415.51392     760.1512     512.9730
   1415.49866     760.9120     512.6837   1415.49866     760.9120     512.6837
   1415.48340     759.4713     512.6691   1415.48340     759.4713     512.6691
   1415.46814     756.3661     512.0229   1415.46814     756.3661     512.0229
   1415.45288     755.9799     511.8521   1415.45288     755.9799     511.8521
   1415.43762     754.8167     511.6724   1415.43762     754.8167     511.6724
   1415.42236     753.3428     511.0078   1415.42236     753.3428     511.0078
   1415.40710     752.8010     511.0345   1415.40710     752.8010     511.0345
   1415.39185     752.0054     509.7314   1415.39185     752.0054     509.7314
   1415.37659     749.6866     510.1807   1415.37659     749.6866     510.1807
   1415.36133     748.9341     509.1594   1415.36133     748.9341     509.1594
   1415.34607     748.9493     509.3632   1415.34607     748.9493     509.3632
   1415.33081     746.8077     508.2586   1415.33081     746.8077     508.2586
   1415.31555     745.3737     508.7836   1415.31555     745.3737     508.7836
   1415.30029     744.8064     507.4383   1415.30029     744.8064     507.4383
   1415.28503     743.6138     506.7539   1415.28503     743.6138     506.7539
   1415.26978     742.8550     506.8620   1415.26978     742.8550     506.8620
   1415.25452     742.0242     505.8644   1415.25452     742.0242     505.8644
   1415.23926     739.7798     506.0040   1415.23926     739.7798     506.0040
   1415.22400     738.2229     505.8378   1415.22400     738.2229     505.8378
   1415.20874     736.8593     504.9030   1415.20874     736.8593     504.9030
   1415.19348     737.2184     504.0915   1415.19348     737.2184     504.0915
   1415.17822     734.2265     505.2040   1415.17822     734.2265     505.2040
   1415.16296     733.2802     502.9478   1415.16296     733.2802     502.9478
   1415.14771     732.4825     503.3644   1415.14771     732.4825     503.3644
   1415.13245     730.4782     503.0468   1415.13245     730.4782     503.0468
   1415.11719     729.4677     501.7384   1415.11719     729.4677     501.7384
   1415.10193     728.0389     500.7570   1415.10193     728.0389     500.7570
   1415.08667     727.6220     500.7486   1415.08667     727.6220     500.7486
   1415.07141     724.5684     501.1140   1415.07141     724.5684     501.1140
   1415.05615     724.3438     499.8402   1415.05615     724.3438     499.8402
   1415.04089     722.2609     498.6141   1415.04089     722.2609     498.6141
   1415.02563     720.7735     498.3045   1415.02563     720.7735     498.3045
   1415.01038     719.6497     497.1428   1415.01038     719.6497     497.1428
   1414.99512     718.0535     496.8026   1414.99512     718.0535     496.8026
   1414.97986     717.4266     496.9654   1414.97986     717.4266     496.9654
   1414.96460     713.6079     495.4241   1414.96460     713.6079     495.4241
   1414.94934     714.7830     495.1081   1414.94934     714.7830     495.1081
   1414.93408     712.3226     494.1980   1414.93408     712.3226     494.1980
   1414.91882     710.8251     492.9337   1414.91882     710.8251     492.9337
   1414.90356     710.3643     493.4011   1414.90356     710.3643     493.4011
   1414.88831     708.0840     492.4805   1414.88831     708.0840     492.4805
   1414.87305     706.5435     491.2715   1414.87305     706.5435     491.2715
   1414.85779     705.0455     491.2141   1414.85779     705.0455     491.2141
   1414.84253     702.9908     490.5603   1414.84253     702.9908     490.5603
   1414.82727     701.4382     489.3436   1414.82727     701.4382     489.3436
   1414.81201     699.0194     488.3020   1414.81201     699.0194     488.3020
   1414.79675     697.6036     487.2750   1414.79675     697.6036     487.2750
   1414.78149     695.2604     486.6768   1414.78149     695.2604     486.6768
   1414.76624     693.8525     486.1309   1414.76624     693.8525     486.1309
   1414.75098     693.9652     484.6877   1414.75098     693.9652     484.6877
   1414.73572     691.4347     484.4918   1414.73572     691.4347     484.4918
   1414.72046     688.8985     482.7050   1414.72046     688.8985     482.7050
   1414.70520     687.1526     481.6478   1414.70520     687.1526     481.6478
   1414.68994     684.9619     482.0883   1414.68994     684.9619     482.0883
   1414.67468     683.6013     480.6797   1414.67468     683.6013     480.6797
   1414.65942     681.4789     479.3332   1414.65942     681.4789     479.3332
   1414.64417     679.8612     479.1147   1414.64417     679.8612     479.1147
   1414.62891     677.1150     477.4420   1414.62891     677.1150     477.4420
   1414.61365     676.3312     477.0721   1414.61365     676.3312     477.0721
   1414.59839     674.1491     476.1853   1414.59839     674.1491     476.1853
   1414.58313     672.2409     474.9427   1414.58313     672.2409     474.9427
   1414.56787     670.6843     474.3972   1414.56787     670.6843     474.3972
   1414.55261     668.3859     473.1840   1414.55261     668.3859     473.1840
   1414.53735     666.3130     471.7616   1414.53735     666.3130     471.7616
   1414.52209     664.2599     471.0990   1414.52209     664.2599     471.0990
   1414.50684     661.7869     469.8329   1414.50684     661.7869     469.8329
   1414.49158     660.0786     467.7697   1414.49158     660.0786     467.7697
   1414.47632     658.2602     467.7719   1414.47632     658.2602     467.7719
   1414.46106     656.6642     465.8357   1414.46106     656.6642     465.8357
   1414.44580     654.0925     465.6289   1414.44580     654.0925     465.6289
   1414.43054     651.1612     463.9583   1414.43054     651.1612     463.9583
   1414.41528     649.3673     463.2161   1414.41528     649.3673     463.2161
   1414.40002     646.3201     462.2495   1414.40002     646.3201     462.2495
   1414.38477     644.5105     460.8483   1414.38477     644.5105     460.8483
   1414.36951     642.3473     459.9212   1414.36951     642.3473     459.9212
   1414.35425     640.5878     458.9671   1414.35425     640.5878     458.9671
   1414.33899     639.0017     456.9779   1414.33899     639.0017     456.9779
   1414.32373     636.7450     455.7790   1414.32373     636.7450     455.7790
   1414.30847     634.2852     454.4860   1414.30847     634.2852     454.4860
   1414.29321     632.1675     453.2256   1414.29321     632.1675     453.2256
   1414.27795     629.0606     452.2967   1414.27795     629.0606     452.2967
   1414.26270     626.8367     450.7921   1414.26270     626.8367     450.7921
   1414.24744     625.1924     449.4423   1414.24744     625.1924     449.4423
   1414.23218     622.1875     448.6688   1414.23218     622.1875     448.6688
   1414.21692     618.7281     447.3165   1414.21692     618.7281     447.3165
   1414.20166     617.6396     445.7122   1414.20166     617.6396     445.7122
   1414.18640     615.7943     443.9139   1414.18640     615.7943     443.9139
   1414.17114     612.6906     442.2459   1414.17114     612.6906     442.2459
   1414.15588     610.4370     441.7785   1414.15588     610.4370     441.7785
   1414.14062     607.6473     440.0737   1414.14062     607.6473     440.0737
   1414.12537     604.5796     438.4785   1414.12537     604.5796     438.4785
   1414.11011     602.4133     437.8314   1414.11011     602.4133     437.8314
   1414.09485     600.8560     435.6201   1414.09485     600.8560     435.6201
   1414.07959     597.0502     434.6818   1414.07959     597.0502     434.6818
   1414.06433     595.3920     433.2555   1414.06433     595.3920     433.2555
   1414.04907     593.5455     431.3536   1414.04907     593.5455     431.3536
   1414.03381     590.6555     429.8545   1414.03381     590.6555     429.8545
   1414.01855     587.8010     428.8572   1414.01855     587.8010     428.8572
   1414.00330     599.9718     432.6636   1414.00330     599.9718     432.6636
   1413.98804     583.2669     425.6873   1413.98804     583.2669     425.6873
   1413.97278     580.2184     425.0515   1413.97278     580.2184     425.0515
   1413.95752     577.4412     422.4339   1413.95752     577.4412     422.4339
   1413.94226     574.6272     421.8687   1413.94226     574.6272     421.8687
   1413.92700     572.3704     420.0676   1413.92700     572.3704     420.0676
   1413.91174     568.9130     418.7238   1413.91174     568.9130     418.7238
   1413.89648     567.1172     417.1227   1413.89648     567.1172     417.1227
   1413.88123     563.8181     415.3318   1413.88123     563.8181     415.3318
   1413.86597     561.4052     413.8093   1413.86597     561.4052     413.8093
   1413.85071     558.7725     411.3903   1413.85071     558.7725     411.3903
   1413.83545     556.6857     410.5253   1413.83545     556.6857     410.5253
   1413.82019     553.5899     409.6121   1413.82019     553.5899     409.6121
   1413.80493     550.5016     407.3902   1413.80493     550.5016     407.3902
   1413.78967     548.1489     406.4079   1413.78967     548.1489     406.4079
   1413.77441     545.1298     404.6020   1413.77441     545.1298     404.6020
   1413.75916     542.4935     402.0947   1413.75916     542.4935     402.0947
   1413.74390     539.5981     400.9160   1413.74390     539.5981     400.9160
   1413.72864     537.7578     399.4039   1413.72864     537.7578     399.4039
   1413.71338     535.2568     398.7877   1413.71338     535.2568     398.7877
   1413.69812     532.5320     396.4632   1413.69812     532.5320     396.4632
   1413.68286     529.4543     395.4445   1413.68286     529.4543     395.4445
   1413.66760     525.8042     393.0945   1413.66760     525.8042     393.0945
   1413.65234     523.6481     392.1758   1413.65234     523.6481     392.1758
   1413.63708     521.4130     390.4049   1413.63708     521.4130     390.4049
   1413.62183     518.2696     388.5259   1413.62183     518.2696     388.5259
   1413.60657     514.7311     386.7331   1413.60657     514.7311     386.7331
   1413.59131     514.1147     385.7845   1413.59131     514.1147     385.7845
   1413.57605     510.5518     383.7080   1413.57605     510.5518     383.7080
   1413.56079     507.7702     381.8419   1413.56079     507.7702     381.8419
   1413.54553     505.0131     381.2284   1413.54553     505.0131     381.2284
   1413.53027     501.6897     379.1112   1413.53027     501.6897     379.1112
   1413.51501     499.3131     377.8716   1413.51501     499.3131     377.8716
   1413.49976     496.7171     377.0409   1413.49976     496.7171     377.0409
   1413.48450     493.9936     374.7772   1413.48450     493.9936     374.7772
   1413.46924     492.3241     372.8304   1413.46924     492.3241     372.8304
   1413.45398     489.1627     371.7665   1413.45398     489.1627     371.7665
   1413.43872     485.5432     369.7138   1413.43872     485.5432     369.7138
   1413.42346     483.1027     368.6789   1413.42346     483.1027     368.6789
   1413.40820     480.9368     367.2052   1413.40820     480.9368     367.2052
   1413.39294     478.3750     365.8423   1413.39294     478.3750     365.8423
   1413.37769     475.0270     363.9406   1413.37769     475.0270     363.9406
   1413.36243     473.6764     362.9224   1413.36243     473.6764     362.9224
   1413.34717     470.1299     361.7925   1413.34717     470.1299     361.7925
   1413.33191     468.8806     359.9218   1413.33191     468.8806     359.9218
   1413.31665     465.9079     359.0461   1413.31665     465.9079     359.0461
   1413.30139     463.0645     356.6355   1413.30139     463.0645     356.6355
   1413.28613     460.5883     356.0397   1413.28613     460.5883     356.0397
   1413.27087     457.1476     354.7866   1413.27087     457.1476     354.7866
   1413.25562     455.2276     352.8279   1413.25562     455.2276     352.8279
   1413.24036     453.2527     352.0882   1413.24036     453.2527     352.0882
   1413.22510     451.3210     350.8290   1413.22510     451.3210     350.8290
   1413.20984     448.7533     349.5751   1413.20984     448.7533     349.5751
   1413.19458     446.0963     348.3057   1413.19458     446.0963     348.3057
   1413.17932     444.8444     347.2906   1413.17932     444.8444     347.2906
   1413.16406     441.1553     345.6968   1413.16406     441.1553     345.6968
   1413.14880     438.9141     344.5967   1413.14880     438.9141     344.5967
   1413.13354     437.4292     343.2401   1413.13354     437.4292     343.2401
   1413.11829     434.6289     342.4417   1413.11829     434.6289     342.4417
   1413.10303     432.0026     341.0377   1413.10303     432.0026     341.0377
   1413.08777     430.3865     340.2814   1413.08777     430.3865     340.2814
   1413.07251     428.3094     338.8005   1413.07251     428.3094     338.8005
   1413.05725     425.9641     338.1608   1413.05725     425.9641     338.1608
   1413.04199     423.9716     336.8383   1413.04199     423.9716     336.8383
   1413.02673     422.2648     336.3840   1413.02673     422.2648     336.3840
   1413.01147     419.4321     335.4224   1413.01147     419.4321     335.4224
   1412.99622     418.0428     334.1922   1412.99622     418.0428     334.1922
   1412.98096     416.5196     333.1073   1412.98096     416.5196     333.1073
   1412.96570     414.7341     332.3317   1412.96570     414.7341     332.3317
   1412.95044     411.8889     332.1806   1412.95044     411.8889     332.1806
   1412.93518     409.8578     330.9390   1412.93518     409.8578     330.9390
   1412.91992     408.3792     329.8164   1412.91992     408.3792     329.8164
   1412.90466     406.7620     329.4569   1412.90466     406.7620     329.4569
   1412.88940     405.4572     328.2862   1412.88940     405.4572     328.2862
   1412.87415     403.1942     328.8147   1412.87415     403.1942     328.8147
   1412.85889     401.6390     327.7706   1412.85889     401.6390     327.7706
   1412.84363     399.5860     326.9263   1412.84363     399.5860     326.9263
   1412.82837     397.9956     326.0130   1412.82837     397.9956     326.0130
   1412.81311     396.2174     326.1701   1412.81311     396.2174     326.1701
   1412.79785     395.1539     325.1283   1412.79785     395.1539     325.1283
   1412.78259     394.1555     324.5574   1412.78259     394.1555     324.5574
   1412.76733     392.9056     324.9750   1412.76733     392.9056     324.9750
   1412.75208     391.2997     323.7932   1412.75208     391.2997     323.7932
   1412.73682     389.8628     324.1194   1412.73682     389.8628     324.1194
   1412.72156     388.3691     323.9786   1412.72156     388.3691     323.9786
   1412.70630     387.8197     323.1311   1412.70630     387.8197     323.1311
   1412.69104     386.3449     323.4658   1412.69104     386.3449     323.4658
   1412.67578     385.1634     323.2946   1412.67578     385.1634     323.2946
   1412.66052     384.0947     323.0737   1412.66052     384.0947     323.0737
   1412.64526     383.1781     323.4850   1412.64526     383.1781     323.4850
   1412.63000     382.1254     323.0316   1412.63000     382.1254     323.0316
   1412.61475     380.6773     323.3154   1412.61475     380.6773     323.3154
   1412.59949     380.8363     323.0520   1412.59949     380.8363     323.0520
   1412.58423     379.7231     323.4544   1412.58423     379.7231     323.4544
   1412.56897     378.8664     323.4097   1412.56897     378.8664     323.4097
   1412.55371     378.0057     323.9101   1412.55371     378.0057     323.9101
   1412.53845     377.0638     324.5107   1412.53845     377.0638     324.5107
   1412.52319     376.3792     324.3029   1412.52319     376.3792     324.3029
   1412.50793     376.0779     325.2175   1412.50793     376.0779     325.2175
   1412.49268     375.4669     325.3053   1412.49268     375.4669     325.3053
   1412.47742     375.4471     325.5797   1412.47742     375.4471     325.5797
   1412.46216     374.4305     326.2648   1412.46216     374.4305     326.2648
   1412.44690     374.5302     326.9552   1412.44690     374.5302     326.9552
   1412.43164     374.3907     327.6300   1412.43164     374.3907     327.6300
   1412.41638     373.9447     327.6917   1412.41638     373.9447     327.6917
   1412.40112     373.3805     328.7354   1412.40112     373.3805     328.7354
   1412.38586     372.7642     329.6578   1412.38586     372.7642     329.6578
   1412.37061     373.4823     329.8032   1412.37061     373.4823     329.8032
   1412.35535     373.1570     330.8322   1412.35535     373.1570     330.8322
   1412.34009     373.2655     331.5933   1412.34009     373.2655     331.5933
   1412.32483     374.0769     332.5411   1412.32483     374.0769     332.5411
   1412.30957     373.5605     333.9406   1412.30957     373.5605     333.9406
   1412.29431     373.8945     335.0701   1412.29431     373.8945     335.0701
   1412.27905     374.0768     335.4122   1412.27905     374.0768     335.4122
   1412.26379     374.5814     336.4580   1412.26379     374.5814     336.4580
   1412.24854     374.9128     338.0797   1412.24854     374.9128     338.0797
   1412.23328     374.3203     339.1699   1412.23328     374.3203     339.1699
   1412.21802     375.1021     340.5987   1412.21802     375.1021     340.5987
   1412.20276     376.3204     341.6214   1412.20276     376.3204     341.6214