#     FILENAME=!Skynet_57528_lach-cc-82_20523_20928.cyb.fits
#     BASENAME=Skynet_57528_lach-cc-82_20523_20928
#     SRC_NAME=lach-cc-82
#     OBSERVER=ccmadison16_9505
#     DATE_OBS=2016-05-20T16:05:37.930
#        OBSID=20523
#      SCANNUM=20928
#          MJD=57528.6716
#          UTC=58027
#     SCANTYPE=track
#     DATAMODE=HIRES
#     TUNEFREQ=1420.0000
# Actual_FREQ1=1420.0000
# Actual_FREQ2=1420.0000
#    LO1Tuning=6870.000
#     RFFILTER=1355_1435
#        OBSBW=-15.6250
#        NCHAN=1024 
#        FOCUS=37.0709
#           RA=20:42:20.17
#          DEC=42:15:05.59
#      RA(hrs)=20.705600
#     DEC(deg)=42.251600
#    AZIM(deg)=304.793
#    ELEV(deg)=24.875
#     IFattens=12.00, 11.00
#      WARNING=None
#    TCAL_XL1=7.9635
#    TCAL_YR1=9.1340
#    TCAL_XL2=7.9635
#    TCAL_YR2=9.1340
#     TRX_XL1=11.7060
#     TRX_YR1=11.7060
#     TRX_XL2=11.7060
#     TRX_YR2=11.7060
#        TAVE=1.0000
#Freq1(MHz)          XL1          YR1  Freq2(MHz)          XL2          YR2 

   1427.81250     328.9125     272.4908   1427.81250     328.9125     272.4908
   1427.79724     329.0570     273.3050   1427.79724     329.0570     273.3050
   1427.78198     330.0325     273.8637   1427.78198     330.0325     273.8637
   1427.76672     330.2673     274.5728   1427.76672     330.2673     274.5728
   1427.75146     330.9716     275.2945   1427.75146     330.9716     275.2945
   1427.73621     331.7543     275.8493   1427.73621     331.7543     275.8493
   1427.72095     332.7997     276.2408   1427.72095     332.7997     276.2408
   1427.70569     332.6637     277.4989   1427.70569     332.6637     277.4989
   1427.69043     333.9888     278.0253   1427.69043     333.9888     278.0253
   1427.67517     334.6580     278.5330   1427.67517     334.6580     278.5330
   1427.65991     335.8340     279.5210   1427.65991     335.8340     279.5210
   1427.64465     337.3418     280.2489   1427.64465     337.3418     280.2489
   1427.62939     337.3802     281.9898   1427.62939     337.3802     281.9898
   1427.61414     339.0711     282.4831   1427.61414     339.0711     282.4831
   1427.59888     339.8864     283.4392   1427.59888     339.8864     283.4392
   1427.58362     340.7710     284.3293   1427.58362     340.7710     284.3293
   1427.56836     341.8542     285.9874   1427.56836     341.8542     285.9874
   1427.55310     343.6747     287.1218   1427.55310     343.6747     287.1218
   1427.53784     344.7313     288.1750   1427.53784     344.7313     288.1750
   1427.52258     346.0139     289.5278   1427.52258     346.0139     289.5278
   1427.50732     347.9824     290.6633   1427.50732     347.9824     290.6633
   1427.49207     348.3902     292.0652   1427.49207     348.3902     292.0652
   1427.47681     350.3183     293.3055   1427.47681     350.3183     293.3055
   1427.46155     351.7003     294.4447   1427.46155     351.7003     294.4447
   1427.44629     353.3157     295.6868   1427.44629     353.3157     295.6868
   1427.43103     354.5612     297.6621   1427.43103     354.5612     297.6621
   1427.41577     356.3917     299.0033   1427.41577     356.3917     299.0033
   1427.40051     358.2615     300.7606   1427.40051     358.2615     300.7606
   1427.38525     359.4943     302.1455   1427.38525     359.4943     302.1455
   1427.37000     361.3840     303.9128   1427.37000     361.3840     303.9128
   1427.35474     363.0277     305.1076   1427.35474     363.0277     305.1076
   1427.33948     364.3520     306.8372   1427.33948     364.3520     306.8372
   1427.32422     366.4265     308.5238   1427.32422     366.4265     308.5238
   1427.30896     369.0920     310.3683   1427.30896     369.0920     310.3683
   1427.29370     370.2304     311.8543   1427.29370     370.2304     311.8543
   1427.27844     372.3199     313.3779   1427.27844     372.3199     313.3779
   1427.26318     374.7061     315.3459   1427.26318     374.7061     315.3459
   1427.24792     376.0842     316.9438   1427.24792     376.0842     316.9438
   1427.23267     378.6538     319.2839   1427.23267     378.6538     319.2839
   1427.21741     380.4352     321.1518   1427.21741     380.4352     321.1518
   1427.20215     382.5981     322.7427   1427.20215     382.5981     322.7427
   1427.18689     384.3865     324.5916   1427.18689     384.3865     324.5916
   1427.17163     387.0345     326.5906   1427.17163     387.0345     326.5906
   1427.15637     389.3547     328.6480   1427.15637     389.3547     328.6480
   1427.14111     390.1260     330.1353   1427.14111     390.1260     330.1353
   1427.12585     393.2031     331.9839   1427.12585     393.2031     331.9839
   1427.11060     395.7043     334.2848   1427.11060     395.7043     334.2848
   1427.09534     397.4726     336.3167   1427.09534     397.4726     336.3167
   1427.08008     399.9165     338.2539   1427.08008     399.9165     338.2539
   1427.06482     402.5667     340.4172   1427.06482     402.5667     340.4172
   1427.04956     405.5625     342.5403   1427.04956     405.5625     342.5403
   1427.03430     407.6558     344.7600   1427.03430     407.6558     344.7600
   1427.01904     409.5288     346.8955   1427.01904     409.5288     346.8955
   1427.00378     412.2209     349.0828   1427.00378     412.2209     349.0828
   1426.98853     414.7294     350.8982   1426.98853     414.7294     350.8982
   1426.97327     416.9432     353.3069   1426.97327     416.9432     353.3069
   1426.95801     419.0546     355.2372   1426.95801     419.0546     355.2372
   1426.94275     421.8156     357.7182   1426.94275     421.8156     357.7182
   1426.92749     424.0605     359.9345   1426.92749     424.0605     359.9345
   1426.91223     426.2197     361.9207   1426.91223     426.2197     361.9207
   1426.89697     428.7245     364.1300   1426.89697     428.7245     364.1300
   1426.88171     431.4016     366.1096   1426.88171     431.4016     366.1096
   1426.86646     434.0627     368.2773   1426.86646     434.0627     368.2773
   1426.85120     437.7473     370.8425   1426.85120     437.7473     370.8425
   1426.83594     439.6164     372.8488   1426.83594     439.6164     372.8488
   1426.82068     442.3099     375.4340   1426.82068     442.3099     375.4340
   1426.80542     444.6682     377.7187   1426.80542     444.6682     377.7187
   1426.79016     447.4331     379.7582   1426.79016     447.4331     379.7582
   1426.77490     449.9550     381.5129   1426.77490     449.9550     381.5129
   1426.75964     452.7584     383.5317   1426.75964     452.7584     383.5317
   1426.74438     455.0643     386.4168   1426.74438     455.0643     386.4168
   1426.72913     457.8033     389.0027   1426.72913     457.8033     389.0027
   1426.71387     460.0045     391.3485   1426.71387     460.0045     391.3485
   1426.69861     462.1549     392.8374   1426.69861     462.1549     392.8374
   1426.68335     465.1760     395.0956   1426.68335     465.1760     395.0956
   1426.66809     467.7044     397.8191   1426.66809     467.7044     397.8191
   1426.65283     470.9750     400.0556   1426.65283     470.9750     400.0556
   1426.63757     473.4302     401.8180   1426.63757     473.4302     401.8180
   1426.62231     477.7224     405.7028   1426.62231     477.7224     405.7028
   1426.60706     478.3705     406.7784   1426.60706     478.3705     406.7784
   1426.59180     482.3636     408.8116   1426.59180     482.3636     408.8116
   1426.57654     483.8893     410.7430   1426.57654     483.8893     410.7430
   1426.56128     486.1526     413.2247   1426.56128     486.1526     413.2247
   1426.54602     488.0758     415.2738   1426.54602     488.0758     415.2738
   1426.53076     491.2301     417.6954   1426.53076     491.2301     417.6954
   1426.51550     493.7636     420.1526   1426.51550     493.7636     420.1526
   1426.50024     496.5061     422.3899   1426.50024     496.5061     422.3899
   1426.48499     499.4810     424.3020   1426.48499     499.4810     424.3020
   1426.46973     502.1570     426.0699   1426.46973     502.1570     426.0699
   1426.45447     504.3096     428.5798   1426.45447     504.3096     428.5798
   1426.43921     506.6844     430.2856   1426.43921     506.6844     430.2856
   1426.42395     509.7285     431.9077   1426.42395     509.7285     431.9077
   1426.40869     511.4429     434.1648   1426.40869     511.4429     434.1648
   1426.39343     514.4383     435.9576   1426.39343     514.4383     435.9576
   1426.37817     517.0457     439.1877   1426.37817     517.0457     439.1877
   1426.36292     520.2234     440.4777   1426.36292     520.2234     440.4777
   1426.34766     522.5468     443.7576   1426.34766     522.5468     443.7576
   1426.33240     525.0295     444.0119   1426.33240     525.0295     444.0119
   1426.31714     526.7719     446.3933   1426.31714     526.7719     446.3933
   1426.30188     529.7620     448.9402   1426.30188     529.7620     448.9402
   1426.28662     531.7594     450.9979   1426.28662     531.7594     450.9979
   1426.27136     533.9705     453.7601   1426.27136     533.9705     453.7601
   1426.25610     536.2562     454.7142   1426.25610     536.2562     454.7142
   1426.24084     539.2294     457.4091   1426.24084     539.2294     457.4091
   1426.22559     540.4734     459.2410   1426.22559     540.4734     459.2410
   1426.21033     543.3406     461.3552   1426.21033     543.3406     461.3552
   1426.19507     546.5623     463.1298   1426.19507     546.5623     463.1298
   1426.17981     548.2699     464.8843   1426.17981     548.2699     464.8843
   1426.16455     549.3894     466.8008   1426.16455     549.3894     466.8008
   1426.14929     553.0941     467.7374   1426.14929     553.0941     467.7374
   1426.13403     555.2233     470.3019   1426.13403     555.2233     470.3019
   1426.11877     556.6298     472.0676   1426.11877     556.6298     472.0676
   1426.10352     559.9555     473.8186   1426.10352     559.9555     473.8186
   1426.08826     562.1738     475.1767   1426.08826     562.1738     475.1767
   1426.07300     563.9182     477.4032   1426.07300     563.9182     477.4032
   1426.05774     566.4073     479.2878   1426.05774     566.4073     479.2878
   1426.04248     567.7757     480.4099   1426.04248     567.7757     480.4099
   1426.02722     570.7628     482.3303   1426.02722     570.7628     482.3303
   1426.01196     572.5786     484.7347   1426.01196     572.5786     484.7347
   1425.99670     574.1437     485.5914   1425.99670     574.1437     485.5914
   1425.98145     576.8989     488.0527   1425.98145     576.8989     488.0527
   1425.96619     579.2084     489.4484   1425.96619     579.2084     489.4484
   1425.95093     580.3063     491.1620   1425.95093     580.3063     491.1620
   1425.93567     582.5578     491.9605   1425.93567     582.5578     491.9605
   1425.92041     584.1693     493.7725   1425.92041     584.1693     493.7725
   1425.90515     587.1252     495.4669   1425.90515     587.1252     495.4669
   1425.88989     588.5374     497.5101   1425.88989     588.5374     497.5101
   1425.87463     590.3049     498.7931   1425.87463     590.3049     498.7931
   1425.85938     591.3531     500.7119   1425.85938     591.3531     500.7119
   1425.84412     594.3958     501.5158   1425.84412     594.3958     501.5158
   1425.82886     594.7941     503.3837   1425.82886     594.7941     503.3837
   1425.81360     597.4703     505.3179   1425.81360     597.4703     505.3179
   1425.79834     599.5342     505.9602   1425.79834     599.5342     505.9602
   1425.78308     599.7679     508.3925   1425.78308     599.7679     508.3925
   1425.76782     603.0317     509.2714   1425.76782     603.0317     509.2714
   1425.75256     604.3938     510.5418   1425.75256     604.3938     510.5418
   1425.73730     606.2959     513.1804   1425.73730     606.2959     513.1804
   1425.72205     607.1169     513.9094   1425.72205     607.1169     513.9094
   1425.70679     609.1692     515.0591   1425.70679     609.1692     515.0591
   1425.69153     610.6154     516.6188   1425.69153     610.6154     516.6188
   1425.67627     611.9217     517.8418   1425.67627     611.9217     517.8418
   1425.66101     614.0132     518.7791   1425.66101     614.0132     518.7791
   1425.64575     614.2518     520.1924   1425.64575     614.2518     520.1924
   1425.63049     616.5241     521.8372   1425.63049     616.5241     521.8372
   1425.61523     618.3878     522.1847   1425.61523     618.3878     522.1847
   1425.59998     618.8586     524.1872   1425.59998     618.8586     524.1872
   1425.58472     621.1225     525.3297   1425.58472     621.1225     525.3297
   1425.56946     622.6015     525.5114   1425.56946     622.6015     525.5114
   1425.55420     623.2673     528.5276   1425.55420     623.2673     528.5276
   1425.53894     624.8897     529.7271   1425.53894     624.8897     529.7271
   1425.52368     625.3820     530.1382   1425.52368     625.3820     530.1382
   1425.50842     625.8798     531.6099   1425.50842     625.8798     531.6099
   1425.49316     627.6304     532.0691   1425.49316     627.6304     532.0691
   1425.47791     629.4986     533.5563   1425.47791     629.4986     533.5563
   1425.46265     631.2814     535.0753   1425.46265     631.2814     535.0753
   1425.44739     631.4097     536.2506   1425.44739     631.4097     536.2506
   1425.43213     632.9802     537.5072   1425.43213     632.9802     537.5072
   1425.41687     634.6779     540.0096   1425.41687     634.6779     540.0096
   1425.40161     634.9471     539.3749   1425.40161     634.9471     539.3749
   1425.38635     635.6902     541.0511   1425.38635     635.6902     541.0511
   1425.37109     636.9976     541.3203   1425.37109     636.9976     541.3203
   1425.35583     637.6729     542.9803   1425.35583     637.6729     542.9803
   1425.34058     639.8965     542.8612   1425.34058     639.8965     542.8612
   1425.32532     639.9066     544.5793   1425.32532     639.9066     544.5793
   1425.31006     640.7336     545.2877   1425.31006     640.7336     545.2877
   1425.29480     642.8182     546.0325   1425.29480     642.8182     546.0325
   1425.27954     643.1838     546.9103   1425.27954     643.1838     546.9103
   1425.26428     643.7649     549.1985   1425.26428     643.7649     549.1985
   1425.24902     643.7110     549.7296   1425.24902     643.7110     549.7296
   1425.23376     646.1281     551.5980   1425.23376     646.1281     551.5980
   1425.21851     646.9900     552.2109   1425.21851     646.9900     552.2109
   1425.20325     647.3309     552.8342   1425.20325     647.3309     552.8342
   1425.18799     648.5034     553.9866   1425.18799     648.5034     553.9866
   1425.17273     649.6243     554.6647   1425.17273     649.6243     554.6647
   1425.15747     649.8740     555.9648   1425.15747     649.8740     555.9648
   1425.14221     649.4958     556.1816   1425.14221     649.4958     556.1816
   1425.12695     649.5950     556.9982   1425.12695     649.5950     556.9982
   1425.11169     652.2491     557.5175   1425.11169     652.2491     557.5175
   1425.09644     651.4945     559.8234   1425.09644     651.4945     559.8234
   1425.08118     653.0415     559.9186   1425.08118     653.0415     559.9186
   1425.06592     652.7791     561.0016   1425.06592     652.7791     561.0016
   1425.05066     654.0630     561.8563   1425.05066     654.0630     561.8563
   1425.03540     654.1452     561.6582   1425.03540     654.1452     561.6582
   1425.02014     655.6215     563.3047   1425.02014     655.6215     563.3047
   1425.00488     655.7183     563.7612   1425.00488     655.7183     563.7612
   1424.98962     656.4335     565.5302   1424.98962     656.4335     565.5302
   1424.97437     657.2193     566.1520   1424.97437     657.2193     566.1520
   1424.95911     657.7359     567.4089   1424.95911     657.7359     567.4089
   1424.94385     657.7290     567.5588   1424.94385     657.7290     567.5588
   1424.92859     659.5199     569.2919   1424.92859     659.5199     569.2919
   1424.91333     660.1236     570.2392   1424.91333     660.1236     570.2392
   1424.89807     659.6254     570.7680   1424.89807     659.6254     570.7680
   1424.88281     661.8664     572.9440   1424.88281     661.8664     572.9440
   1424.86755     661.7673     573.7180   1424.86755     661.7673     573.7180
   1424.85229     662.0553     573.2199   1424.85229     662.0553     573.2199
   1424.83704     661.5958     574.4048   1424.83704     661.5958     574.4048
   1424.82178     661.8696     575.1274   1424.82178     661.8696     575.1274
   1424.80652     661.9675     574.1793   1424.80652     661.9675     574.1793
   1424.79126     661.9637     575.9136   1424.79126     661.9637     575.9136
   1424.77600     661.4807     575.7542   1424.77600     661.4807     575.7542
   1424.76074     662.2888     576.3399   1424.76074     662.2888     576.3399
   1424.74548     661.1987     577.5819   1424.74548     661.1987     577.5819
   1424.73022     662.3036     577.9775   1424.73022     662.3036     577.9775
   1424.71497     662.3026     578.0736   1424.71497     662.3026     578.0736
   1424.69971     662.4845     578.8813   1424.69971     662.4845     578.8813
   1424.68445     662.5122     579.4250   1424.68445     662.5122     579.4250
   1424.66919     663.2142     580.8230   1424.66919     663.2142     580.8230
   1424.65393     663.1310     581.6693   1424.65393     663.1310     581.6693
   1424.63867     662.2837     581.5031   1424.63867     662.2837     581.5031
   1424.62341     663.5099     582.2899   1424.62341     663.5099     582.2899
   1424.60815     664.4969     583.4050   1424.60815     664.4969     583.4050
   1424.59290     663.1835     584.0231   1424.59290     663.1835     584.0231
   1424.57764     663.8591     583.9209   1424.57764     663.8591     583.9209
   1424.56238     664.0834     586.1206   1424.56238     664.0834     586.1206
   1424.54712     663.7894     585.7863   1424.54712     663.7894     585.7863
   1424.53186     664.3611     587.4962   1424.53186     664.3611     587.4962
   1424.51660     664.2250     586.7996   1424.51660     664.2250     586.7996
   1424.50134     664.8585     588.5397   1424.50134     664.8585     588.5397
   1424.48608     664.6078     588.0579   1424.48608     664.6078     588.0579
   1424.47083     664.2214     589.5637   1424.47083     664.2214     589.5637
   1424.45557     663.9827     588.8892   1424.45557     663.9827     588.8892
   1424.44031     663.7847     590.4702   1424.44031     663.7847     590.4702
   1424.42505     664.4761     590.5718   1424.42505     664.4761     590.5718
   1424.40979     664.4742     591.1649   1424.40979     664.4742     591.1649
   1424.39453     666.0096     591.7728   1424.39453     666.0096     591.7728
   1424.37927     664.4409     592.3955   1424.37927     664.4409     592.3955
   1424.36401     665.4398     593.4113   1424.36401     665.4398     593.4113
   1424.34875     664.4487     593.1423   1424.34875     664.4487     593.1423
   1424.33350     665.2902     594.6961   1424.33350     665.2902     594.6961
   1424.31824     665.3268     595.0427   1424.31824     665.3268     595.0427
   1424.30298     665.3766     595.4040   1424.30298     665.3766     595.4040
   1424.28772     665.1855     596.5157   1424.28772     665.1855     596.5157
   1424.27246     665.4441     596.6141   1424.27246     665.4441     596.6141
   1424.25720     664.1212     597.5298   1424.25720     664.1212     597.5298
   1424.24194     664.5881     597.8969   1424.24194     664.5881     597.8969
   1424.22668     664.7236     599.1041   1424.22668     664.7236     599.1041
   1424.21143     665.3438     598.7971   1424.21143     665.3438     598.7971
   1424.19617     665.4352     599.9258   1424.19617     665.4352     599.9258
   1424.18091     664.7050     599.8551   1424.18091     664.7050     599.8551
   1424.16565     665.4849     600.6204   1424.16565     665.4849     600.6204
   1424.15039     663.2903     601.1537   1424.15039     663.2903     601.1537
   1424.13513     663.8149     601.3077   1424.13513     663.8149     601.3077
   1424.11987     663.7430     602.5795   1424.11987     663.7430     602.5795
   1424.10461     664.9077     602.5331   1424.10461     664.9077     602.5331
   1424.08936     664.6837     603.4597   1424.08936     664.6837     603.4597
   1424.07410     663.8762     603.8831   1424.07410     663.8762     603.8831
   1424.05884     665.4531     604.5633   1424.05884     665.4531     604.5633
   1424.04358     663.9238     604.4318   1424.04358     663.9238     604.4318
   1424.02832     664.0739     604.7076   1424.02832     664.0739     604.7076
   1424.01306     663.2286     604.9288   1424.01306     663.2286     604.9288
   1423.99780     663.3680     606.5555   1423.99780     663.3680     606.5555
   1423.98254     664.6522     606.2607   1423.98254     664.6522     606.2607
   1423.96729     664.2268     607.4371   1423.96729     664.2268     607.4371
   1423.95203     663.0255     607.8252   1423.95203     663.0255     607.8252
   1423.93677     663.0480     608.6406   1423.93677     663.0480     608.6406
   1423.92151     663.2534     608.2354   1423.92151     663.2534     608.2354
   1423.90625     662.4949     609.0609   1423.90625     662.4949     609.0609
   1423.89099     664.0927     610.0388   1423.89099     664.0927     610.0388
   1423.87573     662.3842     610.1237   1423.87573     662.3842     610.1237
   1423.86047     664.2832     610.3516   1423.86047     664.2832     610.3516
   1423.84521     661.6006     610.8623   1423.84521     661.6006     610.8623
   1423.82996     662.0488     610.9117   1423.82996     662.0488     610.9117
   1423.81470     662.2223     612.6216   1423.81470     662.2223     612.6216
   1423.79944     662.6441     611.8040   1423.79944     662.6441     611.8040
   1423.78418     661.2425     612.4164   1423.78418     661.2425     612.4164
   1423.76892     661.4392     612.7744   1423.76892     661.4392     612.7744
   1423.75366     660.5479     612.9647   1423.75366     660.5479     612.9647
   1423.73840     662.3759     614.6411   1423.73840     662.3759     614.6411
   1423.72314     663.0035     614.0234   1423.72314     663.0035     614.0234
   1423.70789     662.0316     614.4646   1423.70789     662.0316     614.4646
   1423.69263     661.4598     614.0872   1423.69263     661.4598     614.0872
   1423.67737     661.2640     615.3251   1423.67737     661.2640     615.3251
   1423.66211     662.0402     615.2172   1423.66211     662.0402     615.2172
   1423.64685     661.6913     615.8065   1423.64685     661.6913     615.8065
   1423.63159     661.8945     615.9427   1423.63159     661.8945     615.9427
   1423.61633     660.5905     616.0508   1423.61633     660.5905     616.0508
   1423.60107     660.8651     615.7002   1423.60107     660.8651     615.7002
   1423.58582     660.8752     616.0432   1423.58582     660.8752     616.0432
   1423.57056     659.2986     617.3814   1423.57056     659.2986     617.3814
   1423.55530     660.8232     616.9040   1423.55530     660.8232     616.9040
   1423.54004     659.4944     616.4977   1423.54004     659.4944     616.4977
   1423.52478     661.0957     616.9111   1423.52478     661.0957     616.9111
   1423.50952     660.9487     616.5166   1423.50952     660.9487     616.5166
   1423.49426     658.6038     618.3160   1423.49426     658.6038     618.3160
   1423.47900     659.0461     618.3411   1423.47900     659.0461     618.3411
   1423.46375     660.8720     618.7283   1423.46375     660.8720     618.7283
   1423.44849     659.9441     618.9449   1423.44849     659.9441     618.9449
   1423.43323     659.4680     618.9792   1423.43323     659.4680     618.9792
   1423.41797     658.5679     619.9121   1423.41797     658.5679     619.9121
   1423.40271     659.6871     618.5727   1423.40271     659.6871     618.5727
   1423.38745     659.5710     618.7607   1423.38745     659.5710     618.7607
   1423.37219     659.2013     619.0645   1423.37219     659.2013     619.0645
   1423.35693     659.6968     619.1867   1423.35693     659.6968     619.1867
   1423.34167     658.8685     617.8058   1423.34167     658.8685     617.8058
   1423.32642     659.1556     619.4968   1423.32642     659.1556     619.4968
   1423.31116     657.1921     618.3939   1423.31116     657.1921     618.3939
   1423.29590     657.4790     619.6327   1423.29590     657.4790     619.6327
   1423.28064     658.8344     619.3107   1423.28064     658.8344     619.3107
   1423.26538     656.9695     618.6286   1423.26538     656.9695     618.6286
   1423.25012     657.9625     619.3696   1423.25012     657.9625     619.3696
   1423.23486     656.4520     619.7868   1423.23486     656.4520     619.7868
   1423.21960     657.6105     618.2740   1423.21960     657.6105     618.2740
   1423.20435     657.6849     618.2060   1423.20435     657.6849     618.2060
   1423.18909     657.8927     618.6758   1423.18909     657.8927     618.6758
   1423.17383     657.8411     618.4500   1423.17383     657.8411     618.4500
   1423.15857     656.4279     619.4213   1423.15857     656.4279     619.4213
   1423.14331     657.0176     619.6103   1423.14331     657.0176     619.6103
   1423.12805     657.6855     618.9215   1423.12805     657.6855     618.9215
   1423.11279     657.0941     618.8688   1423.11279     657.0941     618.8688
   1423.09753     656.2000     617.7941   1423.09753     656.2000     617.7941
   1423.08228     656.0942     617.8874   1423.08228     656.0942     617.8874
   1423.06702     656.3147     617.3736   1423.06702     656.3147     617.3736
   1423.05176     656.1140     618.0517   1423.05176     656.1140     618.0517
   1423.03650     655.2684     616.6831   1423.03650     655.2684     616.6831
   1423.02124     656.3922     616.6108   1423.02124     656.3922     616.6108
   1423.00598     654.8940     616.8661   1423.00598     654.8940     616.8661
   1422.99072     655.7224     616.2624   1422.99072     655.7224     616.2624
   1422.97546     655.1036     614.8411   1422.97546     655.1036     614.8411
   1422.96021     654.3439     615.6169   1422.96021     654.3439     615.6169
   1422.94495     654.2523     614.6313   1422.94495     654.2523     614.6313
   1422.92969     654.9136     615.4084   1422.92969     654.9136     615.4084
   1422.91443     655.3674     614.4189   1422.91443     655.3674     614.4189
   1422.89917     655.7006     613.2424   1422.89917     655.7006     613.2424
   1422.88391     653.7031     614.4792   1422.88391     653.7031     614.4792
   1422.86865     653.9367     612.3739   1422.86865     653.9367     612.3739
   1422.85339     653.4551     612.9089   1422.85339     653.4551     612.9089
   1422.83813     654.0439     611.4067   1422.83813     654.0439     611.4067
   1422.82288     654.1987     610.4538   1422.82288     654.1987     610.4538
   1422.80762     651.8532     610.7358   1422.80762     651.8532     610.7358
   1422.79236     653.6069     609.3521   1422.79236     653.6069     609.3521
   1422.77710     653.8792     609.6490   1422.77710     653.8792     609.6490
   1422.76184     652.3839     608.7046   1422.76184     652.3839     608.7046
   1422.74658     652.4652     608.1254   1422.74658     652.4652     608.1254
   1422.73132     652.1696     607.9502   1422.73132     652.1696     607.9502
   1422.71606     653.2357     608.2521   1422.71606     653.2357     608.2521
   1422.70081     652.0552     605.9235   1422.70081     652.0552     605.9235
   1422.68555     651.1766     606.1591   1422.68555     651.1766     606.1591
   1422.67029     651.3883     604.9964   1422.67029     651.3883     604.9964
   1422.65503     652.4432     605.0063   1422.65503     652.4432     605.0063
   1422.63977     650.7917     603.3809   1422.63977     650.7917     603.3809
   1422.62451     650.9937     603.2000   1422.62451     650.9937     603.2000
   1422.60925     651.6302     603.0809   1422.60925     651.6302     603.0809
   1422.59399     651.2957     601.1827   1422.59399     651.2957     601.1827
   1422.57874     650.6475     601.0435   1422.57874     650.6475     601.0435
   1422.56348     651.1742     598.4224   1422.56348     651.1742     598.4224
   1422.54822     650.7242     598.4359   1422.54822     650.7242     598.4359
   1422.53296     650.7944     598.0704   1422.53296     650.7944     598.0704
   1422.51770     650.4163     597.6754   1422.51770     650.4163     597.6754
   1422.50244     650.0552     595.6558   1422.50244     650.0552     595.6558
   1422.48718     649.3724     595.4489   1422.48718     649.3724     595.4489
   1422.47192     648.8674     594.6424   1422.47192     648.8674     594.6424
   1422.45667     650.6202     592.9012   1422.45667     650.6202     592.9012
   1422.44141     649.3020     593.2267   1422.44141     649.3020     593.2267
   1422.42615     649.4048     591.4299   1422.42615     649.4048     591.4299
   1422.41089     648.7022     590.7380   1422.41089     648.7022     590.7380
   1422.39563     647.6849     588.8541   1422.39563     647.6849     588.8541
   1422.38037     647.2225     589.4302   1422.38037     647.2225     589.4302
   1422.36511     648.9756     587.9117   1422.36511     648.9756     587.9117
   1422.34985     647.6437     586.8334   1422.34985     647.6437     586.8334
   1422.33459     647.8832     585.8900   1422.33459     647.8832     585.8900
   1422.31934     647.7518     584.2308   1422.31934     647.7518     584.2308
   1422.30408     646.8762     583.8680   1422.30408     646.8762     583.8680
   1422.28882     647.5422     583.2505   1422.28882     647.5422     583.2505
   1422.27356     646.6622     580.4108   1422.27356     646.6622     580.4108
   1422.25830     648.0109     579.8165   1422.25830     648.0109     579.8165
   1422.24304     646.7714     579.3555   1422.24304     646.7714     579.3555
   1422.22778     647.6780     577.2817   1422.22778     647.6780     577.2817
   1422.21252     646.4161     577.5229   1422.21252     646.4161     577.5229
   1422.19727     645.5996     576.2405   1422.19727     645.5996     576.2405
   1422.18201     645.9531     575.1187   1422.18201     645.9531     575.1187
   1422.16675     645.4210     573.1095   1422.16675     645.4210     573.1095
   1422.15149     643.6634     572.2495   1422.15149     643.6634     572.2495
   1422.13623     645.5276     570.8946   1422.13623     645.5276     570.8946
   1422.12097     645.1830     569.1749   1422.12097     645.1830     569.1749
   1422.10571     645.0278     569.1358   1422.10571     645.0278     569.1358
   1422.09045     644.9559     567.9149   1422.09045     644.9559     567.9149
   1422.07520     643.7024     566.2628   1422.07520     643.7024     566.2628
   1422.05994     643.6511     564.0627   1422.05994     643.6511     564.0627
   1422.04468     644.5312     563.6522   1422.04468     644.5312     563.6522
   1422.02942     643.6288     563.0325   1422.02942     643.6288     563.0325
   1422.01416     643.6921     562.1116   1422.01416     643.6921     562.1116
   1421.99890     643.7152     558.7067   1421.99890     643.7152     558.7067
   1421.98364     644.1775     558.3621   1421.98364     644.1775     558.3621
   1421.96838     642.8698     557.4399   1421.96838     642.8698     557.4399
   1421.95312     642.8560     556.7110   1421.95312     642.8560     556.7110
   1421.93787     642.4219     554.4161   1421.93787     642.4219     554.4161
   1421.92261     642.9696     552.6469   1421.92261     642.9696     552.6469
   1421.90735     642.6991     552.0790   1421.90735     642.6991     552.0790
   1421.89209     641.8951     551.2803   1421.89209     641.8951     551.2803
   1421.87683     642.1077     550.3315   1421.87683     642.1077     550.3315
   1421.86157     642.1028     548.1263   1421.86157     642.1028     548.1263
   1421.84631     642.0776     547.2444   1421.84631     642.0776     547.2444
   1421.83105     641.5740     544.9405   1421.83105     641.5740     544.9405
   1421.81580     640.3807     543.7523   1421.81580     640.3807     543.7523
   1421.80054     641.2800     542.9534   1421.80054     641.2800     542.9534
   1421.78528     640.8770     541.2974   1421.78528     640.8770     541.2974
   1421.77002     640.7595     539.9919   1421.77002     640.7595     539.9919
   1421.75476     640.6244     538.3999   1421.75476     640.6244     538.3999
   1421.73950     640.7312     537.2133   1421.73950     640.7312     537.2133
   1421.72424     639.9183     536.4437   1421.72424     639.9183     536.4437
   1421.70898     640.0931     534.7660   1421.70898     640.0931     534.7660
   1421.69373     640.6161     533.5970   1421.69373     640.6161     533.5970
   1421.67847     638.9465     531.6376   1421.67847     638.9465     531.6376
   1421.66321     639.7086     530.3557   1421.66321     639.7086     530.3557
   1421.64795     639.5323     529.6718   1421.64795     639.5323     529.6718
   1421.63269     639.4505     528.1917   1421.63269     639.4505     528.1917
   1421.61743     639.3064     527.0611   1421.61743     639.3064     527.0611
   1421.60217     639.3052     525.3365   1421.60217     639.3052     525.3365
   1421.58691     637.9980     525.3276   1421.58691     637.9980     525.3276
   1421.57166     638.3282     523.3331   1421.57166     638.3282     523.3331
   1421.55640     637.9086     520.2907   1421.55640     637.9086     520.2907
   1421.54114     638.2380     519.7652   1421.54114     638.2380     519.7652
   1421.52588     637.6311     518.7605   1421.52588     637.6311     518.7605
   1421.51062     637.4097     518.0400   1421.51062     637.4097     518.0400
   1421.49536     636.8448     516.4584   1421.49536     636.8448     516.4584
   1421.48010     637.6170     515.0876   1421.48010     637.6170     515.0876
   1421.46484     636.8553     512.6091   1421.46484     636.8553     512.6091
   1421.44958     636.8372     512.1096   1421.44958     636.8372     512.1096
   1421.43433     637.0184     510.5868   1421.43433     637.0184     510.5868
   1421.41907     636.2151     509.4401   1421.41907     636.2151     509.4401
   1421.40381     637.8453     507.2069   1421.40381     637.8453     507.2069
   1421.38855     637.3184     506.3376   1421.38855     637.3184     506.3376
   1421.37329     637.1320     505.4643   1421.37329     637.1320     505.4643
   1421.35803     635.7170     503.4867   1421.35803     635.7170     503.4867
   1421.34277     635.9850     502.5294   1421.34277     635.9850     502.5294
   1421.32751     636.4854     501.6070   1421.32751     636.4854     501.6070
   1421.31226     635.7253     500.2758   1421.31226     635.7253     500.2758
   1421.29700     637.0642     499.0156   1421.29700     637.0642     499.0156
   1421.28174     636.9513     497.8550   1421.28174     636.9513     497.8550
   1421.26648     637.9578     497.1352   1421.26648     637.9578     497.1352
   1421.25122     638.2115     495.6645   1421.25122     638.2115     495.6645
   1421.23596     639.8154     495.0963   1421.23596     639.8154     495.0963
   1421.22070     639.0490     494.4524   1421.22070     639.0490     494.4524
   1421.20544     640.2367     494.4473   1421.20544     640.2367     494.4473
   1421.19019     640.3165     493.1795   1421.19019     640.3165     493.1795
   1421.17493     640.3029     492.6935   1421.17493     640.3029     492.6935
   1421.15967     640.7834     491.9664   1421.15967     640.7834     491.9664
   1421.14441     641.3782     490.5244   1421.14441     641.3782     490.5244
   1421.12915     642.4623     490.0211   1421.12915     642.4623     490.0211
   1421.11389     642.7981     488.8946   1421.11389     642.7981     488.8946
   1421.09863     644.4083     489.7923   1421.09863     644.4083     489.7923
   1421.08337     649.2743     491.0163   1421.08337     649.2743     491.0163
   1421.06812     654.7075     494.3410   1421.06812     654.7075     494.3410
   1421.05286     661.0444     498.9930   1421.05286     661.0444     498.9930
   1421.03760     668.9918     503.1775   1421.03760     668.9918     503.1775
   1421.02234     682.4868     510.5309   1421.02234     682.4868     510.5309
   1421.00708     699.5925     521.4614   1421.00708     699.5925     521.4614
   1420.99182     722.1607     538.2842   1420.99182     722.1607     538.2842
   1420.97656     750.1672     557.2923   1420.97656     750.1672     557.2923
   1420.96130     786.3670     581.7043   1420.96130     786.3670     581.7043
   1420.94604     828.6484     611.0137   1420.94604     828.6484     611.0137
   1420.93079     889.6727     652.5964   1420.93079     889.6727     652.5964
   1420.91553     980.4797     717.9224   1420.91553     980.4797     717.9224
   1420.90027    1096.9845     799.9423   1420.90027    1096.9845     799.9423
   1420.88501    1167.5939     847.3311   1420.88501    1167.5939     847.3311
   1420.86975    1093.6698     791.5173   1420.86975    1093.6698     791.5173
   1420.85449     923.7776     670.1183   1420.85449     923.7776     670.1183
   1420.83923     840.7878     608.6613   1420.83923     840.7878     608.6613
   1420.82397     863.8745     624.0061   1420.82397     863.8745     624.0061
   1420.80872     969.9563     697.0827   1420.80872     969.9563     697.0827
   1420.79346    1140.3481     814.4910   1420.79346    1140.3481     814.4910
   1420.77820    1327.1031     946.9578   1420.77820    1327.1031     946.9578
   1420.76294    1453.0237    1032.2478   1420.76294    1453.0237    1032.2478
   1420.74768    1406.5612     996.8892   1420.74768    1406.5612     996.8892
   1420.73242    1209.8115     856.5165   1420.73242    1209.8115     856.5165
   1420.71716    1029.4727     730.0667   1420.71716    1029.4727     730.0667
   1420.70190     949.2549     672.5963   1420.70190     949.2549     672.5963
   1420.68665     929.1844     655.4146   1420.68665     929.1844     655.4146
   1420.67139     917.4277     645.6259   1420.67139     917.4277     645.6259
   1420.65613     926.8672     650.0979   1420.65613     926.8672     650.0979
   1420.64087     953.8771     668.6875   1420.64087     953.8771     668.6875
   1420.62561    1099.4547     766.5610   1420.62561    1099.4547     766.5610
   1420.61035    1368.3885     949.5129   1420.61035    1368.3885     949.5129
   1420.59509    1581.3354    1094.3082   1420.59509    1581.3354    1094.3082
   1420.57983    1621.1399    1119.2354   1420.57983    1621.1399    1119.2354
   1420.56458    1618.4666    1115.7889   1420.56458    1618.4666    1115.7889
   1420.54932    1683.4042    1157.2390   1420.54932    1683.4042    1157.2390
   1420.53406    1738.0077    1190.9543   1420.53406    1738.0077    1190.9543
   1420.51880    1782.1545    1216.8253   1420.51880    1782.1545    1216.8253
   1420.50354    1742.1283    1187.8601   1420.50354    1742.1283    1187.8601
   1420.48828    1573.7129    1071.6576   1420.48828    1573.7129    1071.6576
   1420.47302    1256.6790     855.3536   1420.47302    1256.6790     855.3536
   1420.45776    1004.0518     687.1932   1420.45776    1004.0518     687.1932
   1420.44250     850.0351     581.9759   1420.44250     850.0351     581.9759
   1420.42725     757.1558     519.0067   1420.42725     757.1558     519.0067
   1420.41199     704.8460     482.3792   1420.41199     704.8460     482.3792
   1420.39673     674.1701     461.4184   1420.39673     674.1701     461.4184
   1420.38147     658.8865     448.8413   1420.38147     658.8865     448.8413
   1420.36621     649.1925     442.1936   1420.36621     649.1925     442.1936
   1420.35095     644.5350     437.5186   1420.35095     644.5350     437.5186
   1420.33569     642.9393     435.0917   1420.33569     642.9393     435.0917
   1420.32043     640.7562     432.5268   1420.32043     640.7562     432.5268
   1420.30518     639.7347     431.3689   1420.30518     639.7347     431.3689
   1420.28992     639.7158     430.4295   1420.28992     639.7158     430.4295
   1420.27466     639.9727     428.8693   1420.27466     639.9727     428.8693
   1420.25940     638.6903     428.5335   1420.25940     638.6903     428.5335
   1420.24414     638.2365     427.7685   1420.24414     638.2365     427.7685
   1420.22888     637.0316     426.2807   1420.22888     637.0316     426.2807
   1420.21362     636.2305     425.1697   1420.21362     636.2305     425.1697
   1420.19836     635.7964     423.7320   1420.19836     635.7964     423.7320
   1420.18311     634.3678     422.7160   1420.18311     634.3678     422.7160
   1420.16785     633.9579     421.4842   1420.16785     633.9579     421.4842
   1420.15259     634.3607     420.2754   1420.15259     634.3607     420.2754
   1420.13733     633.3268     419.3693   1420.13733     633.3268     419.3693
   1420.12207     632.2952     418.4063   1420.12207     632.2952     418.4063
   1420.10681     633.0776     417.1196   1420.10681     633.0776     417.1196
   1420.09155     632.7366     416.1569   1420.09155     632.7366     416.1569
   1420.07629     631.7385     415.2803   1420.07629     631.7385     415.2803
   1420.06104     631.9055     414.9623   1420.06104     631.9055     414.9623
   1420.04578     632.0358     414.2984   1420.04578     632.0358     414.2984
   1420.03052     632.2910     414.0706   1420.03052     632.2910     414.0706
   1420.01526     632.5388     413.6472   1420.01526     632.5388     413.6472
   1420.00000     633.3546     414.1459   1420.00000     633.3546     414.1459
   1419.98474     634.1705     414.6448   1419.98474     634.1705     414.6448
   1419.96948     635.5536     412.6994   1419.96948     635.5536     412.6994
   1419.95422     632.8800     411.1712   1419.95422     632.8800     411.1712
   1419.93896     632.8112     409.7199   1419.93896     632.8112     409.7199
   1419.92371     631.7202     409.1953   1419.92371     631.7202     409.1953
   1419.90845     633.5918     408.7852   1419.90845     633.5918     408.7852
   1419.89319     633.1577     408.6326   1419.89319     633.1577     408.6326
   1419.87793     634.3272     408.1796   1419.87793     634.3272     408.1796
   1419.86267     633.7358     407.6565   1419.86267     633.7358     407.6565
   1419.84741     633.9725     407.2692   1419.84741     633.9725     407.2692
   1419.83215     633.9818     407.4946   1419.83215     633.9818     407.4946
   1419.81689     635.3447     407.2327   1419.81689     635.3447     407.2327
   1419.80164     635.9641     405.9846   1419.80164     635.9641     405.9846
   1419.78638     635.4986     405.6423   1419.78638     635.4986     405.6423
   1419.77112     635.0375     404.5595   1419.77112     635.0375     404.5595
   1419.75586     635.9492     404.2435   1419.75586     635.9492     404.2435
   1419.74060     636.2302     405.1458   1419.74060     636.2302     405.1458
   1419.72534     636.6765     404.2691   1419.72534     636.6765     404.2691
   1419.71008     637.2492     403.5165   1419.71008     637.2492     403.5165
   1419.69482     637.8341     403.8233   1419.69482     637.8341     403.8233
   1419.67957     637.5999     402.8678   1419.67957     637.5999     402.8678
   1419.66431     637.6971     403.6320   1419.66431     637.6971     403.6320
   1419.64905     637.9823     402.8321   1419.64905     637.9823     402.8321
   1419.63379     638.3410     402.5085   1419.63379     638.3410     402.5085
   1419.61853     639.7609     402.3972   1419.61853     639.7609     402.3972
   1419.60327     639.0129     402.0796   1419.60327     639.0129     402.0796
   1419.58801     639.2571     401.7038   1419.58801     639.2571     401.7038
   1419.57275     640.5229     401.4134   1419.57275     640.5229     401.4134
   1419.55750     640.7957     401.5471   1419.55750     640.7957     401.5471
   1419.54224     640.5180     401.8398   1419.54224     640.5180     401.8398
   1419.52698     641.5604     400.8254   1419.52698     641.5604     400.8254
   1419.51172     642.8354     400.7817   1419.51172     642.8354     400.7817
   1419.49646     642.7731     400.6852   1419.49646     642.7731     400.6852
   1419.48120     641.9432     400.4661   1419.48120     641.9432     400.4661
   1419.46594     643.5466     400.5262   1419.46594     643.5466     400.5262
   1419.45068     644.2617     400.4554   1419.45068     644.2617     400.4554
   1419.43542     642.7968     400.1617   1419.43542     642.7968     400.1617
   1419.42017     644.0928     400.2091   1419.42017     644.0928     400.2091
   1419.40491     644.4076     399.5107   1419.40491     644.4076     399.5107
   1419.38965     644.4941     399.0926   1419.38965     644.4941     399.0926
   1419.37439     645.5248     399.8378   1419.37439     645.5248     399.8378
   1419.35913     646.1185     399.6085   1419.35913     646.1185     399.6085
   1419.34387     646.3755     399.3762   1419.34387     646.3755     399.3762
   1419.32861     647.3973     399.5481   1419.32861     647.3973     399.5481
   1419.31335     645.6494     398.9765   1419.31335     645.6494     398.9765
   1419.29810     647.6562     399.1091   1419.29810     647.6562     399.1091
   1419.28284     647.6067     399.7112   1419.28284     647.6067     399.7112
   1419.26758     649.2266     399.6234   1419.26758     649.2266     399.6234
   1419.25232     648.9704     399.3339   1419.25232     648.9704     399.3339
   1419.23706     649.4741     399.1445   1419.23706     649.4741     399.1445
   1419.22180     649.6584     399.0278   1419.22180     649.6584     399.0278
   1419.20654     650.4912     398.9480   1419.20654     650.4912     398.9480
   1419.19128     650.6125     399.5630   1419.19128     650.6125     399.5630
   1419.17603     651.0460     398.8714   1419.17603     651.0460     398.8714
   1419.16077     651.9529     399.3557   1419.16077     651.9529     399.3557
   1419.14551     652.8970     400.1515   1419.14551     652.8970     400.1515
   1419.13025     652.0599     399.1918   1419.13025     652.0599     399.1918
   1419.11499     653.7197     399.8818   1419.11499     653.7197     399.8818
   1419.09973     654.2445     399.3115   1419.09973     654.2445     399.3115
   1419.08447     653.8483     398.7369   1419.08447     653.8483     398.7369
   1419.06921     655.4014     399.9689   1419.06921     655.4014     399.9689
   1419.05396     655.9069     400.1548   1419.05396     655.9069     400.1548
   1419.03870     655.7391     399.5646   1419.03870     655.7391     399.5646
   1419.02344     656.6940     399.7034   1419.02344     656.6940     399.7034
   1419.00818     656.5682     400.4915   1419.00818     656.5682     400.4915
   1418.99292     657.3646     400.5869   1418.99292     657.3646     400.5869
   1418.97766     658.0174     400.6559   1418.97766     658.0174     400.6559
   1418.96240     659.0261     400.6193   1418.96240     659.0261     400.6193
   1418.94714     658.9211     400.7539   1418.94714     658.9211     400.7539
   1418.93188     659.8340     400.7455   1418.93188     659.8340     400.7455
   1418.91663     660.8739     401.4533   1418.91663     660.8739     401.4533
   1418.90137     661.9241     400.9329   1418.90137     661.9241     400.9329
   1418.88611     661.2728     401.6986   1418.88611     661.2728     401.6986
   1418.87085     661.8354     402.9892   1418.87085     661.8354     402.9892
   1418.85559     662.3982     401.7529   1418.85559     662.3982     401.7529
   1418.84033     662.4309     402.5902   1418.84033     662.4309     402.5902
   1418.82507     662.5948     402.2134   1418.82507     662.5948     402.2134
   1418.80981     664.7383     402.4832   1418.80981     664.7383     402.4832
   1418.79456     665.2206     402.7839   1418.79456     665.2206     402.7839
   1418.77930     666.8204     403.5420   1418.77930     666.8204     403.5420
   1418.76404     666.8405     403.5341   1418.76404     666.8405     403.5341
   1418.74878     668.1252     403.9345   1418.74878     668.1252     403.9345
   1418.73352     667.7681     404.1022   1418.73352     667.7681     404.1022
   1418.71826     667.8354     403.7908   1418.71826     667.8354     403.7908
   1418.70300     669.6868     404.1543   1418.70300     669.6868     404.1543
   1418.68774     669.5381     405.4286   1418.68774     669.5381     405.4286
   1418.67249     670.7277     405.7810   1418.67249     670.7277     405.7810
   1418.65723     670.4299     405.6333   1418.65723     670.4299     405.6333
   1418.64197     672.1987     405.9732   1418.64197     672.1987     405.9732
   1418.62671     672.8818     406.1205   1418.62671     672.8818     406.1205
   1418.61145     673.4227     406.6155   1418.61145     673.4227     406.6155
   1418.59619     674.0073     407.6113   1418.59619     674.0073     407.6113
   1418.58093     674.6144     407.2163   1418.58093     674.6144     407.2163
   1418.56567     674.7950     407.9375   1418.56567     674.7950     407.9375
   1418.55042     676.2319     408.2794   1418.55042     676.2319     408.2794
   1418.53516     676.6879     408.0758   1418.53516     676.6879     408.0758
   1418.51990     676.7405     409.5576   1418.51990     676.7405     409.5576
   1418.50464     678.4926     408.5215   1418.50464     678.4926     408.5215
   1418.48938     678.5277     409.4426   1418.48938     678.5277     409.4426
   1418.47412     680.0587     410.2866   1418.47412     680.0587     410.2866
   1418.45886     680.2657     410.6011   1418.45886     680.2657     410.6011
   1418.44360     682.1167     410.6750   1418.44360     682.1167     410.6750
   1418.42834     681.4759     411.7999   1418.42834     681.4759     411.7999
   1418.41309     682.8777     411.3845   1418.41309     682.8777     411.3845
   1418.39783     682.8905     412.5555   1418.39783     682.8905     412.5555
   1418.38257     683.6785     412.5789   1418.38257     683.6785     412.5789
   1418.36731     684.7216     413.0551   1418.36731     684.7216     413.0551
   1418.35205     684.9883     413.1295   1418.35205     684.9883     413.1295
   1418.33679     686.0692     413.3044   1418.33679     686.0692     413.3044
   1418.32153     688.0401     415.2722   1418.32153     688.0401     415.2722
   1418.30627     687.5297     414.6206   1418.30627     687.5297     414.6206
   1418.29102     688.2026     414.4209   1418.29102     688.2026     414.4209
   1418.27576     688.8793     415.5859   1418.27576     688.8793     415.5859
   1418.26050     689.5597     415.8987   1418.26050     689.5597     415.8987
   1418.24524     691.1306     416.8860   1418.24524     691.1306     416.8860
   1418.22998     692.3153     417.5188   1418.22998     692.3153     417.5188
   1418.21472     692.2305     417.5013   1418.21472     692.2305     417.5013
   1418.19946     693.4484     417.9773   1418.19946     693.4484     417.9773
   1418.18420     693.7305     418.6672   1418.18420     693.7305     418.6672
   1418.16895     694.9545     419.5714   1418.16895     694.9545     419.5714
   1418.15369     695.7916     420.3542   1418.15369     695.7916     420.3542
   1418.13843     695.9731     420.9356   1418.13843     695.9731     420.9356
   1418.12317     697.4368     420.7408   1418.12317     697.4368     420.7408
   1418.10791     698.4081     421.1017   1418.10791     698.4081     421.1017
   1418.09265     698.6864     421.2191   1418.09265     698.6864     421.2191
   1418.07739     699.3954     422.3685   1418.07739     699.3954     422.3685
   1418.06213     700.4671     423.1208   1418.06213     700.4671     423.1208
   1418.04688     700.7153     423.7895   1418.04688     700.7153     423.7895
   1418.03162     701.8779     423.8235   1418.03162     701.8779     423.8235
   1418.01636     703.6989     424.6613   1418.01636     703.6989     424.6613
   1418.00110     703.7723     425.5227   1418.00110     703.7723     425.5227
   1417.98584     704.1080     425.7926   1417.98584     704.1080     425.7926
   1417.97058     705.5530     426.2837   1417.97058     705.5530     426.2837
   1417.95532     707.0773     426.8695   1417.95532     707.0773     426.8695
   1417.94006     706.6097     426.5840   1417.94006     706.6097     426.5840
   1417.92480     707.6545     427.9922   1417.92480     707.6545     427.9922
   1417.90955     709.2374     428.3156   1417.90955     709.2374     428.3156
   1417.89429     709.4479     428.2545   1417.89429     709.4479     428.2545
   1417.87903     710.8132     430.0304   1417.87903     710.8132     430.0304
   1417.86377     711.8155     430.3402   1417.86377     711.8155     430.3402
   1417.84851     712.5090     431.0995   1417.84851     712.5090     431.0995
   1417.83325     714.0599     431.0077   1417.83325     714.0599     431.0077
   1417.81799     714.0191     431.4524   1417.81799     714.0191     431.4524
   1417.80273     714.5159     433.0898   1417.80273     714.5159     433.0898
   1417.78748     715.3357     432.8035   1417.78748     715.3357     432.8035
   1417.77222     716.4045     434.0479   1417.77222     716.4045     434.0479
   1417.75696     716.9974     434.7751   1417.75696     716.9974     434.7751
   1417.74170     717.8734     435.3157   1417.74170     717.8734     435.3157
   1417.72644     718.1326     435.1955   1417.72644     718.1326     435.1955
   1417.71118     721.2874     436.7032   1417.71118     721.2874     436.7032
   1417.69592     720.9077     436.5643   1417.69592     720.9077     436.5643
   1417.68066     722.1769     436.7835   1417.68066     722.1769     436.7835
   1417.66541     723.1185     438.2176   1417.66541     723.1185     438.2176
   1417.65015     723.4749     439.1042   1417.65015     723.4749     439.1042
   1417.63489     724.7048     438.9592   1417.63489     724.7048     438.9592
   1417.61963     726.2371     439.5363   1417.61963     726.2371     439.5363
   1417.60437     726.6657     441.2261   1417.60437     726.6657     441.2261
   1417.58911     727.2525     440.9050   1417.58911     727.2525     440.9050
   1417.57385     726.7728     441.4218   1417.57385     726.7728     441.4218
   1417.55859     729.1091     442.1098   1417.55859     729.1091     442.1098
   1417.54333     729.4730     444.0094   1417.54333     729.4730     444.0094
   1417.52808     730.7935     443.2500   1417.52808     730.7935     443.2500
   1417.51282     730.9836     444.1550   1417.51282     730.9836     444.1550
   1417.49756     733.4988     444.7691   1417.49756     733.4988     444.7691
   1417.48230     733.0786     444.7822   1417.48230     733.0786     444.7822
   1417.46704     735.1554     445.6758   1417.46704     735.1554     445.6758
   1417.45178     735.3216     446.4435   1417.45178     735.3216     446.4435
   1417.43652     736.5248     447.6389   1417.43652     736.5248     447.6389
   1417.42126     736.4365     448.0115   1417.42126     736.4365     448.0115
   1417.40601     737.2477     448.2044   1417.40601     737.2477     448.2044
   1417.39075     737.8319     448.8134   1417.39075     737.8319     448.8134
   1417.37549     740.0170     449.1497   1417.37549     740.0170     449.1497
   1417.36023     740.4139     450.8146   1417.36023     740.4139     450.8146
   1417.34497     741.4153     451.0270   1417.34497     741.4153     451.0270
   1417.32971     740.5923     451.7876   1417.32971     740.5923     451.7876
   1417.31445     742.6390     452.4351   1417.31445     742.6390     452.4351
   1417.29919     743.3651     452.6445   1417.29919     743.3651     452.6445
   1417.28394     743.1960     453.7608   1417.28394     743.1960     453.7608
   1417.26868     745.5630     453.4285   1417.26868     745.5630     453.4285
   1417.25342     745.4839     454.9670   1417.25342     745.4839     454.9670
   1417.23816     746.4763     455.6918   1417.23816     746.4763     455.6918
   1417.22290     747.7798     455.6818   1417.22290     747.7798     455.6818
   1417.20764     749.1010     457.0479   1417.20764     749.1010     457.0479
   1417.19238     748.4417     456.8554   1417.19238     748.4417     456.8554
   1417.17712     748.9293     457.8980   1417.17712     748.9293     457.8980
   1417.16187     750.8419     457.5987   1417.16187     750.8419     457.5987
   1417.14661     752.4223     458.9816   1417.14661     752.4223     458.9816
   1417.13135     752.2764     459.0612   1417.13135     752.2764     459.0612
   1417.11609     752.9246     460.7159   1417.11609     752.9246     460.7159
   1417.10083     754.4221     460.7370   1417.10083     754.4221     460.7370
   1417.08557     753.6915     461.1786   1417.08557     753.6915     461.1786
   1417.07031     755.1761     461.9228   1417.07031     755.1761     461.9228
   1417.05505     754.9145     462.2802   1417.05505     754.9145     462.2802
   1417.03979     756.2894     463.1620   1417.03979     756.2894     463.1620
   1417.02454     756.5671     463.7039   1417.02454     756.5671     463.7039
   1417.00928     756.4993     463.7226   1417.00928     756.4993     463.7226
   1416.99402     758.5511     464.0098   1416.99402     758.5511     464.0098
   1416.97876     757.8541     464.1423   1416.97876     757.8541     464.1423
   1416.96350     759.1875     464.9537   1416.96350     759.1875     464.9537
   1416.94824     759.5070     465.8114   1416.94824     759.5070     465.8114
   1416.93298     760.2204     466.2994   1416.93298     760.2204     466.2994
   1416.91772     760.9265     465.8250   1416.91772     760.9265     465.8250
   1416.90247     760.4726     468.1547   1416.90247     760.4726     468.1547
   1416.88721     763.1641     468.0188   1416.88721     763.1641     468.0188
   1416.87195     761.9726     468.2213   1416.87195     761.9726     468.2213
   1416.85669     763.5070     468.7469   1416.85669     763.5070     468.7469
   1416.84143     762.5428     469.0983   1416.84143     762.5428     469.0983
   1416.82617     763.4423     469.6143   1416.82617     763.4423     469.6143
   1416.81091     763.4989     469.5732   1416.81091     763.4989     469.5732
   1416.79565     764.9215     470.9678   1416.79565     764.9215     470.9678
   1416.78040     764.5707     471.1645   1416.78040     764.5707     471.1645
   1416.76514     765.1329     470.6555   1416.76514     765.1329     470.6555
   1416.74988     765.9688     471.5824   1416.74988     765.9688     471.5824
   1416.73462     767.0867     471.4014   1416.73462     767.0867     471.4014
   1416.71936     765.6758     472.5111   1416.71936     765.6758     472.5111
   1416.70410     765.7890     471.4694   1416.70410     765.7890     471.4694
   1416.68884     767.2745     472.5364   1416.68884     767.2745     472.5364
   1416.67358     767.7647     472.2726   1416.67358     767.7647     472.2726
   1416.65833     767.8997     473.7643   1416.65833     767.8997     473.7643
   1416.64307     768.7731     473.5510   1416.64307     768.7731     473.5510
   1416.62781     767.8688     473.5368   1416.62781     767.8688     473.5368
   1416.61255     767.2571     474.6932   1416.61255     767.2571     474.6932
   1416.59729     768.1103     474.4406   1416.59729     768.1103     474.4406
   1416.58203     768.8546     475.6494   1416.58203     768.8546     475.6494
   1416.56677     768.9928     474.4111   1416.56677     768.9928     474.4111
   1416.55151     768.4882     476.0335   1416.55151     768.4882     476.0335
   1416.53625     768.9673     475.5829   1416.53625     768.9673     475.5829
   1416.52100     767.8748     475.7035   1416.52100     767.8748     475.7035
   1416.50574     767.9359     476.1485   1416.50574     767.9359     476.1485
   1416.49048     769.7734     475.1234   1416.49048     769.7734     475.1234
   1416.47522     768.8557     476.5151   1416.47522     768.8557     476.5151
   1416.45996     769.8972     476.7077   1416.45996     769.8972     476.7077
   1416.44470     768.0827     476.8445   1416.44470     768.0827     476.8445
   1416.42944     768.8208     476.9417   1416.42944     768.8208     476.9417
   1416.41418     769.2477     476.9148   1416.41418     769.2477     476.9148
   1416.39893     768.2627     477.6095   1416.39893     768.2627     477.6095
   1416.38367     768.0898     476.8271   1416.38367     768.0898     476.8271
   1416.36841     768.0712     477.1332   1416.36841     768.0712     477.1332
   1416.35315     768.5467     477.6960   1416.35315     768.5467     477.6960
   1416.33789     768.9176     477.8159   1416.33789     768.9176     477.8159
   1416.32263     767.9882     476.6926   1416.32263     767.9882     476.6926
   1416.30737     767.3362     477.6637   1416.30737     767.3362     477.6637
   1416.29211     768.7737     477.5570   1416.29211     768.7737     477.5570
   1416.27686     767.5632     477.7091   1416.27686     767.5632     477.7091
   1416.26160     767.1700     476.6628   1416.26160     767.1700     476.6628
   1416.24634     766.2167     477.4279   1416.24634     766.2167     477.4279
   1416.23108     767.4984     477.7349   1416.23108     767.4984     477.7349
   1416.21582     765.6439     477.1820   1416.21582     765.6439     477.1820
   1416.20056     766.1061     477.3502   1416.20056     766.1061     477.3502
   1416.18530     767.0632     477.5611   1416.18530     767.0632     477.5611
   1416.17004     765.2154     477.6463   1416.17004     765.2154     477.6463
   1416.15479     765.3552     477.2672   1416.15479     765.3552     477.2672
   1416.13953     765.6852     477.2230   1416.13953     765.6852     477.2230
   1416.12427     764.8296     477.2602   1416.12427     764.8296     477.2602
   1416.10901     764.5562     477.1204   1416.10901     764.5562     477.1204
   1416.09375     763.9147     476.5275   1416.09375     763.9147     476.5275
   1416.07849     763.1388     476.0331   1416.07849     763.1388     476.0331
   1416.06323     763.1815     476.4402   1416.06323     763.1815     476.4402
   1416.04797     762.2469     475.6590   1416.04797     762.2469     475.6590
   1416.03271     762.2632     476.4314   1416.03271     762.2632     476.4314
   1416.01746     760.9839     476.3018   1416.01746     760.9839     476.3018
   1416.00220     762.0643     476.4080   1416.00220     762.0643     476.4080
   1415.98694     760.3892     475.6720   1415.98694     760.3892     475.6720
   1415.97168     760.5762     476.6154   1415.97168     760.5762     476.6154
   1415.95642     759.9831     476.0476   1415.95642     759.9831     476.0476
   1415.94116     759.7431     475.9414   1415.94116     759.7431     475.9414
   1415.92590     758.9761     475.9129   1415.92590     758.9761     475.9129
   1415.91064     758.9309     475.3757   1415.91064     758.9309     475.3757
   1415.89539     757.2750     475.5313   1415.89539     757.2750     475.5313
   1415.88013     757.9668     475.3086   1415.88013     757.9668     475.3086
   1415.86487     757.4160     474.7814   1415.86487     757.4160     474.7814
   1415.84961     756.9437     475.6705   1415.84961     756.9437     475.6705
   1415.83435     755.6194     474.6523   1415.83435     755.6194     474.6523
   1415.81909     754.9160     474.3580   1415.81909     754.9160     474.3580
   1415.80383     753.5652     474.9887   1415.80383     753.5652     474.9887
   1415.78857     752.2077     474.1530   1415.78857     752.2077     474.1530
   1415.77332     751.5569     473.6237   1415.77332     751.5569     473.6237
   1415.75806     752.4583     473.7309   1415.75806     752.4583     473.7309
   1415.74280     750.9985     473.1679   1415.74280     750.9985     473.1679
   1415.72754     752.4417     473.1154   1415.72754     752.4417     473.1154
   1415.71228     748.5566     472.7538   1415.71228     748.5566     472.7538
   1415.69702     748.6614     472.7994   1415.69702     748.6614     472.7994
   1415.68176     748.2462     472.2228   1415.68176     748.2462     472.2228
   1415.66650     748.2991     471.7482   1415.66650     748.2991     471.7482
   1415.65125     746.9026     471.8454   1415.65125     746.9026     471.8454
   1415.63599     746.1971     472.2031   1415.63599     746.1971     472.2031
   1415.62073     746.5947     471.4836   1415.62073     746.5947     471.4836
   1415.60547     745.8264     471.9782   1415.60547     745.8264     471.9782
   1415.59021     744.2823     470.5600   1415.59021     744.2823     470.5600
   1415.57495     744.2042     470.5980   1415.57495     744.2042     470.5980
   1415.55969     741.4681     470.6414   1415.55969     741.4681     470.6414
   1415.54443     741.8315     470.1106   1415.54443     741.8315     470.1106
   1415.52917     740.8051     470.0646   1415.52917     740.8051     470.0646
   1415.51392     739.8927     469.5988   1415.51392     739.8927     469.5988
   1415.49866     738.8878     468.8482   1415.49866     738.8878     468.8482
   1415.48340     738.3054     469.3305   1415.48340     738.3054     469.3305
   1415.46814     737.4804     469.4167   1415.46814     737.4804     469.4167
   1415.45288     736.7476     469.2499   1415.45288     736.7476     469.2499
   1415.43762     736.3965     467.7249   1415.43762     736.3965     467.7249
   1415.42236     733.7050     467.9352   1415.42236     733.7050     467.9352
   1415.40710     733.6848     467.5177   1415.40710     733.6848     467.5177
   1415.39185     732.6527     467.4224   1415.39185     732.6527     467.4224
   1415.37659     730.0278     466.3456   1415.37659     730.0278     466.3456
   1415.36133     730.5544     466.2610   1415.36133     730.5544     466.2610
   1415.34607     729.3203     466.5399   1415.34607     729.3203     466.5399
   1415.33081     729.5627     466.0042   1415.33081     729.5627     466.0042
   1415.31555     727.3270     465.9347   1415.31555     727.3270     465.9347
   1415.30029     725.3250     465.4012   1415.30029     725.3250     465.4012
   1415.28503     724.5781     463.8874   1415.28503     724.5781     463.8874
   1415.26978     723.3496     464.2698   1415.26978     723.3496     464.2698
   1415.25452     722.6624     463.7337   1415.25452     722.6624     463.7337
   1415.23926     720.4882     463.2809   1415.23926     720.4882     463.2809
   1415.22400     719.9164     462.2916   1415.22400     719.9164     462.2916
   1415.20874     719.9207     461.7428   1415.20874     719.9207     461.7428
   1415.19348     718.1164     461.8096   1415.19348     718.1164     461.8096
   1415.17822     716.5075     461.2676   1415.17822     716.5075     461.2676
   1415.16296     713.8468     461.0965   1415.16296     713.8468     461.0965
   1415.14771     713.3836     460.5724   1415.14771     713.3836     460.5724
   1415.13245     711.5120     460.0062   1415.13245     711.5120     460.0062
   1415.11719     710.2264     459.0052   1415.11719     710.2264     459.0052
   1415.10193     709.8774     458.9131   1415.10193     709.8774     458.9131
   1415.08667     708.1215     457.9701   1415.08667     708.1215     457.9701
   1415.07141     706.1745     457.3493   1415.07141     706.1745     457.3493
   1415.05615     704.7825     456.8384   1415.05615     704.7825     456.8384
   1415.04089     703.7592     457.0553   1415.04089     703.7592     457.0553
   1415.02563     702.0896     456.2446   1415.02563     702.0896     456.2446
   1415.01038     700.0652     454.9294   1415.01038     700.0652     454.9294
   1414.99512     699.4799     455.5617   1414.99512     699.4799     455.5617
   1414.97986     697.7844     454.8792   1414.97986     697.7844     454.8792
   1414.96460     695.3132     452.9357   1414.96460     695.3132     452.9357
   1414.94934     694.4963     453.8159   1414.94934     694.4963     453.8159
   1414.93408     692.5160     452.7956   1414.93408     692.5160     452.7956
   1414.91882     690.2927     452.3119   1414.91882     690.2927     452.3119
   1414.90356     689.2629     451.1891   1414.90356     689.2629     451.1891
   1414.88831     686.7138     451.0267   1414.88831     686.7138     451.0267
   1414.87305     684.8898     449.6449   1414.87305     684.8898     449.6449
   1414.85779     684.4456     449.3066   1414.85779     684.4456     449.3066
   1414.84253     682.0425     448.9231   1414.84253     682.0425     448.9231
   1414.82727     680.5801     447.3487   1414.82727     680.5801     447.3487
   1414.81201     679.1506     447.2866   1414.81201     679.1506     447.2866
   1414.79675     676.9046     446.6632   1414.79675     676.9046     446.6632
   1414.78149     675.8833     445.7386   1414.78149     675.8833     445.7386
   1414.76624     673.0190     445.3258   1414.76624     673.0190     445.3258
   1414.75098     671.0823     444.7618   1414.75098     671.0823     444.7618
   1414.73572     668.4217     443.4959   1414.73572     668.4217     443.4959
   1414.72046     667.8539     443.7077   1414.72046     667.8539     443.7077
   1414.70520     665.4270     442.2883   1414.70520     665.4270     442.2883
   1414.68994     663.7576     441.5114   1414.68994     663.7576     441.5114
   1414.67468     660.7796     440.6633   1414.67468     660.7796     440.6633
   1414.65942     659.7950     439.9200   1414.65942     659.7950     439.9200
   1414.64417     657.3376     439.4425   1414.64417     657.3376     439.4425
   1414.62891     655.9849     438.0310   1414.62891     655.9849     438.0310
   1414.61365     654.1395     436.7775   1414.61365     654.1395     436.7775
   1414.59839     650.9099     436.3797   1414.59839     650.9099     436.3797
   1414.58313     649.6733     435.6626   1414.58313     649.6733     435.6626
   1414.56787     647.1454     434.7318   1414.56787     647.1454     434.7318
   1414.55261     644.1202     433.4839   1414.55261     644.1202     433.4839
   1414.53735     642.4092     432.7672   1414.53735     642.4092     432.7672
   1414.52209     641.1891     431.7735   1414.52209     641.1891     431.7735
   1414.50684     637.8947     430.8114   1414.50684     637.8947     430.8114
   1414.49158     635.3028     429.7612   1414.49158     635.3028     429.7612
   1414.47632     633.2404     428.8702   1414.47632     633.2404     428.8702
   1414.46106     630.9225     427.9388   1414.46106     630.9225     427.9388
   1414.44580     628.8502     427.3282   1414.44580     628.8502     427.3282
   1414.43054     626.4708     426.6674   1414.43054     626.4708     426.6674
   1414.41528     624.8018     424.9364   1414.41528     624.8018     424.9364
   1414.40002     621.6147     423.7248   1414.40002     621.6147     423.7248
   1414.38477     619.4485     423.5552   1414.38477     619.4485     423.5552
   1414.36951     616.7485     421.7225   1414.36951     616.7485     421.7225
   1414.35425     613.7883     421.2169   1414.35425     613.7883     421.2169
   1414.33899     611.7745     420.0970   1414.33899     611.7745     420.0970
   1414.32373     609.6257     419.1127   1414.32373     609.6257     419.1127
   1414.30847     606.2999     417.5421   1414.30847     606.2999     417.5421
   1414.29321     604.1494     415.7922   1414.29321     604.1494     415.7922
   1414.27795     601.7614     415.0850   1414.27795     601.7614     415.0850
   1414.26270     598.6979     414.1397   1414.26270     598.6979     414.1397
   1414.24744     596.0684     412.4956   1414.24744     596.0684     412.4956
   1414.23218     593.3109     412.3235   1414.23218     593.3109     412.3235
   1414.21692     591.2344     411.0437   1414.21692     591.2344     411.0437
   1414.20166     588.2518     409.1902   1414.20166     588.2518     409.1902
   1414.18640     585.9093     408.1834   1414.18640     585.9093     408.1834
   1414.17114     583.1119     405.8639   1414.17114     583.1119     405.8639
   1414.15588     580.1421     406.2403   1414.15588     580.1421     406.2403
   1414.14062     577.8450     404.8418   1414.14062     577.8450     404.8418
   1414.12537     575.1920     403.2840   1414.12537     575.1920     403.2840
   1414.11011     571.9737     402.6299   1414.11011     571.9737     402.6299
   1414.09485     569.5778     400.3616   1414.09485     569.5778     400.3616
   1414.07959     567.0379     399.5226   1414.07959     567.0379     399.5226
   1414.06433     564.4007     398.2297   1414.06433     564.4007     398.2297
   1414.04907     559.8787     396.4048   1414.04907     559.8787     396.4048
   1414.03381     558.2708     395.3912   1414.03381     558.2708     395.3912
   1414.01855     556.1812     394.0263   1414.01855     556.1812     394.0263
   1414.00330     577.8952     403.5943   1414.00330     577.8952     403.5943
   1413.98804     551.2515     392.2150   1413.98804     551.2515     392.2150
   1413.97278     546.9487     390.4063   1413.97278     546.9487     390.4063
   1413.95752     544.4382     388.5597   1413.95752     544.4382     388.5597
   1413.94226     541.4747     387.2554   1413.94226     541.4747     387.2554
   1413.92700     537.8417     386.7916   1413.92700     537.8417     386.7916
   1413.91174     535.5797     384.2363   1413.91174     535.5797     384.2363
   1413.89648     532.7158     383.0943   1413.89648     532.7158     383.0943
   1413.88123     529.9199     381.2857   1413.88123     529.9199     381.2857
   1413.86597     527.0854     379.9832   1413.86597     527.0854     379.9832
   1413.85071     523.8942     378.6411   1413.85071     523.8942     378.6411
   1413.83545     520.6080     377.4557   1413.83545     520.6080     377.4557
   1413.82019     518.7149     376.5395   1413.82019     518.7149     376.5395
   1413.80493     515.5157     374.6824   1413.80493     515.5157     374.6824
   1413.78967     512.8969     373.5913   1413.78967     512.8969     373.5913
   1413.77441     508.7213     371.1653   1413.77441     508.7213     371.1653
   1413.75916     506.5060     370.1678   1413.75916     506.5060     370.1678
   1413.74390     502.5628     369.1401   1413.74390     502.5628     369.1401
   1413.72864     500.2231     366.8118   1413.72864     500.2231     366.8118
   1413.71338     497.5895     365.6649   1413.71338     497.5895     365.6649
   1413.69812     494.7865     364.3504   1413.69812     494.7865     364.3504
   1413.68286     492.0774     362.7047   1413.68286     492.0774     362.7047
   1413.66760     489.4421     361.2653   1413.66760     489.4421     361.2653
   1413.65234     486.0758     359.8091   1413.65234     486.0758     359.8091
   1413.63708     482.1178     358.0909   1413.63708     482.1178     358.0909
   1413.62183     479.9589     356.8465   1413.62183     479.9589     356.8465
   1413.60657     476.9948     355.3786   1413.60657     476.9948     355.3786
   1413.59131     474.0322     353.4716   1413.59131     474.0322     353.4716
   1413.57605     471.8133     352.1221   1413.57605     471.8133     352.1221
   1413.56079     468.5043     350.2118   1413.56079     468.5043     350.2118
   1413.54553     465.7674     348.9150   1413.54553     465.7674     348.9150
   1413.53027     462.4089     347.6505   1413.53027     462.4089     347.6505
   1413.51501     459.5452     346.4472   1413.51501     459.5452     346.4472
   1413.49976     456.6873     344.6570   1413.49976     456.6873     344.6570
   1413.48450     454.0368     342.8972   1413.48450     454.0368     342.8972
   1413.46924     451.1177     340.5948   1413.46924     451.1177     340.5948
   1413.45398     449.1926     340.0633   1413.45398     449.1926     340.0633
   1413.43872     445.5643     338.0808   1413.43872     445.5643     338.0808
   1413.42346     441.9838     336.9762   1413.42346     441.9838     336.9762
   1413.40820     440.2657     334.9987   1413.40820     440.2657     334.9987
   1413.39294     437.4212     333.6074   1413.39294     437.4212     333.6074
   1413.37769     434.6822     331.9120   1413.37769     434.6822     331.9120
   1413.36243     431.7426     330.0153   1413.36243     431.7426     330.0153
   1413.34717     429.0244     329.0459   1413.34717     429.0244     329.0459
   1413.33191     427.0544     327.1775   1413.33191     427.0544     327.1775
   1413.31665     424.2088     325.9427   1413.31665     424.2088     325.9427
   1413.30139     421.8628     324.6198   1413.30139     421.8628     324.6198
   1413.28613     418.6276     323.6732   1413.28613     418.6276     323.6732
   1413.27087     416.3454     322.3751   1413.27087     416.3454     322.3751
   1413.25562     413.7351     319.7299   1413.25562     413.7351     319.7299
   1413.24036     411.2263     319.1835   1413.24036     411.2263     319.1835
   1413.22510     408.3900     317.1273   1413.22510     408.3900     317.1273
   1413.20984     406.1020     315.9215   1413.20984     406.1020     315.9215
   1413.19458     403.3286     314.8155   1413.19458     403.3286     314.8155
   1413.17932     401.3109     313.0057   1413.17932     401.3109     313.0057
   1413.16406     398.7962     311.5270   1413.16406     398.7962     311.5270
   1413.14880     396.2273     310.2543   1413.14880     396.2273     310.2543
   1413.13354     393.8434     308.7872   1413.13354     393.8434     308.7872
   1413.11829     392.0564     307.7971   1413.11829     392.0564     307.7971
   1413.10303     390.1380     306.4099   1413.10303     390.1380     306.4099
   1413.08777     387.5548     304.7412   1413.08777     387.5548     304.7412
   1413.07251     384.7654     303.5034   1413.07251     384.7654     303.5034
   1413.05725     382.5667     302.2195   1413.05725     382.5667     302.2195
   1413.04199     380.5610     300.6642   1413.04199     380.5610     300.6642
   1413.02673     379.1433     299.4993   1413.02673     379.1433     299.4993
   1413.01147     376.4135     298.3464   1413.01147     376.4135     298.3464
   1412.99622     374.4429     297.1700   1412.99622     374.4429     297.1700
   1412.98096     372.2453     295.7446   1412.98096     372.2453     295.7446
   1412.96570     370.0689     294.8044   1412.96570     370.0689     294.8044
   1412.95044     368.9846     293.6991   1412.95044     368.9846     293.6991
   1412.93518     366.4402     292.3295   1412.93518     366.4402     292.3295
   1412.91992     364.2847     291.3777   1412.91992     364.2847     291.3777
   1412.90466     362.7086     290.1836   1412.90466     362.7086     290.1836
   1412.88940     360.8174     288.7811   1412.88940     360.8174     288.7811
   1412.87415     359.5916     288.0811   1412.87415     359.5916     288.0811
   1412.85889     357.6454     287.4659   1412.85889     357.6454     287.4659
   1412.84363     355.5389     285.9088   1412.84363     355.5389     285.9088
   1412.82837     354.6967     285.0232   1412.82837     354.6967     285.0232
   1412.81311     352.9219     284.2400   1412.81311     352.9219     284.2400
   1412.79785     350.9342     282.8465   1412.79785     350.9342     282.8465
   1412.78259     349.6816     282.1495   1412.78259     349.6816     282.1495
   1412.76733     349.0771     281.2683   1412.76733     349.0771     281.2683
   1412.75208     346.6317     280.4064   1412.75208     346.6317     280.4064
   1412.73682     344.9854     279.7199   1412.73682     344.9854     279.7199
   1412.72156     344.4579     278.5633   1412.72156     344.4579     278.5633
   1412.70630     342.9926     277.7919   1412.70630     342.9926     277.7919
   1412.69104     341.2604     277.2340   1412.69104     341.2604     277.2340
   1412.67578     340.5808     276.7208   1412.67578     340.5808     276.7208
   1412.66052     339.6192     275.9862   1412.66052     339.6192     275.9862
   1412.64526     338.5946     275.3368   1412.64526     338.5946     275.3368
   1412.63000     337.1449     274.7343   1412.63000     337.1449     274.7343
   1412.61475     336.0120     273.5945   1412.61475     336.0120     273.5945
   1412.59949     335.6090     273.6994   1412.59949     335.6090     273.6994
   1412.58423     334.0065     273.1520   1412.58423     334.0065     273.1520
   1412.56897     333.5172     272.2511   1412.56897     333.5172     272.2511
   1412.55371     332.6562     272.4966   1412.55371     332.6562     272.4966
   1412.53845     332.1535     272.1186   1412.53845     332.1535     272.1186
   1412.52319     331.4186     271.6507   1412.52319     331.4186     271.6507
   1412.50793     330.5100     271.0937   1412.50793     330.5100     271.0937
   1412.49268     329.7109     270.5726   1412.49268     329.7109     270.5726
   1412.47742     330.0550     270.3648   1412.47742     330.0550     270.3648
   1412.46216     329.2396     269.9427   1412.46216     329.2396     269.9427
   1412.44690     328.6977     269.8114   1412.44690     328.6977     269.8114
   1412.43164     328.1548     269.8130   1412.43164     328.1548     269.8130
   1412.41638     328.0865     269.5773   1412.41638     328.0865     269.5773
   1412.40112     327.8267     269.1599   1412.40112     327.8267     269.1599
   1412.38586     327.0911     269.4800   1412.38586     327.0911     269.4800
   1412.37061     327.6684     270.0201   1412.37061     327.6684     270.0201
   1412.35535     327.3763     269.5807   1412.35535     327.3763     269.5807
   1412.34009     327.5343     269.2938   1412.34009     327.5343     269.2938
   1412.32483     326.5358     269.5797   1412.32483     326.5358     269.5797
   1412.30957     327.0140     270.0258   1412.30957     327.0140     270.0258
   1412.29431     327.0466     270.4512   1412.29431     327.0466     270.4512
   1412.27905     327.2784     269.8409   1412.27905     327.2784     269.8409
   1412.26379     327.7219     270.8033   1412.26379     327.7219     270.8033
   1412.24854     327.4011     271.0825   1412.24854     327.4011     271.0825
   1412.23328     327.9055     271.2798   1412.23328     327.9055     271.2798
   1412.21802     327.5394     271.7006   1412.21802     327.5394     271.7006
   1412.20276     328.0840     271.8459   1412.20276     328.0840     271.8459