#     FILENAME=!Skynet_57528_lach-cc-183_20574_21006.cyb.fits
#     BASENAME=Skynet_57528_lach-cc-183_20574_21006
#     SRC_NAME=lach-cc-183
#     OBSERVER=ccmadison16_9505
#     DATE_OBS=2016-05-20T18:46:13.430
#        OBSID=20574
#      SCANNUM=21006
#          MJD=57528.7831
#          UTC=67662
#     SCANTYPE=track
#     DATAMODE=HIRES
#     TUNEFREQ=1420.0000
# Actual_FREQ1=1420.0000
# Actual_FREQ2=1420.0000
#    LO1Tuning=6870.000
#     RFFILTER=1355_1435
#        OBSBW=-15.6250
#        NCHAN=1024 
#        FOCUS=37.0709
#           RA=05:52:33.78
#          DEC=26:21:48.91
#      RA(hrs)=5.875900
#     DEC(deg)=26.363600
#    AZIM(deg)=148.692
#    ELEV(deg)=76.149
#     IFattens=10.00, 9.00
#      WARNING=None
#    TCAL_XL1=7.9635
#    TCAL_YR1=9.1340
#    TCAL_XL2=7.9635
#    TCAL_YR2=9.1340
#     TRX_XL1=11.7060
#     TRX_YR1=11.7060
#     TRX_XL2=11.7060
#     TRX_YR2=11.7060
#        TAVE=1.0000
#Freq1(MHz)          XL1          YR1  Freq2(MHz)          XL2          YR2 

   1427.81250     376.1920     345.8256   1427.81250     376.1920     345.8256
   1427.79724     377.3521     346.8495   1427.79724     377.3521     346.8495
   1427.78198     377.8905     348.9819   1427.78198     377.8905     348.9819
   1427.76672     378.6666     350.1489   1427.76672     378.6666     350.1489
   1427.75146     378.8845     351.4781   1427.75146     378.8845     351.4781
   1427.73621     379.7062     352.7751   1427.73621     379.7062     352.7751
   1427.72095     381.3227     354.8441   1427.72095     381.3227     354.8441
   1427.70569     381.9662     355.9055   1427.70569     381.9662     355.9055
   1427.69043     382.7104     357.5654   1427.69043     382.7104     357.5654
   1427.67517     383.7352     359.4771   1427.67517     383.7352     359.4771
   1427.65991     384.6160     361.3432   1427.65991     384.6160     361.3432
   1427.64465     386.2646     362.0912   1427.64465     386.2646     362.0912
   1427.62939     387.1856     364.7510   1427.62939     387.1856     364.7510
   1427.61414     388.7206     366.3800   1427.61414     388.7206     366.3800
   1427.59888     389.9004     367.8934   1427.59888     389.9004     367.8934
   1427.58362     391.1459     370.2690   1427.58362     391.1459     370.2690
   1427.56836     392.8423     371.8394   1427.56836     392.8423     371.8394
   1427.55310     393.7668     373.3313   1427.55310     393.7668     373.3313
   1427.53784     395.0371     374.9555   1427.53784     395.0371     374.9555
   1427.52258     396.7583     378.2830   1427.52258     396.7583     378.2830
   1427.50732     398.5177     380.0772   1427.50732     398.5177     380.0772
   1427.49207     400.4729     381.8250   1427.49207     400.4729     381.8250
   1427.47681     402.5457     384.3983   1427.47681     402.5457     384.3983
   1427.46155     403.9438     386.7681   1427.46155     403.9438     386.7681
   1427.44629     405.5950     387.9365   1427.44629     405.5950     387.9365
   1427.43103     406.7383     389.6681   1427.43103     406.7383     389.6681
   1427.41577     408.8305     392.1140   1427.41577     408.8305     392.1140
   1427.40051     411.1531     394.6180   1427.40051     411.1531     394.6180
   1427.38525     412.7013     396.6302   1427.38525     412.7013     396.6302
   1427.37000     415.3168     398.9808   1427.37000     415.3168     398.9808
   1427.35474     416.6786     400.8960   1427.35474     416.6786     400.8960
   1427.33948     418.7372     403.4731   1427.33948     418.7372     403.4731
   1427.32422     422.4146     405.4865   1427.32422     422.4146     405.4865
   1427.30896     423.2204     407.8638   1427.30896     423.2204     407.8638
   1427.29370     425.7434     409.9816   1427.29370     425.7434     409.9816
   1427.27844     428.1738     412.0253   1427.27844     428.1738     412.0253
   1427.26318     430.4900     414.2425   1427.26318     430.4900     414.2425
   1427.24792     432.5510     416.5826   1427.24792     432.5510     416.5826
   1427.23267     434.7550     419.0293   1427.23267     434.7550     419.0293
   1427.21741     437.6507     420.8404   1427.21741     437.6507     420.8404
   1427.20215     439.3529     424.2270   1427.20215     439.3529     424.2270
   1427.18689     442.5842     426.3099   1427.18689     442.5842     426.3099
   1427.17163     445.0841     429.0792   1427.17163     445.0841     429.0792
   1427.15637     447.0868     430.5089   1427.15637     447.0868     430.5089
   1427.14111     450.3456     433.5787   1427.14111     450.3456     433.5787
   1427.12585     452.8835     435.3772   1427.12585     452.8835     435.3772
   1427.11060     454.7451     438.4329   1427.11060     454.7451     438.4329
   1427.09534     457.6469     440.8361   1427.09534     457.6469     440.8361
   1427.08008     460.5830     443.4032   1427.08008     460.5830     443.4032
   1427.06482     463.6570     445.3935   1427.06482     463.6570     445.3935
   1427.04956     465.9636     448.5991   1427.04956     465.9636     448.5991
   1427.03430     467.8647     450.7439   1427.03430     467.8647     450.7439
   1427.01904     471.6476     453.1166   1427.01904     471.6476     453.1166
   1427.00378     474.4990     455.1187   1427.00378     474.4990     455.1187
   1426.98853     476.7849     457.1028   1426.98853     476.7849     457.1028
   1426.97327     479.9819     460.4608   1426.97327     479.9819     460.4608
   1426.95801     482.1481     462.6551   1426.95801     482.1481     462.6551
   1426.94275     485.8981     465.0230   1426.94275     485.8981     465.0230
   1426.92749     488.0506     466.9290   1426.92749     488.0506     466.9290
   1426.91223     491.4446     469.4957   1426.91223     491.4446     469.4957
   1426.89697     494.3324     472.0020   1426.89697     494.3324     472.0020
   1426.88171     497.9640     474.7792   1426.88171     497.9640     474.7792
   1426.86646     500.0402     476.9534   1426.86646     500.0402     476.9534
   1426.85120     503.1899     479.0312   1426.85120     503.1899     479.0312
   1426.83594     506.4196     481.4713   1426.83594     506.4196     481.4713
   1426.82068     509.7653     483.6696   1426.82068     509.7653     483.6696
   1426.80542     513.5980     486.1644   1426.80542     513.5980     486.1644
   1426.79016     515.2685     488.1023   1426.79016     515.2685     488.1023
   1426.77490     518.5302     491.4973   1426.77490     518.5302     491.4973
   1426.75964     522.6672     493.3390   1426.75964     522.6672     493.3390
   1426.74438     525.6327     495.1540   1426.74438     525.6327     495.1540
   1426.72913     528.6149     498.0433   1426.72913     528.6149     498.0433
   1426.71387     530.4175     499.6554   1426.71387     530.4175     499.6554
   1426.69861     534.8288     502.9764   1426.69861     534.8288     502.9764
   1426.68335     537.1934     505.0673   1426.68335     537.1934     505.0673
   1426.66809     541.1342     507.0718   1426.66809     541.1342     507.0718
   1426.65283     544.9377     509.7843   1426.65283     544.9377     509.7843
   1426.63757     547.0775     512.3818   1426.63757     547.0775     512.3818
   1426.62231     550.9844     515.1641   1426.62231     550.9844     515.1641
   1426.60706     552.5135     516.7099   1426.60706     552.5135     516.7099
   1426.59180     556.5027     518.8557   1426.59180     556.5027     518.8557
   1426.57654     559.3073     520.9001   1426.57654     559.3073     520.9001
   1426.56128     561.8732     522.1048   1426.56128     561.8732     522.1048
   1426.54602     565.5939     523.9736   1426.54602     565.5939     523.9736
   1426.53076     568.4592     528.1282   1426.53076     568.4592     528.1282
   1426.51550     571.6269     529.8314   1426.51550     571.6269     529.8314
   1426.50024     575.3453     531.4763   1426.50024     575.3453     531.4763
   1426.48499     578.1856     532.9358   1426.48499     578.1856     532.9358
   1426.46973     580.4440     535.6237   1426.46973     580.4440     535.6237
   1426.45447     584.3619     538.5088   1426.45447     584.3619     538.5088
   1426.43921     587.7118     539.5367   1426.43921     587.7118     539.5367
   1426.42395     590.3005     541.0278   1426.42395     590.3005     541.0278
   1426.40869     593.7062     543.9235   1426.40869     593.7062     543.9235
   1426.39343     596.4866     545.3611   1426.39343     596.4866     545.3611
   1426.37817     599.0522     547.4693   1426.37817     599.0522     547.4693
   1426.36292     602.8029     549.8828   1426.36292     602.8029     549.8828
   1426.34766     606.2659     551.8964   1426.34766     606.2659     551.8964
   1426.33240     608.8148     554.1708   1426.33240     608.8148     554.1708
   1426.31714     612.1376     554.8831   1426.31714     612.1376     554.8831
   1426.30188     614.6275     556.8838   1426.30188     614.6275     556.8838
   1426.28662     617.4732     560.1679   1426.28662     617.4732     560.1679
   1426.27136     619.8555     561.1895   1426.27136     619.8555     561.1895
   1426.25610     623.0752     563.0385   1426.25610     623.0752     563.0385
   1426.24084     625.7307     563.3787   1426.24084     625.7307     563.3787
   1426.22559     629.0134     566.7464   1426.22559     629.0134     566.7464
   1426.21033     632.1844     568.4245   1426.21033     632.1844     568.4245
   1426.19507     634.9363     570.1431   1426.19507     634.9363     570.1431
   1426.17981     638.5739     571.7214   1426.17981     638.5739     571.7214
   1426.16455     640.6269     573.0856   1426.16455     640.6269     573.0856
   1426.14929     643.6824     575.1573   1426.14929     643.6824     575.1573
   1426.13403     645.8315     576.4795   1426.13403     645.8315     576.4795
   1426.11877     649.5107     578.9252   1426.11877     649.5107     578.9252
   1426.10352     651.9428     579.4478   1426.10352     651.9428     579.4478
   1426.08826     653.1420     581.7343   1426.08826     653.1420     581.7343
   1426.07300     656.5215     583.2762   1426.07300     656.5215     583.2762
   1426.05774     659.4709     585.1498   1426.05774     659.4709     585.1498
   1426.04248     662.1898     587.3253   1426.04248     662.1898     587.3253
   1426.02722     665.8492     587.9193   1426.02722     665.8492     587.9193
   1426.01196     666.8467     590.3001   1426.01196     666.8467     590.3001
   1425.99670     669.5767     591.2359   1425.99670     669.5767     591.2359
   1425.98145     671.0468     592.5112   1425.98145     671.0468     592.5112
   1425.96619     674.6385     593.0614   1425.96619     674.6385     593.0614
   1425.95093     677.2702     597.1009   1425.95093     677.2702     597.1009
   1425.93567     679.5558     595.8043   1425.93567     679.5558     595.8043
   1425.92041     681.4720     597.3440   1425.92041     681.4720     597.3440
   1425.90515     684.0153     600.0955   1425.90515     684.0153     600.0955
   1425.88989     686.5618     600.6293   1425.88989     686.5618     600.6293
   1425.87463     688.8187     602.1719   1425.87463     688.8187     602.1719
   1425.85938     691.1515     603.7869   1425.85938     691.1515     603.7869
   1425.84412     693.7969     605.2256   1425.84412     693.7969     605.2256
   1425.82886     694.6273     605.8446   1425.82886     694.6273     605.8446
   1425.81360     697.1465     607.0012   1425.81360     697.1465     607.0012
   1425.79834     700.7891     608.0196   1425.79834     700.7891     608.0196
   1425.78308     701.6555     609.8571   1425.78308     701.6555     609.8571
   1425.76782     702.8449     610.4958   1425.76782     702.8449     610.4958
   1425.75256     705.0568     612.5557   1425.75256     705.0568     612.5557
   1425.73730     707.2200     613.0557   1425.73730     707.2200     613.0557
   1425.72205     709.8826     613.6757   1425.72205     709.8826     613.6757
   1425.70679     710.6124     616.0433   1425.70679     710.6124     616.0433
   1425.69153     714.0403     616.5336   1425.69153     714.0403     616.5336
   1425.67627     715.4164     618.2797   1425.67627     715.4164     618.2797
   1425.66101     717.1810     618.5316   1425.66101     717.1810     618.5316
   1425.64575     720.3942     619.7290   1425.64575     720.3942     619.7290
   1425.63049     720.8700     620.1769   1425.63049     720.8700     620.1769
   1425.61523     723.0063     621.3544   1425.61523     723.0063     621.3544
   1425.59998     724.4614     622.4048   1425.59998     724.4614     622.4048
   1425.58472     726.6532     622.3199   1425.58472     726.6532     622.3199
   1425.56946     726.9756     623.2872   1425.56946     726.9756     623.2872
   1425.55420     729.1619     624.9044   1425.55420     729.1619     624.9044
   1425.53894     730.5229     624.9404   1425.53894     730.5229     624.9404
   1425.52368     732.2265     626.1025   1425.52368     732.2265     626.1025
   1425.50842     734.0364     626.7782   1425.50842     734.0364     626.7782
   1425.49316     735.3874     627.4716   1425.49316     735.3874     627.4716
   1425.47791     736.5778     629.3033   1425.47791     736.5778     629.3033
   1425.46265     738.1066     628.7918   1425.46265     738.1066     628.7918
   1425.44739     739.6404     630.0889   1425.44739     739.6404     630.0889
   1425.43213     740.6677     630.1497   1425.43213     740.6677     630.1497
   1425.41687     743.2444     631.2391   1425.41687     743.2444     631.2391
   1425.40161     744.8540     632.4459   1425.40161     744.8540     632.4459
   1425.38635     745.5040     632.6692   1425.38635     745.5040     632.6692
   1425.37109     746.1360     632.5235   1425.37109     746.1360     632.5235
   1425.35583     747.4067     633.7980   1425.35583     747.4067     633.7980
   1425.34058     748.4307     633.7684   1425.34058     748.4307     633.7684
   1425.32532     749.6777     634.7863   1425.32532     749.6777     634.7863
   1425.31006     750.3461     635.1057   1425.31006     750.3461     635.1057
   1425.29480     752.0623     635.3344   1425.29480     752.0623     635.3344
   1425.27954     752.9140     634.7812   1425.27954     752.9140     634.7812
   1425.26428     753.7626     637.1989   1425.26428     753.7626     637.1989
   1425.24902     753.7524     635.6478   1425.24902     753.7524     635.6478
   1425.23376     755.5922     637.4553   1425.23376     755.5922     637.4553
   1425.21851     755.7413     637.7419   1425.21851     755.7413     637.7419
   1425.20325     757.2672     637.6241   1425.20325     757.2672     637.6241
   1425.18799     756.8554     636.6362   1425.18799     756.8554     636.6362
   1425.17273     758.7360     638.7917   1425.17273     758.7360     638.7917
   1425.15747     759.3685     639.1156   1425.15747     759.3685     639.1156
   1425.14221     759.9822     638.8908   1425.14221     759.9822     638.8908
   1425.12695     763.0882     638.5540   1425.12695     763.0882     638.5540
   1425.11169     761.3282     639.0059   1425.11169     761.3282     639.0059
   1425.09644     762.5499     639.8734   1425.09644     762.5499     639.8734
   1425.08118     762.7958     639.6420   1425.08118     762.7958     639.6420
   1425.06592     763.4838     639.2714   1425.06592     763.4838     639.2714
   1425.05066     764.3206     640.9069   1425.05066     764.3206     640.9069
   1425.03540     764.3207     640.8135   1425.03540     764.3207     640.8135
   1425.02014     765.4020     640.7780   1425.02014     765.4020     640.7780
   1425.00488     764.5875     642.3997   1425.00488     764.5875     642.3997
   1424.98962     767.2969     640.8342   1424.98962     767.2969     640.8342
   1424.97437     766.9398     641.2570   1424.97437     766.9398     641.2570
   1424.95911     765.8650     641.3314   1424.95911     765.8650     641.3314
   1424.94385     767.9768     640.5069   1424.94385     767.9768     640.5069
   1424.92859     768.7460     640.1496   1424.92859     768.7460     640.1496
   1424.91333     768.6519     639.8909   1424.91333     768.6519     639.8909
   1424.89807     768.8703     640.5501   1424.89807     768.8703     640.5501
   1424.88281     769.4383     641.4566   1424.88281     769.4383     641.4566
   1424.86755     769.6570     640.0605   1424.86755     769.6570     640.0605
   1424.85229     768.4505     640.7304   1424.85229     768.4505     640.7304
   1424.83704     769.5551     641.4325   1424.83704     769.5551     641.4325
   1424.82178     768.8907     641.1589   1424.82178     768.8907     641.1589
   1424.80652     769.1825     640.7006   1424.80652     769.1825     640.7006
   1424.79126     768.7212     640.2834   1424.79126     768.7212     640.2834
   1424.77600     771.2504     639.2230   1424.77600     771.2504     639.2230
   1424.76074     770.3559     639.3350   1424.76074     770.3559     639.3350
   1424.74548     769.9943     638.9831   1424.74548     769.9943     638.9831
   1424.73022     771.3999     638.7783   1424.73022     771.3999     638.7783
   1424.71497     768.9977     639.4316   1424.71497     768.9977     639.4316
   1424.69971     770.0635     639.0197   1424.69971     770.0635     639.0197
   1424.68445     770.2482     638.7626   1424.68445     770.2482     638.7626
   1424.66919     769.3743     638.0663   1424.66919     769.3743     638.0663
   1424.65393     770.7360     638.4044   1424.65393     770.7360     638.4044
   1424.63867     770.0323     637.7310   1424.63867     770.0323     637.7310
   1424.62341     769.7763     638.3207   1424.62341     769.7763     638.3207
   1424.60815     769.5905     636.9573   1424.60815     769.5905     636.9573
   1424.59290     770.2033     637.0483   1424.59290     770.2033     637.0483
   1424.57764     771.4045     636.6873   1424.57764     771.4045     636.6873
   1424.56238     770.2258     636.2656   1424.56238     770.2258     636.2656
   1424.54712     768.4025     635.5403   1424.54712     768.4025     635.5403
   1424.53186     768.7416     635.3411   1424.53186     768.7416     635.3411
   1424.51660     769.4974     634.8673   1424.51660     769.4974     634.8673
   1424.50134     767.7747     635.9719   1424.50134     767.7747     635.9719
   1424.48608     770.0409     634.0823   1424.48608     770.0409     634.0823
   1424.47083     769.0084     634.4272   1424.47083     769.0084     634.4272
   1424.45557     768.3788     633.5573   1424.45557     768.3788     633.5573
   1424.44031     769.2385     632.1365   1424.44031     769.2385     632.1365
   1424.42505     767.6716     632.9792   1424.42505     767.6716     632.9792
   1424.40979     767.3728     631.3535   1424.40979     767.3728     631.3535
   1424.39453     768.0257     631.8299   1424.39453     768.0257     631.8299
   1424.37927     767.1453     630.5969   1424.37927     767.1453     630.5969
   1424.36401     766.6518     630.1556   1424.36401     766.6518     630.1556
   1424.34875     766.4023     631.0443   1424.34875     766.4023     631.0443
   1424.33350     766.1793     630.6433   1424.33350     766.1793     630.6433
   1424.31824     765.2698     630.0450   1424.31824     765.2698     630.0450
   1424.30298     766.0842     628.6514   1424.30298     766.0842     628.6514
   1424.28772     764.8633     628.4445   1424.28772     764.8633     628.4445
   1424.27246     765.0312     627.7474   1424.27246     765.0312     627.7474
   1424.25720     764.3270     627.4030   1424.25720     764.3270     627.4030
   1424.24194     763.5549     626.1429   1424.24194     763.5549     626.1429
   1424.22668     763.8365     625.7920   1424.22668     763.8365     625.7920
   1424.21143     763.5005     624.9697   1424.21143     763.5005     624.9697
   1424.19617     761.7224     623.5375   1424.19617     761.7224     623.5375
   1424.18091     763.1813     624.6299   1424.18091     763.1813     624.6299
   1424.16565     761.8624     623.9589   1424.16565     761.8624     623.9589
   1424.15039     761.0602     622.7005   1424.15039     761.0602     622.7005
   1424.13513     760.1598     621.7346   1424.13513     760.1598     621.7346
   1424.11987     760.0027     621.2047   1424.11987     760.0027     621.2047
   1424.10461     761.1390     620.8672   1424.10461     761.1390     620.8672
   1424.08936     759.3522     620.3094   1424.08936     759.3522     620.3094
   1424.07410     759.4840     619.6750   1424.07410     759.4840     619.6750
   1424.05884     758.0656     618.9748   1424.05884     758.0656     618.9748
   1424.04358     758.1653     618.7244   1424.04358     758.1653     618.7244
   1424.02832     757.2491     617.0907   1424.02832     757.2491     617.0907
   1424.01306     757.0280     616.0958   1424.01306     757.0280     616.0958
   1423.99780     756.2821     616.7624   1423.99780     756.2821     616.7624
   1423.98254     756.2496     615.4033   1423.98254     756.2496     615.4033
   1423.96729     757.0701     614.2894   1423.96729     757.0701     614.2894
   1423.95203     755.8912     613.7664   1423.95203     755.8912     613.7664
   1423.93677     754.4919     613.4073   1423.93677     754.4919     613.4073
   1423.92151     754.4780     611.9525   1423.92151     754.4780     611.9525
   1423.90625     754.2173     611.0735   1423.90625     754.2173     611.0735
   1423.89099     754.8139     610.6500   1423.89099     754.8139     610.6500
   1423.87573     753.2883     610.8584   1423.87573     753.2883     610.8584
   1423.86047     752.6439     609.0061   1423.86047     752.6439     609.0061
   1423.84521     751.9107     607.9573   1423.84521     751.9107     607.9573
   1423.82996     751.2564     607.3527   1423.82996     751.2564     607.3527
   1423.81470     750.1749     607.4061   1423.81470     750.1749     607.4061
   1423.79944     752.1140     606.0146   1423.79944     752.1140     606.0146
   1423.78418     750.4075     605.4651   1423.78418     750.4075     605.4651
   1423.76892     749.7638     604.9468   1423.76892     749.7638     604.9468
   1423.75366     749.3846     604.1116   1423.75366     749.3846     604.1116
   1423.73840     749.3093     603.7362   1423.73840     749.3093     603.7362
   1423.72314     748.6832     602.4132   1423.72314     748.6832     602.4132
   1423.70789     747.9860     600.3691   1423.70789     747.9860     600.3691
   1423.69263     746.7075     600.9950   1423.69263     746.7075     600.9950
   1423.67737     746.0000     599.5153   1423.67737     746.0000     599.5153
   1423.66211     746.6149     598.4332   1423.66211     746.6149     598.4332
   1423.64685     746.5114     597.1694   1423.64685     746.5114     597.1694
   1423.63159     744.8837     596.8694   1423.63159     744.8837     596.8694
   1423.61633     743.7285     596.5895   1423.61633     743.7285     596.5895
   1423.60107     745.1182     595.6385   1423.60107     745.1182     595.6385
   1423.58582     744.5481     594.6506   1423.58582     744.5481     594.6506
   1423.57056     742.7471     593.0612   1423.57056     742.7471     593.0612
   1423.55530     742.5773     591.9229   1423.55530     742.5773     591.9229
   1423.54004     743.3536     592.0740   1423.54004     743.3536     592.0740
   1423.52478     741.6843     590.9891   1423.52478     741.6843     590.9891
   1423.50952     740.7913     589.8653   1423.50952     740.7913     589.8653
   1423.49426     741.4503     589.0809   1423.49426     741.4503     589.0809
   1423.47900     739.6865     586.6998   1423.47900     739.6865     586.6998
   1423.46375     740.0352     586.6411   1423.46375     740.0352     586.6411
   1423.44849     740.3598     586.5115   1423.44849     740.3598     586.5115
   1423.43323     738.5346     585.8653   1423.43323     738.5346     585.8653
   1423.41797     736.9270     584.9282   1423.41797     736.9270     584.9282
   1423.40271     739.2609     583.7550   1423.40271     739.2609     583.7550
   1423.38745     737.8000     582.3597   1423.38745     737.8000     582.3597
   1423.37219     738.3544     581.0870   1423.37219     738.3544     581.0870
   1423.35693     735.9913     581.5787   1423.35693     735.9913     581.5787
   1423.34167     736.3993     579.6546   1423.34167     736.3993     579.6546
   1423.32642     735.9382     578.2084   1423.32642     735.9382     578.2084
   1423.31116     734.7947     577.7227   1423.31116     734.7947     577.7227
   1423.29590     734.7729     576.9492   1423.29590     734.7729     576.9492
   1423.28064     734.7880     575.5600   1423.28064     734.7880     575.5600
   1423.26538     734.9023     575.0871   1423.26538     734.9023     575.0871
   1423.25012     733.2601     574.3646   1423.25012     733.2601     574.3646
   1423.23486     734.3063     574.3066   1423.23486     734.3063     574.3066
   1423.21960     733.9132     572.4504   1423.21960     733.9132     572.4504
   1423.20435     732.8646     571.4151   1423.20435     732.8646     571.4151
   1423.18909     733.1591     570.1676   1423.18909     733.1591     570.1676
   1423.17383     732.0573     569.6823   1423.17383     732.0573     569.6823
   1423.15857     731.3748     568.7160   1423.15857     731.3748     568.7160
   1423.14331     730.1530     567.2449   1423.14331     730.1530     567.2449
   1423.12805     731.4952     566.9633   1423.12805     731.4952     566.9633
   1423.11279     730.5181     565.5837   1423.11279     730.5181     565.5837
   1423.09753     730.0815     564.6868   1423.09753     730.0815     564.6868
   1423.08228     728.2442     563.5140   1423.08228     728.2442     563.5140
   1423.06702     729.9155     561.8743   1423.06702     729.9155     561.8743
   1423.05176     730.3474     560.9161   1423.05176     730.3474     560.9161
   1423.03650     729.4286     560.7726   1423.03650     729.4286     560.7726
   1423.02124     727.8969     560.4518   1423.02124     727.8969     560.4518
   1423.00598     728.5134     558.5346   1423.00598     728.5134     558.5346
   1422.99072     728.6300     558.1397   1422.99072     728.6300     558.1397
   1422.97546     727.2072     557.0819   1422.97546     727.2072     557.0819
   1422.96021     727.8343     555.8249   1422.96021     727.8343     555.8249
   1422.94495     726.5057     554.1143   1422.94495     726.5057     554.1143
   1422.92969     726.9921     553.9213   1422.92969     726.9921     553.9213
   1422.91443     726.1014     553.4108   1422.91443     726.1014     553.4108
   1422.89917     726.4290     551.2965   1422.89917     726.4290     551.2965
   1422.88391     727.0156     550.8625   1422.88391     727.0156     550.8625
   1422.86865     725.9948     549.2247   1422.86865     725.9948     549.2247
   1422.85339     725.7591     548.4716   1422.85339     725.7591     548.4716
   1422.83813     725.6602     547.8271   1422.83813     725.6602     547.8271
   1422.82288     725.3041     547.1826   1422.82288     725.3041     547.1826
   1422.80762     724.8230     545.3583   1422.80762     724.8230     545.3583
   1422.79236     724.7232     544.8467   1422.79236     724.7232     544.8467
   1422.77710     723.5388     543.3685   1422.77710     723.5388     543.3685
   1422.76184     723.4257     541.8304   1422.76184     723.4257     541.8304
   1422.74658     723.4783     540.8466   1422.74658     723.4783     540.8466
   1422.73132     724.0950     541.4274   1422.73132     724.0950     541.4274
   1422.71606     723.2883     539.9390   1422.71606     723.2883     539.9390
   1422.70081     723.1461     538.6345   1422.70081     723.1461     538.6345
   1422.68555     721.9688     537.1596   1422.68555     721.9688     537.1596
   1422.67029     723.5572     536.3660   1422.67029     723.5572     536.3660
   1422.65503     722.5880     535.6981   1422.65503     722.5880     535.6981
   1422.63977     722.4857     535.3253   1422.63977     722.4857     535.3253
   1422.62451     722.7682     533.3138   1422.62451     722.7682     533.3138
   1422.60925     721.1178     533.4485   1422.60925     721.1178     533.4485
   1422.59399     720.9344     531.3221   1422.59399     720.9344     531.3221
   1422.57874     721.1520     530.6337   1422.57874     721.1520     530.6337
   1422.56348     721.0601     529.1913   1422.56348     721.0601     529.1913
   1422.54822     721.4949     528.6823   1422.54822     721.4949     528.6823
   1422.53296     722.3899     528.4119   1422.53296     722.3899     528.4119
   1422.51770     721.2003     526.9547   1422.51770     721.2003     526.9547
   1422.50244     720.7581     525.9949   1422.50244     720.7581     525.9949
   1422.48718     720.0766     524.5865   1422.48718     720.0766     524.5865
   1422.47192     720.5955     524.5621   1422.47192     720.5955     524.5621
   1422.45667     720.9935     523.0353   1422.45667     720.9935     523.0353
   1422.44141     720.5967     522.4695   1422.44141     720.5967     522.4695
   1422.42615     720.7451     520.8782   1422.42615     720.7451     520.8782
   1422.41089     719.4728     520.1168   1422.41089     719.4728     520.1168
   1422.39563     719.8123     518.6270   1422.39563     719.8123     518.6270
   1422.38037     719.5358     518.7872   1422.38037     719.5358     518.7872
   1422.36511     719.1364     516.2264   1422.36511     719.1364     516.2264
   1422.34985     720.0128     516.2695   1422.34985     720.0128     516.2695
   1422.33459     719.2313     515.0983   1422.33459     719.2313     515.0983
   1422.31934     719.7859     513.8069   1422.31934     719.7859     513.8069
   1422.30408     719.4559     512.8287   1422.30408     719.4559     512.8287
   1422.28882     719.8702     511.7676   1422.28882     719.8702     511.7676
   1422.27356     719.7519     510.9242   1422.27356     719.7519     510.9242
   1422.25830     718.9316     510.1129   1422.25830     718.9316     510.1129
   1422.24304     718.8525     509.0485   1422.24304     718.8525     509.0485
   1422.22778     716.7689     508.0746   1422.22778     716.7689     508.0746
   1422.21252     719.0838     507.2609   1422.21252     719.0838     507.2609
   1422.19727     718.4480     505.9264   1422.19727     718.4480     505.9264
   1422.18201     719.1425     505.4046   1422.18201     719.1425     505.4046
   1422.16675     717.6567     504.3368   1422.16675     717.6567     504.3368
   1422.15149     719.3722     503.1588   1422.15149     719.3722     503.1588
   1422.13623     718.3257     501.5747   1422.13623     718.3257     501.5747
   1422.12097     719.0098     501.6674   1422.12097     719.0098     501.6674
   1422.10571     719.5632     500.2605   1422.10571     719.5632     500.2605
   1422.09045     716.9790     499.6915   1422.09045     716.9790     499.6915
   1422.07520     717.6907     497.1382   1422.07520     717.6907     497.1382
   1422.05994     718.5300     497.1511   1422.05994     718.5300     497.1511
   1422.04468     717.0084     496.9554   1422.04468     717.0084     496.9554
   1422.02942     719.3856     496.1167   1422.02942     719.3856     496.1167
   1422.01416     716.3958     494.7389   1422.01416     716.3958     494.7389
   1421.99890     717.6735     493.9371   1421.99890     717.6735     493.9371
   1421.98364     716.9102     492.9194   1421.98364     716.9102     492.9194
   1421.96838     716.4535     492.4560   1421.96838     716.4535     492.4560
   1421.95312     717.2374     491.0175   1421.95312     717.2374     491.0175
   1421.93787     716.9061     490.7494   1421.93787     716.9061     490.7494
   1421.92261     717.2562     488.6425   1421.92261     717.2562     488.6425
   1421.90735     716.3992     488.7863   1421.90735     716.3992     488.7863
   1421.89209     717.2700     487.8720   1421.89209     717.2700     487.8720
   1421.87683     718.3022     486.5021   1421.87683     718.3022     486.5021
   1421.86157     717.5704     486.5976   1421.86157     717.5704     486.5976
   1421.84631     716.9877     484.1548   1421.84631     716.9877     484.1548
   1421.83105     715.7728     483.9082   1421.83105     715.7728     483.9082
   1421.81580     716.2955     483.2492   1421.81580     716.2955     483.2492
   1421.80054     715.7172     482.0304   1421.80054     715.7172     482.0304
   1421.78528     717.0051     481.6286   1421.78528     717.0051     481.6286
   1421.77002     716.5081     480.2912   1421.77002     716.5081     480.2912
   1421.75476     717.5399     480.2947   1421.75476     717.5399     480.2947
   1421.73950     714.7765     478.4822   1421.73950     714.7765     478.4822
   1421.72424     715.5341     477.6029   1421.72424     715.5341     477.6029
   1421.70898     715.8870     476.6711   1421.70898     715.8870     476.6711
   1421.69373     716.5557     476.5842   1421.69373     716.5557     476.5842
   1421.67847     716.0754     475.4734   1421.67847     716.0754     475.4734
   1421.66321     714.5142     474.3170   1421.66321     714.5142     474.3170
   1421.64795     715.5380     473.7217   1421.64795     715.5380     473.7217
   1421.63269     716.0125     471.9796   1421.63269     716.0125     471.9796
   1421.61743     713.3242     471.1529   1421.61743     713.3242     471.1529
   1421.60217     715.3848     470.5171   1421.60217     715.3848     470.5171
   1421.58691     714.3139     469.8582   1421.58691     714.3139     469.8582
   1421.57166     713.6210     468.7806   1421.57166     713.6210     468.7806
   1421.55640     714.6695     468.4316   1421.55640     714.6695     468.4316
   1421.54114     714.0266     467.4312   1421.54114     714.0266     467.4312
   1421.52588     714.3949     466.5738   1421.52588     714.3949     466.5738
   1421.51062     713.9194     465.2155   1421.51062     713.9194     465.2155
   1421.49536     713.6976     464.6504   1421.49536     713.6976     464.6504
   1421.48010     714.6965     465.0568   1421.48010     714.6965     465.0568
   1421.46484     713.6189     463.4609   1421.46484     713.6189     463.4609
   1421.44958     714.2176     461.6586   1421.44958     714.2176     461.6586
   1421.43433     714.4338     461.4301   1421.43433     714.4338     461.4301
   1421.41907     712.9833     461.1344   1421.41907     712.9833     461.1344
   1421.40381     713.3856     460.0121   1421.40381     713.3856     460.0121
   1421.38855     712.5307     458.9566   1421.38855     712.5307     458.9566
   1421.37329     712.7516     458.0581   1421.37329     712.7516     458.0581
   1421.35803     712.3871     457.8538   1421.35803     712.3871     457.8538
   1421.34277     713.0594     456.9265   1421.34277     713.0594     456.9265
   1421.32751     712.7044     455.5951   1421.32751     712.7044     455.5951
   1421.31226     712.6810     455.3480   1421.31226     712.6810     455.3480
   1421.29700     711.1838     454.2058   1421.29700     711.1838     454.2058
   1421.28174     712.0455     453.4360   1421.28174     712.0455     453.4360
   1421.26648     712.0975     452.2730   1421.26648     712.0975     452.2730
   1421.25122     711.1741     452.4500   1421.25122     711.1741     452.4500
   1421.23596     710.7324     450.6400   1421.23596     710.7324     450.6400
   1421.22070     710.6426     449.6825   1421.22070     710.6426     449.6825
   1421.20544     710.6755     449.0029   1421.20544     710.6755     449.0029
   1421.19019     711.5583     449.1350   1421.19019     711.5583     449.1350
   1421.17493     709.3297     447.7882   1421.17493     709.3297     447.7882
   1421.15967     709.4625     447.2236   1421.15967     709.4625     447.2236
   1421.14441     710.2719     446.5280   1421.14441     710.2719     446.5280
   1421.12915     710.2062     445.9698   1421.12915     710.2062     445.9698
   1421.11389     709.3354     444.4810   1421.11389     709.3354     444.4810
   1421.09863     710.2853     444.2896   1421.09863     710.2853     444.2896
   1421.08337     708.0567     442.8417   1421.08337     708.0567     442.8417
   1421.06812     709.7888     442.2144   1421.06812     709.7888     442.2144
   1421.05286     709.1683     441.1094   1421.05286     709.1683     441.1094
   1421.03760     708.4083     441.0711   1421.03760     708.4083     441.0711
   1421.02234     708.8699     439.5958   1421.02234     708.8699     439.5958
   1421.00708     708.7618     439.9836   1421.00708     708.7618     439.9836
   1420.99182     709.5788     439.2184   1420.99182     709.5788     439.2184
   1420.97656     708.6779     437.8284   1420.97656     708.6779     437.8284
   1420.96130     709.1694     437.2129   1420.96130     709.1694     437.2129
   1420.94604     707.3533     437.1014   1420.94604     707.3533     437.1014
   1420.93079     708.4256     436.1873   1420.93079     708.4256     436.1873
   1420.91553     707.9745     436.4365   1420.91553     707.9745     436.4365
   1420.90027     708.7939     434.3219   1420.90027     708.7939     434.3219
   1420.88501     707.1598     433.2807   1420.88501     707.1598     433.2807
   1420.86975     706.5537     433.3743   1420.86975     706.5537     433.3743
   1420.85449     707.5064     432.9776   1420.85449     707.5064     432.9776
   1420.83923     707.1999     432.0263   1420.83923     707.1999     432.0263
   1420.82397     707.1566     431.1113   1420.82397     707.1566     431.1113
   1420.80872     707.2474     430.9734   1420.80872     707.2474     430.9734
   1420.79346     706.6631     430.4806   1420.79346     706.6631     430.4806
   1420.77820     707.0858     430.1393   1420.77820     707.0858     430.1393
   1420.76294     707.4515     429.1509   1420.76294     707.4515     429.1509
   1420.74768     706.5699     428.3732   1420.74768     706.5699     428.3732
   1420.73242     706.7914     427.7721   1420.73242     706.7914     427.7721
   1420.71716     707.0675     427.6495   1420.71716     707.0675     427.6495
   1420.70190     708.1560     427.0626   1420.70190     708.1560     427.0626
   1420.68665     707.8251     426.7915   1420.68665     707.8251     426.7915
   1420.67139     707.4832     425.9730   1420.67139     707.4832     425.9730
   1420.65613     707.5706     425.9810   1420.65613     707.5706     425.9810
   1420.64087     707.6703     425.6299   1420.64087     707.6703     425.6299
   1420.62561     709.4701     425.7723   1420.62561     709.4701     425.7723
   1420.61035     707.8784     424.6675   1420.61035     707.8784     424.6675
   1420.59509     708.8488     424.3760   1420.59509     708.8488     424.3760
   1420.57983     711.8518     424.3478   1420.57983     711.8518     424.3478
   1420.56458     713.2026     424.6864   1420.56458     713.2026     424.6864
   1420.54932     714.0495     426.3403   1420.54932     714.0495     426.3403
   1420.53406     715.6158     426.6368   1420.53406     715.6158     426.6368
   1420.51880     718.6791     427.5654   1420.51880     718.6791     427.5654
   1420.50354     720.7622     428.8903   1420.50354     720.7622     428.8903
   1420.48828     725.4318     430.2118   1420.48828     725.4318     430.2118
   1420.47302     731.5833     433.5885   1420.47302     731.5833     433.5885
   1420.45776     743.6925     439.0787   1420.45776     743.6925     439.0787
   1420.44250     759.6001     448.8483   1420.44250     759.6001     448.8483
   1420.42725     781.5656     460.8127   1420.42725     781.5656     460.8127
   1420.41199     809.8045     476.7937   1420.41199     809.8045     476.7937
   1420.39673     851.8219     499.2346   1420.39673     851.8219     499.2346
   1420.38147     918.4601     537.1642   1420.38147     918.4601     537.1642
   1420.36621    1079.8253     627.2589   1420.36621    1079.8253     627.2589
   1420.35095    1474.1418     848.4745   1420.35095    1474.1418     848.4745
   1420.33569    1873.5486    1076.8926   1420.33569    1873.5486    1076.8926
   1420.32043    2059.8308    1181.9531   1420.32043    2059.8308    1181.9531
   1420.30518    2318.4341    1327.6886   1420.30518    2318.4341    1327.6886
   1420.28992    2490.7578    1424.6726   1420.28992    2490.7578    1424.6726
   1420.27466    2850.1060    1628.2063   1420.27466    2850.1060    1628.2063
   1420.25940    3067.8867    1748.4154   1420.25940    3067.8867    1748.4154
   1420.24414    2636.7861    1503.0177   1420.24414    2636.7861    1503.0177
   1420.22888    1933.6167    1104.6135   1420.22888    1933.6167    1104.6135
   1420.21362    1197.5392     689.9300   1420.21362    1197.5392     689.9300
   1420.19836     907.7525     526.6516   1420.19836     907.7525     526.6516
   1420.18311     803.9905     465.4233   1420.18311     803.9905     465.4233
   1420.16785     756.1562     438.7504   1420.16785     756.1562     438.7504
   1420.15259     732.8419     424.9487   1420.15259     732.8419     424.9487
   1420.13733     720.9307     418.6075   1420.13733     720.9307     418.6075
   1420.12207     712.8900     413.6657   1420.12207     712.8900     413.6657
   1420.10681     707.6971     410.2786   1420.10681     707.6971     410.2786
   1420.09155     704.9189     407.7915   1420.09155     704.9189     407.7915
   1420.07629     701.4272     405.7648   1420.07629     701.4272     405.7648
   1420.06104     699.6529     405.0978   1420.06104     699.6529     405.0978
   1420.04578     698.4062     404.0068   1420.04578     698.4062     404.0068
   1420.03052     697.9278     403.2079   1420.03052     697.9278     403.2079
   1420.01526     696.8988     402.5368   1420.01526     696.8988     402.5368
   1420.00000     697.9134     403.3415   1420.00000     697.9134     403.3415
   1419.98474     698.9281     404.1461   1419.98474     698.9281     404.1461
   1419.96948     698.2129     401.5998   1419.96948     698.2129     401.5998
   1419.95422     696.8301     400.0608   1419.95422     696.8301     400.0608
   1419.93896     695.8737     399.9590   1419.93896     695.8737     399.9590
   1419.92371     695.1015     398.7752   1419.92371     695.1015     398.7752
   1419.90845     694.3276     398.3727   1419.90845     694.3276     398.3727
   1419.89319     695.0826     399.0328   1419.89319     695.0826     399.0328
   1419.87793     694.5074     398.3146   1419.87793     694.5074     398.3146
   1419.86267     694.0848     397.5971   1419.86267     694.0848     397.5971
   1419.84741     694.6924     397.8899   1419.84741     694.6924     397.8899
   1419.83215     694.9714     396.7756   1419.83215     694.9714     396.7756
   1419.81689     693.9631     396.2955   1419.81689     693.9631     396.2955
   1419.80164     693.7064     396.0779   1419.80164     693.7064     396.0779
   1419.78638     694.2894     395.9852   1419.78638     694.2894     395.9852
   1419.77112     692.7104     395.5563   1419.77112     692.7104     395.5563
   1419.75586     693.8480     394.9280   1419.75586     693.8480     394.9280
   1419.74060     693.5653     394.5399   1419.74060     693.5653     394.5399
   1419.72534     692.8764     394.0535   1419.72534     692.8764     394.0535
   1419.71008     692.2567     394.3973   1419.71008     692.2567     394.3973
   1419.69482     695.2922     393.8896   1419.69482     695.2922     393.8896
   1419.67957     693.4058     394.2895   1419.67957     693.4058     394.2895
   1419.66431     693.4656     393.7180   1419.66431     693.4656     393.7180
   1419.64905     694.7330     393.2262   1419.64905     694.7330     393.2262
   1419.63379     694.1182     393.1615   1419.63379     694.1182     393.1615
   1419.61853     693.6936     392.6886   1419.61853     693.6936     392.6886
   1419.60327     695.1501     393.5099   1419.60327     695.1501     393.5099
   1419.58801     694.0563     392.0336   1419.58801     694.0563     392.0336
   1419.57275     694.5557     393.4096   1419.57275     694.5557     393.4096
   1419.55750     694.9938     392.3049   1419.55750     694.9938     392.3049
   1419.54224     694.7935     392.2495   1419.54224     694.7935     392.2495
   1419.52698     694.6503     393.0402   1419.52698     694.6503     393.0402
   1419.51172     694.6376     392.5485   1419.51172     694.6376     392.5485
   1419.49646     695.8681     392.1571   1419.49646     695.8681     392.1571
   1419.48120     695.9160     393.0047   1419.48120     695.9160     393.0047
   1419.46594     695.6805     392.0427   1419.46594     695.6805     392.0427
   1419.45068     697.5455     392.2765   1419.45068     697.5455     392.2765
   1419.43542     696.1226     392.4194   1419.43542     696.1226     392.4194
   1419.42017     696.8712     392.2143   1419.42017     696.8712     392.2143
   1419.40491     697.2518     392.4640   1419.40491     697.2518     392.4640
   1419.38965     696.8685     391.7679   1419.38965     696.8685     391.7679
   1419.37439     696.4750     391.9753   1419.37439     696.4750     391.9753
   1419.35913     697.6927     392.1402   1419.35913     697.6927     392.1402
   1419.34387     697.5114     391.8835   1419.34387     697.5114     391.8835
   1419.32861     697.7761     391.8446   1419.32861     697.7761     391.8446
   1419.31335     698.9472     392.2336   1419.31335     698.9472     392.2336
   1419.29810     698.6951     392.3748   1419.29810     698.6951     392.3748
   1419.28284     698.0972     392.0869   1419.28284     698.0972     392.0869
   1419.26758     700.4391     392.0185   1419.26758     700.4391     392.0185
   1419.25232     699.7791     392.7636   1419.25232     699.7791     392.7636
   1419.23706     699.9189     392.7707   1419.23706     699.9189     392.7707
   1419.22180     700.7963     392.8690   1419.22180     700.7963     392.8690
   1419.20654     700.2819     393.9657   1419.20654     700.2819     393.9657
   1419.19128     700.7206     392.7377   1419.19128     700.7206     392.7377
   1419.17603     700.7198     392.8864   1419.17603     700.7198     392.8864
   1419.16077     701.1185     393.3325   1419.16077     701.1185     393.3325
   1419.14551     701.2591     393.4511   1419.14551     701.2591     393.4511
   1419.13025     702.6115     393.4545   1419.13025     702.6115     393.4545
   1419.11499     701.8292     394.0228   1419.11499     701.8292     394.0228
   1419.09973     701.9918     393.3485   1419.09973     701.9918     393.3485
   1419.08447     702.5826     393.9589   1419.08447     702.5826     393.9589
   1419.06921     704.8022     394.1228   1419.06921     704.8022     394.1228
   1419.05396     704.1401     394.0443   1419.05396     704.1401     394.0443
   1419.03870     705.7798     394.6675   1419.03870     705.7798     394.6675
   1419.02344     705.4793     394.5516   1419.02344     705.4793     394.5516
   1419.00818     705.1712     395.6148   1419.00818     705.1712     395.6148
   1418.99292     705.0863     395.2406   1418.99292     705.0863     395.2406
   1418.97766     706.7368     395.6598   1418.97766     706.7368     395.6598
   1418.96240     707.6162     395.7291   1418.96240     707.6162     395.7291
   1418.94714     708.3652     395.5754   1418.94714     708.3652     395.5754
   1418.93188     708.3669     396.1411   1418.93188     708.3669     396.1411
   1418.91663     708.2296     397.5184   1418.91663     708.2296     397.5184
   1418.90137     708.5939     397.4947   1418.90137     708.5939     397.4947
   1418.88611     709.3699     396.8124   1418.88611     709.3699     396.8124
   1418.87085     710.3594     397.5708   1418.87085     710.3594     397.5708
   1418.85559     709.8464     398.2454   1418.85559     709.8464     398.2454
   1418.84033     711.3444     398.3676   1418.84033     711.3444     398.3676
   1418.82507     712.4625     398.8809   1418.82507     712.4625     398.8809
   1418.80981     713.1362     399.0174   1418.80981     713.1362     399.0174
   1418.79456     712.7378     398.9035   1418.79456     712.7378     398.9035
   1418.77930     714.0719     399.9722   1418.77930     714.0719     399.9722
   1418.76404     714.3688     399.5726   1418.76404     714.3688     399.5726
   1418.74878     715.5395     401.0773   1418.74878     715.5395     401.0773
   1418.73352     715.7414     400.9462   1418.73352     715.7414     400.9462
   1418.71826     716.1822     401.5586   1418.71826     716.1822     401.5586
   1418.70300     715.7923     401.7597   1418.70300     715.7923     401.7597
   1418.68774     717.2297     402.4378   1418.68774     717.2297     402.4378
   1418.67249     717.8154     402.8467   1418.67249     717.8154     402.8467
   1418.65723     718.1915     403.0298   1418.65723     718.1915     403.0298
   1418.64197     718.6207     403.1366   1418.64197     718.6207     403.1366
   1418.62671     719.2799     404.2627   1418.62671     719.2799     404.2627
   1418.61145     720.0930     405.6546   1418.61145     720.0930     405.6546
   1418.59619     720.0830     405.5537   1418.59619     720.0830     405.5537
   1418.58093     722.2565     406.1041   1418.58093     722.2565     406.1041
   1418.56567     722.9670     406.1068   1418.56567     722.9670     406.1068
   1418.55042     722.6127     407.1078   1418.55042     722.6127     407.1078
   1418.53516     723.6740     407.8496   1418.53516     723.6740     407.8496
   1418.51990     724.4752     407.9914   1418.51990     724.4752     407.9914
   1418.50464     724.7462     408.9749   1418.50464     724.7462     408.9749
   1418.48938     726.0721     408.6504   1418.48938     726.0721     408.6504
   1418.47412     726.5160     409.6294   1418.47412     726.5160     409.6294
   1418.45886     727.0342     410.5145   1418.45886     727.0342     410.5145
   1418.44360     728.6875     411.1823   1418.44360     728.6875     411.1823
   1418.42834     729.4792     411.5359   1418.42834     729.4792     411.5359
   1418.41309     729.2952     412.1319   1418.41309     729.2952     412.1319
   1418.39783     729.3106     412.4747   1418.39783     729.3106     412.4747
   1418.38257     732.4515     412.6743   1418.38257     732.4515     412.6743
   1418.36731     730.5861     413.5259   1418.36731     730.5861     413.5259
   1418.35205     732.9330     414.7985   1418.35205     732.9330     414.7985
   1418.33679     733.2684     415.4436   1418.33679     733.2684     415.4436
   1418.32153     733.5584     416.0022   1418.32153     733.5584     416.0022
   1418.30627     734.3761     417.0234   1418.30627     734.3761     417.0234
   1418.29102     735.6031     417.5079   1418.29102     735.6031     417.5079
   1418.27576     736.7169     418.2486   1418.27576     736.7169     418.2486
   1418.26050     735.3297     418.7612   1418.26050     735.3297     418.7612
   1418.24524     737.5896     418.8822   1418.24524     737.5896     418.8822
   1418.22998     739.4077     420.3786   1418.22998     739.4077     420.3786
   1418.21472     739.4235     420.2816   1418.21472     739.4235     420.2816
   1418.19946     740.7105     421.7262   1418.19946     740.7105     421.7262
   1418.18420     740.6527     422.5930   1418.18420     740.6527     422.5930
   1418.16895     741.3343     422.6692   1418.16895     741.3343     422.6692
   1418.15369     742.1544     423.8618   1418.15369     742.1544     423.8618
   1418.13843     744.7792     424.2226   1418.13843     744.7792     424.2226
   1418.12317     744.6986     425.5718   1418.12317     744.6986     425.5718
   1418.10791     745.1727     425.8212   1418.10791     745.1727     425.8212
   1418.09265     746.2835     427.2584   1418.09265     746.2835     427.2584
   1418.07739     747.6618     428.2690   1418.07739     747.6618     428.2690
   1418.06213     746.8824     429.0030   1418.06213     746.8824     429.0030
   1418.04688     748.0483     429.3184   1418.04688     748.0483     429.3184
   1418.03162     749.7051     430.0089   1418.03162     749.7051     430.0089
   1418.01636     750.2889     431.4626   1418.01636     750.2889     431.4626
   1418.00110     752.2726     431.8827   1418.00110     752.2726     431.8827
   1417.98584     752.0958     432.9080   1417.98584     752.0958     432.9080
   1417.97058     753.2652     433.2983   1417.97058     753.2652     433.2983
   1417.95532     753.7498     434.3402   1417.95532     753.7498     434.3402
   1417.94006     755.1711     434.8658   1417.94006     755.1711     434.8658
   1417.92480     755.4134     436.0646   1417.92480     755.4134     436.0646
   1417.90955     756.0014     437.2870   1417.90955     756.0014     437.2870
   1417.89429     755.8688     437.6418   1417.89429     755.8688     437.6418
   1417.87903     757.9783     438.0575   1417.87903     757.9783     438.0575
   1417.86377     759.6784     440.0072   1417.86377     759.6784     440.0072
   1417.84851     760.7175     440.5790   1417.84851     760.7175     440.5790
   1417.83325     761.7592     441.8090   1417.83325     761.7592     441.8090
   1417.81799     760.9202     442.3739   1417.81799     760.9202     442.3739
   1417.80273     762.0286     443.2520   1417.80273     762.0286     443.2520
   1417.78748     762.0940     444.1494   1417.78748     762.0940     444.1494
   1417.77222     764.1044     444.7905   1417.77222     764.1044     444.7905
   1417.75696     764.3279     445.3416   1417.75696     764.3279     445.3416
   1417.74170     764.2734     446.9233   1417.74170     764.2734     446.9233
   1417.72644     767.0492     448.5027   1417.72644     767.0492     448.5027
   1417.71118     768.2150     448.9367   1417.71118     768.2150     448.9367
   1417.69592     767.5648     449.4851   1417.69592     767.5648     449.4851
   1417.68066     770.1140     450.7810   1417.68066     770.1140     450.7810
   1417.66541     770.9850     451.1755   1417.66541     770.9850     451.1755
   1417.65015     771.2299     452.9141   1417.65015     771.2299     452.9141
   1417.63489     770.8059     453.5846   1417.63489     770.8059     453.5846
   1417.61963     771.6347     455.2744   1417.61963     771.6347     455.2744
   1417.60437     772.1624     455.9880   1417.60437     772.1624     455.9880
   1417.58911     774.2725     456.3005   1417.58911     774.2725     456.3005
   1417.57385     773.8613     456.8257   1417.57385     773.8613     456.8257
   1417.55859     775.1620     458.8873   1417.55859     775.1620     458.8873
   1417.54333     775.9948     459.5378   1417.54333     775.9948     459.5378
   1417.52808     776.1495     460.0723   1417.52808     776.1495     460.0723
   1417.51282     777.4348     461.1813   1417.51282     777.4348     461.1813
   1417.49756     777.4610     461.9772   1417.49756     777.4610     461.9772
   1417.48230     778.4506     462.8777   1417.48230     778.4506     462.8777
   1417.46704     779.5265     463.5119   1417.46704     779.5265     463.5119
   1417.45178     780.6166     465.5398   1417.45178     780.6166     465.5398
   1417.43652     781.7419     466.4502   1417.43652     781.7419     466.4502
   1417.42126     782.0792     467.3691   1417.42126     782.0792     467.3691
   1417.40601     782.5284     468.8656   1417.40601     782.5284     468.8656
   1417.39075     783.9232     468.6640   1417.39075     783.9232     468.6640
   1417.37549     783.0001     470.0945   1417.37549     783.0001     470.0945
   1417.36023     785.0507     471.2757   1417.36023     785.0507     471.2757
   1417.34497     785.8025     472.6818   1417.34497     785.8025     472.6818
   1417.32971     787.2695     473.2132   1417.32971     787.2695     473.2132
   1417.31445     786.4726     473.9772   1417.31445     786.4726     473.9772
   1417.29919     787.8053     475.0466   1417.29919     787.8053     475.0466
   1417.28394     787.7217     476.1262   1417.28394     787.7217     476.1262
   1417.26868     789.4470     477.4554   1417.26868     789.4470     477.4554
   1417.25342     789.0880     478.3259   1417.25342     789.0880     478.3259
   1417.23816     789.8649     479.5855   1417.23816     789.8649     479.5855
   1417.22290     790.0417     480.5606   1417.22290     790.0417     480.5606
   1417.20764     791.7710     481.5295   1417.20764     791.7710     481.5295
   1417.19238     792.4027     482.1232   1417.19238     792.4027     482.1232
   1417.17712     792.8749     483.3906   1417.17712     792.8749     483.3906
   1417.16187     793.4141     484.4209   1417.16187     793.4141     484.4209
   1417.14661     793.0259     485.6634   1417.14661     793.0259     485.6634
   1417.13135     793.8435     486.5102   1417.13135     793.8435     486.5102
   1417.11609     794.1164     486.7009   1417.11609     794.1164     486.7009
   1417.10083     795.2316     487.8729   1417.10083     795.2316     487.8729
   1417.08557     796.1038     488.9826   1417.08557     796.1038     488.9826
   1417.07031     795.9091     489.7572   1417.07031     795.9091     489.7572
   1417.05505     795.8824     491.0137   1417.05505     795.8824     491.0137
   1417.03979     797.6992     491.5056   1417.03979     797.6992     491.5056
   1417.02454     797.4399     491.2124   1417.02454     797.4399     491.2124
   1417.00928     799.1899     493.1981   1417.00928     799.1899     493.1981
   1416.99402     798.4081     494.0831   1416.99402     798.4081     494.0831
   1416.97876     799.6503     494.4792   1416.97876     799.6503     494.4792
   1416.96350     798.5201     495.7463   1416.96350     798.5201     495.7463
   1416.94824     799.1174     496.2480   1416.94824     799.1174     496.2480
   1416.93298     797.7927     497.1996   1416.93298     797.7927     497.1996
   1416.91772     799.0220     498.4102   1416.91772     799.0220     498.4102
   1416.90247     800.8019     498.4614   1416.90247     800.8019     498.4614
   1416.88721     800.1282     500.2638   1416.88721     800.1282     500.2638
   1416.87195     800.3097     500.5880   1416.87195     800.3097     500.5880
   1416.85669     799.7194     501.3756   1416.85669     799.7194     501.3756
   1416.84143     801.1824     501.9781   1416.84143     801.1824     501.9781
   1416.82617     802.2426     502.5260   1416.82617     802.2426     502.5260
   1416.81091     800.8773     503.8585   1416.81091     800.8773     503.8585
   1416.79565     801.1531     503.5115   1416.79565     801.1531     503.5115
   1416.78040     802.4399     504.7244   1416.78040     802.4399     504.7244
   1416.76514     802.4733     505.7915   1416.76514     802.4733     505.7915
   1416.74988     801.3404     505.7868   1416.74988     801.3404     505.7868
   1416.73462     802.0195     507.5630   1416.73462     802.0195     507.5630
   1416.71936     801.3967     507.6016   1416.71936     801.3967     507.6016
   1416.70410     802.1130     507.4209   1416.70410     802.1130     507.4209
   1416.68884     802.5908     508.1658   1416.68884     802.5908     508.1658
   1416.67358     802.5262     509.4095   1416.67358     802.5262     509.4095
   1416.65833     802.0084     509.9394   1416.65833     802.0084     509.9394
   1416.64307     801.2959     509.6069   1416.64307     801.2959     509.6069
   1416.62781     801.4091     510.8163   1416.62781     801.4091     510.8163
   1416.61255     802.5230     511.4634   1416.61255     802.5230     511.4634
   1416.59729     800.2627     511.3510   1416.59729     800.2627     511.3510
   1416.58203     802.1065     512.9395   1416.58203     802.1065     512.9395
   1416.56677     801.6464     513.1725   1416.56677     801.6464     513.1725
   1416.55151     801.3489     513.2390   1416.55151     801.3489     513.2390
   1416.53625     801.0847     514.1735   1416.53625     801.0847     514.1735
   1416.52100     801.0638     513.9641   1416.52100     801.0638     513.9641
   1416.50574     800.7338     514.2211   1416.50574     800.7338     514.2211
   1416.49048     801.0020     515.0255   1416.49048     801.0020     515.0255
   1416.47522     800.3661     514.7798   1416.47522     800.3661     514.7798
   1416.45996     800.0327     516.3526   1416.45996     800.0327     516.3526
   1416.44470     799.1508     515.7512   1416.44470     799.1508     515.7512
   1416.42944     799.9980     517.1418   1416.42944     799.9980     517.1418
   1416.41418     799.9922     516.7858   1416.41418     799.9922     516.7858
   1416.39893     799.4523     517.0583   1416.39893     799.4523     517.0583
   1416.38367     799.3025     517.2074   1416.38367     799.3025     517.2074
   1416.36841     797.9607     517.4816   1416.36841     797.9607     517.4816
   1416.35315     798.2414     518.0524   1416.35315     798.2414     518.0524
   1416.33789     797.7327     518.3509   1416.33789     797.7327     518.3509
   1416.32263     796.5549     518.7623   1416.32263     796.5549     518.7623
   1416.30737     796.3622     518.5142   1416.30737     796.3622     518.5142
   1416.29211     796.5087     518.6126   1416.29211     796.5087     518.6126
   1416.27686     796.5185     518.7203   1416.27686     796.5185     518.7203
   1416.26160     795.0475     518.9401   1416.26160     795.0475     518.9401
   1416.24634     795.6677     519.4388   1416.24634     795.6677     519.4388
   1416.23108     793.2496     519.3136   1416.23108     793.2496     519.3136
   1416.21582     794.2278     518.3730   1416.21582     794.2278     518.3730
   1416.20056     794.3551     519.3766   1416.20056     794.3551     519.3766
   1416.18530     792.3839     519.2457   1416.18530     792.3839     519.2457
   1416.17004     793.6694     519.9344   1416.17004     793.6694     519.9344
   1416.15479     792.2788     519.1766   1416.15479     792.2788     519.1766
   1416.13953     792.4971     519.5494   1416.13953     792.4971     519.5494
   1416.12427     790.4373     520.3134   1416.12427     790.4373     520.3134
   1416.10901     791.2946     519.7152   1416.10901     791.2946     519.7152
   1416.09375     789.5608     518.9061   1416.09375     789.5608     518.9061
   1416.07849     790.2737     520.2938   1416.07849     790.2737     520.2938
   1416.06323     787.9650     518.9758   1416.06323     787.9650     518.9758
   1416.04797     787.4067     519.3407   1416.04797     787.4067     519.3407
   1416.03271     787.9321     519.1082   1416.03271     787.9321     519.1082
   1416.01746     787.4163     520.0457   1416.01746     787.4163     520.0457
   1416.00220     785.5097     519.2607   1416.00220     785.5097     519.2607
   1415.98694     785.0183     518.9523   1415.98694     785.0183     518.9523
   1415.97168     784.8555     520.2386   1415.97168     784.8555     520.2386
   1415.95642     782.8237     518.5599   1415.95642     782.8237     518.5599
   1415.94116     783.4313     518.6038   1415.94116     783.4313     518.6038
   1415.92590     782.1670     518.8635   1415.92590     782.1670     518.8635
   1415.91064     782.0367     518.3901   1415.91064     782.0367     518.3901
   1415.89539     782.0440     518.3611   1415.89539     782.0440     518.3611
   1415.88013     781.3493     519.0289   1415.88013     781.3493     519.0289
   1415.86487     779.7068     519.2567   1415.86487     779.7068     519.2567
   1415.84961     780.0319     518.0759   1415.84961     780.0319     518.0759
   1415.83435     779.0281     518.5797   1415.83435     779.0281     518.5797
   1415.81909     776.3728     517.8824   1415.81909     776.3728     517.8824
   1415.80383     777.3600     517.1571   1415.80383     777.3600     517.1571
   1415.78857     775.9897     517.3702   1415.78857     775.9897     517.3702
   1415.77332     774.4661     517.1574   1415.77332     774.4661     517.1574
   1415.75806     772.7730     517.3111   1415.75806     772.7730     517.3111
   1415.74280     772.9079     516.8481   1415.74280     772.9079     516.8481
   1415.72754     772.5525     516.1299   1415.72754     772.5525     516.1299
   1415.71228     771.2610     516.6562   1415.71228     771.2610     516.6562
   1415.69702     770.5900     516.2211   1415.69702     770.5900     516.2211
   1415.68176     769.6949     516.5181   1415.68176     769.6949     516.5181
   1415.66650     768.8948     515.9908   1415.66650     768.8948     515.9908
   1415.65125     767.2218     515.4146   1415.65125     767.2218     515.4146
   1415.63599     766.5388     515.9865   1415.63599     766.5388     515.9865
   1415.62073     766.0080     514.8435   1415.62073     766.0080     514.8435
   1415.60547     764.6217     515.1146   1415.60547     764.6217     515.1146
   1415.59021     763.7629     514.1879   1415.59021     763.7629     514.1879
   1415.57495     762.1876     515.1460   1415.57495     762.1876     515.1460
   1415.55969     760.7613     513.8780   1415.55969     760.7613     513.8780
   1415.54443     760.2591     513.3575   1415.54443     760.2591     513.3575
   1415.52917     760.4910     514.3651   1415.52917     760.4910     514.3651
   1415.51392     760.0635     513.7575   1415.51392     760.0635     513.7575
   1415.49866     758.7421     512.4839   1415.49866     758.7421     512.4839
   1415.48340     755.8550     512.8018   1415.48340     755.8550     512.8018
   1415.46814     756.2953     512.3318   1415.46814     756.2953     512.3318
   1415.45288     755.6330     512.4186   1415.45288     755.6330     512.4186
   1415.43762     753.7800     511.3916   1415.43762     753.7800     511.3916
   1415.42236     752.2317     511.2182   1415.42236     752.2317     511.2182
   1415.40710     751.0070     511.2912   1415.40710     751.0070     511.2912
   1415.39185     750.8832     510.1119   1415.39185     750.8832     510.1119
   1415.37659     749.0320     511.0272   1415.37659     749.0320     511.0272
   1415.36133     749.2706     510.3291   1415.36133     749.2706     510.3291
   1415.34607     748.3832     509.5628   1415.34607     748.3832     509.5628
   1415.33081     746.7468     509.7230   1415.33081     746.7468     509.7230
   1415.31555     744.4258     508.9853   1415.31555     744.4258     508.9853
   1415.30029     744.1747     508.9831   1415.30029     744.1747     508.9831
   1415.28503     743.1900     507.5491   1415.28503     743.1900     507.5491
   1415.26978     741.3193     507.7655   1415.26978     741.3193     507.7655
   1415.25452     740.9132     507.9436   1415.25452     740.9132     507.9436
   1415.23926     739.0898     507.0112   1415.23926     739.0898     507.0112
   1415.22400     737.2061     507.1711   1415.22400     737.2061     507.1711
   1415.20874     736.7766     505.5614   1415.20874     736.7766     505.5614
   1415.19348     735.4909     505.7287   1415.19348     735.4909     505.7287
   1415.17822     734.9258     504.4536   1415.17822     734.9258     504.4536
   1415.16296     732.4459     503.6066   1415.16296     732.4459     503.6066
   1415.14771     731.6491     503.8519   1415.14771     731.6491     503.8519
   1415.13245     730.2987     503.6552   1415.13245     730.2987     503.6552
   1415.11719     726.6973     502.6356   1415.11719     726.6973     502.6356
   1415.10193     727.8555     502.7086   1415.10193     727.8555     502.7086
   1415.08667     725.9698     501.4250   1415.08667     725.9698     501.4250
   1415.07141     725.6929     500.6843   1415.07141     725.6929     500.6843
   1415.05615     724.9551     500.8885   1415.05615     724.9551     500.8885
   1415.04089     720.9823     500.0466   1415.04089     720.9823     500.0466
   1415.02563     719.4125     499.1692   1415.02563     719.4125     499.1692
   1415.01038     719.0323     499.2944   1415.01038     719.0323     499.2944
   1414.99512     716.4434     499.1165   1414.99512     716.4434     499.1165
   1414.97986     716.4585     498.0630   1414.97986     716.4585     498.0630
   1414.96460     714.6688     497.6992   1414.96460     714.6688     497.6992
   1414.94934     714.7991     496.9036   1414.94934     714.7991     496.9036
   1414.93408     711.2486     496.9034   1414.93408     711.2486     496.9034
   1414.91882     709.7507     494.9710   1414.91882     709.7507     494.9710
   1414.90356     708.8917     494.9214   1414.90356     708.8917     494.9214
   1414.88831     706.7744     494.4007   1414.88831     706.7744     494.4007
   1414.87305     705.6740     493.2045   1414.87305     705.6740     493.2045
   1414.85779     703.8788     492.6869   1414.85779     703.8788     492.6869
   1414.84253     702.0836     492.4547   1414.84253     702.0836     492.4547
   1414.82727     700.1713     491.2887   1414.82727     700.1713     491.2887
   1414.81201     699.2714     490.7899   1414.81201     699.2714     490.7899
   1414.79675     698.3305     489.9044   1414.79675     698.3305     489.9044
   1414.78149     696.1448     489.2195   1414.78149     696.1448     489.2195
   1414.76624     693.9373     487.9638   1414.76624     693.9373     487.9638
   1414.75098     692.0875     487.0422   1414.75098     692.0875     487.0422
   1414.73572     690.1095     486.7679   1414.73572     690.1095     486.7679
   1414.72046     688.0296     485.2103   1414.72046     688.0296     485.2103
   1414.70520     686.7591     484.7004   1414.70520     686.7591     484.7004
   1414.68994     684.7985     483.5658   1414.68994     684.7985     483.5658
   1414.67468     681.8203     482.0075   1414.67468     681.8203     482.0075
   1414.65942     681.2338     481.5947   1414.65942     681.2338     481.5947
   1414.64417     679.6407     480.2685   1414.64417     679.6407     480.2685
   1414.62891     676.1013     480.3130   1414.62891     676.1013     480.3130
   1414.61365     675.9137     479.3722   1414.61365     675.9137     479.3722
   1414.59839     673.6931     477.9346   1414.59839     673.6931     477.9346
   1414.58313     670.4622     477.0565   1414.58313     670.4622     477.0565
   1414.56787     668.7389     476.5901   1414.56787     668.7389     476.5901
   1414.55261     667.9243     474.7665   1414.55261     667.9243     474.7665
   1414.53735     665.5543     474.3315   1414.53735     665.5543     474.3315
   1414.52209     663.8851     473.7627   1414.52209     663.8851     473.7627
   1414.50684     660.6149     471.9564   1414.50684     660.6149     471.9564
   1414.49158     660.2985     471.4569   1414.49158     660.2985     471.4569
   1414.47632     656.8329     469.5323   1414.47632     656.8329     469.5323
   1414.46106     655.0159     469.2857   1414.46106     655.0159     469.2857
   1414.44580     652.9615     467.8491   1414.44580     652.9615     467.8491
   1414.43054     651.7668     466.5926   1414.43054     651.7668     466.5926
   1414.41528     649.4397     465.9838   1414.41528     649.4397     465.9838
   1414.40002     647.8384     463.7235   1414.40002     647.8384     463.7235
   1414.38477     644.6953     463.2348   1414.38477     644.6953     463.2348
   1414.36951     643.3512     462.0668   1414.36951     643.3512     462.0668
   1414.35425     640.6271     462.1335   1414.35425     640.6271     462.1335
   1414.33899     638.0912     460.1085   1414.33899     638.0912     460.1085
   1414.32373     635.5449     458.7410   1414.32373     635.5449     458.7410
   1414.30847     633.2857     457.5011   1414.30847     633.2857     457.5011
   1414.29321     631.6788     455.7589   1414.29321     631.6788     455.7589
   1414.27795     628.9316     454.3738   1414.27795     628.9316     454.3738
   1414.26270     626.5576     453.0145   1414.26270     626.5576     453.0145
   1414.24744     623.4813     452.5638   1414.24744     623.4813     452.5638
   1414.23218     621.7800     451.1658   1414.23218     621.7800     451.1658
   1414.21692     619.7910     449.7939   1414.21692     619.7910     449.7939
   1414.20166     618.0306     448.4118   1414.20166     618.0306     448.4118
   1414.18640     615.0538     447.0697   1414.18640     615.0538     447.0697
   1414.17114     612.3724     446.4186   1414.17114     612.3724     446.4186
   1414.15588     609.1401     444.9984   1414.15588     609.1401     444.9984
   1414.14062     607.5294     443.5326   1414.14062     607.5294     443.5326
   1414.12537     604.7415     441.5285   1414.12537     604.7415     441.5285
   1414.11011     603.9451     440.4133   1414.11011     603.9451     440.4133
   1414.09485     599.6360     438.8109   1414.09485     599.6360     438.8109
   1414.07959     597.6794     437.2757   1414.07959     597.6794     437.2757
   1414.06433     595.0779     435.6084   1414.06433     595.0779     435.6084
   1414.04907     592.4351     434.6723   1414.04907     592.4351     434.6723
   1414.03381     589.4859     433.2007   1414.03381     589.4859     433.2007
   1414.01855     587.0359     431.8570   1414.01855     587.0359     431.8570
   1414.00330     599.8975     436.1685   1414.00330     599.8975     436.1685
   1413.98804     583.2729     429.0105   1413.98804     583.2729     429.0105
   1413.97278     580.0636     427.6631   1413.97278     580.0636     427.6631
   1413.95752     576.7811     425.7269   1413.95752     576.7811     425.7269
   1413.94226     574.6622     424.5033   1413.94226     574.6622     424.5033
   1413.92700     572.2581     422.8506   1413.92700     572.2581     422.8506
   1413.91174     569.1602     421.0402   1413.91174     569.1602     421.0402
   1413.89648     566.6091     419.9499   1413.89648     566.6091     419.9499
   1413.88123     564.3691     418.7107   1413.88123     564.3691     418.7107
   1413.86597     561.1108     416.6912   1413.86597     561.1108     416.6912
   1413.85071     558.7262     415.2772   1413.85071     558.7262     415.2772
   1413.83545     554.5468     413.8386   1413.83545     554.5468     413.8386
   1413.82019     552.7701     412.3995   1413.82019     552.7701     412.3995
   1413.80493     550.5880     410.8252   1413.80493     550.5880     410.8252
   1413.78967     548.6228     409.3750   1413.78967     548.6228     409.3750
   1413.77441     545.9456     407.9186   1413.77441     545.9456     407.9186
   1413.75916     542.8092     406.6758   1413.75916     542.8092     406.6758
   1413.74390     540.6989     404.5075   1413.74390     540.6989     404.5075
   1413.72864     537.2869     402.8438   1413.72864     537.2869     402.8438
   1413.71338     533.8901     400.9891   1413.71338     533.8901     400.9891
   1413.69812     530.9526     399.5253   1413.69812     530.9526     399.5253
   1413.68286     528.8600     397.9405   1413.68286     528.8600     397.9405
   1413.66760     526.4902     396.6964   1413.66760     526.4902     396.6964
   1413.65234     523.2881     394.7822   1413.65234     523.2881     394.7822
   1413.63708     520.4133     393.5696   1413.63708     520.4133     393.5696
   1413.62183     517.9147     392.3501   1413.62183     517.9147     392.3501
   1413.60657     515.7402     390.2048   1413.60657     515.7402     390.2048
   1413.59131     513.2293     389.5051   1413.59131     513.2293     389.5051
   1413.57605     510.3029     387.2140   1413.57605     510.3029     387.2140
   1413.56079     506.5285     386.0948   1413.56079     506.5285     386.0948
   1413.54553     504.1060     384.8312   1413.54553     504.1060     384.8312
   1413.53027     502.2120     382.1349   1413.53027     502.2120     382.1349
   1413.51501     499.7090     381.0748   1413.51501     499.7090     381.0748
   1413.49976     496.9344     379.3480   1413.49976     496.9344     379.3480
   1413.48450     493.6924     378.6955   1413.48450     493.6924     378.6955
   1413.46924     491.3915     376.7452   1413.46924     491.3915     376.7452
   1413.45398     488.7053     375.3785   1413.45398     488.7053     375.3785
   1413.43872     485.9269     373.7909   1413.43872     485.9269     373.7909
   1413.42346     483.4051     372.6808   1413.42346     483.4051     372.6808
   1413.40820     480.1875     370.3201   1413.40820     480.1875     370.3201
   1413.39294     478.0114     368.7035   1413.39294     478.0114     368.7035
   1413.37769     475.2328     367.7359   1413.37769     475.2328     367.7359
   1413.36243     472.7355     365.4741   1413.36243     472.7355     365.4741
   1413.34717     470.3371     364.2838   1413.34717     470.3371     364.2838
   1413.33191     468.5964     363.4834   1413.33191     468.5964     363.4834
   1413.31665     464.7858     361.2619   1413.31665     464.7858     361.2619
   1413.30139     463.3518     360.4110   1413.30139     463.3518     360.4110
   1413.28613     460.0402     359.4741   1413.28613     460.0402     359.4741
   1413.27087     457.6945     357.9821   1413.27087     457.6945     357.9821
   1413.25562     455.5977     356.5980   1413.25562     455.5977     356.5980
   1413.24036     452.8078     354.7681   1413.24036     452.8078     354.7681
   1413.22510     450.2832     354.0497   1413.22510     450.2832     354.0497
   1413.20984     448.8947     352.2397   1413.20984     448.8947     352.2397
   1413.19458     445.1835     351.2121   1413.19458     445.1835     351.2121
   1413.17932     443.0804     349.8122   1413.17932     443.0804     349.8122
   1413.16406     440.6359     348.5107   1413.16406     440.6359     348.5107
   1413.14880     439.3677     347.6096   1413.14880     439.3677     347.6096
   1413.13354     437.0638     346.5808   1413.13354     437.0638     346.5808
   1413.11829     434.1522     344.2429   1413.11829     434.1522     344.2429
   1413.10303     432.8501     343.8021   1413.10303     432.8501     343.8021
   1413.08777     430.9821     343.0383   1413.08777     430.9821     343.0383
   1413.07251     427.6415     342.4337   1413.07251     427.6415     342.4337
   1413.05725     425.6827     340.6812   1413.05725     425.6827     340.6812
   1413.04199     422.9522     339.4064   1413.04199     422.9522     339.4064
   1413.02673     421.6772     339.0282   1413.02673     421.6772     339.0282
   1413.01147     419.9037     337.9993   1413.01147     419.9037     337.9993
   1412.99622     417.6361     337.0381   1412.99622     417.6361     337.0381
   1412.98096     414.8719     336.1810   1412.98096     414.8719     336.1810
   1412.96570     414.4045     335.5894   1412.96570     414.4045     335.5894
   1412.95044     412.4206     334.3289   1412.95044     412.4206     334.3289
   1412.93518     410.1423     333.9427   1412.93518     410.1423     333.9427
   1412.91992     408.3497     332.6416   1412.91992     408.3497     332.6416
   1412.90466     406.6887     332.2233   1412.90466     406.6887     332.2233
   1412.88940     404.4844     331.5503   1412.88940     404.4844     331.5503
   1412.87415     403.4998     331.5885   1412.87415     403.4998     331.5885
   1412.85889     401.3326     330.3355   1412.85889     401.3326     330.3355
   1412.84363     399.7669     329.4091   1412.84363     399.7669     329.4091
   1412.82837     398.0724     328.5375   1412.82837     398.0724     328.5375
   1412.81311     396.5205     328.1495   1412.81311     396.5205     328.1495
   1412.79785     395.4122     327.7572   1412.79785     395.4122     327.7572
   1412.78259     393.5868     327.9293   1412.78259     393.5868     327.9293
   1412.76733     392.1390     326.9774   1412.76733     392.1390     326.9774
   1412.75208     390.8324     327.1754   1412.75208     390.8324     327.1754
   1412.73682     389.4019     326.8715   1412.73682     389.4019     326.8715
   1412.72156     388.3500     326.2793   1412.72156     388.3500     326.2793
   1412.70630     387.0095     325.9842   1412.70630     387.0095     325.9842
   1412.69104     385.8792     325.5757   1412.69104     385.8792     325.5757
   1412.67578     384.3715     325.3496   1412.67578     384.3715     325.3496
   1412.66052     383.7299     325.7704   1412.66052     383.7299     325.7704
   1412.64526     382.9070     325.9186   1412.64526     382.9070     325.9186
   1412.63000     382.0588     326.1034   1412.63000     382.0588     326.1034
   1412.61475     380.7098     326.2527   1412.61475     380.7098     326.2527
   1412.59949     380.2718     325.6183   1412.59949     380.2718     325.6183
   1412.58423     378.9686     325.9302   1412.58423     378.9686     325.9302
   1412.56897     378.6946     325.8510   1412.56897     378.6946     325.8510
   1412.55371     377.7899     326.6119   1412.55371     377.7899     326.6119
   1412.53845     376.9980     327.1982   1412.53845     376.9980     327.1982
   1412.52319     376.1942     327.3524   1412.52319     376.1942     327.3524
   1412.50793     375.3620     327.4777   1412.50793     375.3620     327.4777
   1412.49268     375.3443     327.4780   1412.49268     375.3443     327.4780
   1412.47742     374.7816     328.6460   1412.47742     374.7816     328.6460
   1412.46216     374.3748     328.9967   1412.46216     374.3748     328.9967
   1412.44690     374.3548     329.7768   1412.44690     374.3548     329.7768
   1412.43164     374.3443     329.7663   1412.43164     374.3443     329.7663
   1412.41638     373.3770     330.2456   1412.41638     373.3770     330.2456
   1412.40112     373.3289     331.2479   1412.40112     373.3289     331.2479
   1412.38586     373.1703     331.7784   1412.38586     373.1703     331.7784
   1412.37061     373.1125     332.8153   1412.37061     373.1125     332.8153
   1412.35535     372.7791     332.8898   1412.35535     372.7791     332.8898
   1412.34009     373.0852     334.1824   1412.34009     373.0852     334.1824
   1412.32483     373.0037     335.4010   1412.32483     373.0037     335.4010
   1412.30957     372.6152     336.6715   1412.30957     372.6152     336.6715
   1412.29431     373.2720     337.7097   1412.29431     373.2720     337.7097
   1412.27905     374.0519     338.6008   1412.27905     374.0519     338.6008
   1412.26379     374.0349     339.6401   1412.26379     374.0349     339.6401
   1412.24854     374.7097     340.9725   1412.24854     374.7097     340.9725
   1412.23328     374.2132     341.9660   1412.23328     374.2132     341.9660
   1412.21802     375.3197     343.0119   1412.21802     375.3197     343.0119
   1412.20276     376.0158     344.4562   1412.20276     376.0158     344.4562