#     FILENAME=!Skynet_57528_lach-hhg-132_20436_20956.cyb.fits
#     BASENAME=Skynet_57528_lach-hhg-132_20436_20956
#     SRC_NAME=lach-hhg-132
#     OBSERVER=hhgmadison16_9500
#     DATE_OBS=2016-05-20T17:01:32.620
#        OBSID=20436
#      SCANNUM=20956
#          MJD=57528.7104
#          UTC=61381
#     SCANTYPE=track
#     DATAMODE=HIRES
#     TUNEFREQ=1420.0000
# Actual_FREQ1=1420.0000
# Actual_FREQ2=1420.0000
#    LO1Tuning=6870.000
#     RFFILTER=1355_1435
#        OBSBW=-15.6250
#        NCHAN=1024 
#        FOCUS=37.0709
#           RA=02:08:39.83
#          DEC=61:30:24.86
#      RA(hrs)=2.144400
#     DEC(deg)=61.506900
#    AZIM(deg)=336.315
#    ELEV(deg)=63.112
#     IFattens=11.00, 10.00
#      WARNING=None
#    TCAL_XL1=7.9635
#    TCAL_YR1=9.1340
#    TCAL_XL2=7.9635
#    TCAL_YR2=9.1340
#     TRX_XL1=11.7060
#     TRX_YR1=11.7060
#     TRX_XL2=11.7060
#     TRX_YR2=11.7060
#        TAVE=1.0000
#Freq1(MHz)          XL1          YR1  Freq2(MHz)          XL2          YR2 

   1427.81250     297.5271     234.6026   1427.81250     297.5271     234.6026
   1427.79724     298.1848     235.6681   1427.79724     298.1848     235.6681
   1427.78198     298.7088     236.1182   1427.78198     298.7088     236.1182
   1427.76672     299.5771     237.1312   1427.76672     299.5771     237.1312
   1427.75146     299.9533     237.8756   1427.75146     299.9533     237.8756
   1427.73621     300.4639     238.9324   1427.73621     300.4639     238.9324
   1427.72095     301.4224     239.4454   1427.72095     301.4224     239.4454
   1427.70569     301.8342     240.5349   1427.70569     301.8342     240.5349
   1427.69043     302.8483     241.7515   1427.69043     302.8483     241.7515
   1427.67517     303.6037     242.4815   1427.67517     303.6037     242.4815
   1427.65991     304.5649     243.3730   1427.65991     304.5649     243.3730
   1427.64465     305.5502     244.3629   1427.64465     305.5502     244.3629
   1427.62939     306.6592     245.6531   1427.62939     306.6592     245.6531
   1427.61414     307.6190     246.4081   1427.61414     307.6190     246.4081
   1427.59888     309.0652     248.1065   1427.59888     309.0652     248.1065
   1427.58362     310.1311     248.5792   1427.58362     310.1311     248.5792
   1427.56836     311.4651     250.3228   1427.56836     311.4651     250.3228
   1427.55310     312.4233     251.3388   1427.55310     312.4233     251.3388
   1427.53784     313.5117     252.8647   1427.53784     313.5117     252.8647
   1427.52258     314.6127     254.1417   1427.52258     314.6127     254.1417
   1427.50732     316.3580     255.4039   1427.50732     316.3580     255.4039
   1427.49207     316.9404     256.8334   1427.49207     316.9404     256.8334
   1427.47681     318.8763     258.3279   1427.47681     318.8763     258.3279
   1427.46155     319.8895     259.7793   1427.46155     319.8895     259.7793
   1427.44629     321.7638     261.2180   1427.44629     321.7638     261.2180
   1427.43103     323.2911     262.5005   1427.43103     323.2911     262.5005
   1427.41577     324.9264     264.1757   1427.41577     324.9264     264.1757
   1427.40051     326.7546     265.6671   1427.40051     326.7546     265.6671
   1427.38525     328.3345     266.8711   1427.38525     328.3345     266.8711
   1427.37000     329.7951     268.9325   1427.37000     329.7951     268.9325
   1427.35474     331.4078     270.4998   1427.35474     331.4078     270.4998
   1427.33948     333.1565     272.2873   1427.33948     333.1565     272.2873
   1427.32422     334.9634     273.4387   1427.32422     334.9634     273.4387
   1427.30896     336.6896     275.0657   1427.30896     336.6896     275.0657
   1427.29370     338.5526     276.9463   1427.29370     338.5526     276.9463
   1427.27844     340.4194     278.6036   1427.27844     340.4194     278.6036
   1427.26318     342.3532     280.6086   1427.26318     342.3532     280.6086
   1427.24792     344.1123     282.2655   1427.24792     344.1123     282.2655
   1427.23267     345.8311     284.3683   1427.23267     345.8311     284.3683
   1427.21741     348.4682     285.6148   1427.21741     348.4682     285.6148
   1427.20215     350.3560     288.0278   1427.20215     350.3560     288.0278
   1427.18689     351.8559     289.6436   1427.18689     351.8559     289.6436
   1427.17163     354.7789     291.3491   1427.17163     354.7789     291.3491
   1427.15637     356.5502     293.2808   1427.15637     356.5502     293.2808
   1427.14111     358.2133     295.3060   1427.14111     358.2133     295.3060
   1427.12585     360.6544     297.2251   1427.12585     360.6544     297.2251
   1427.11060     362.6675     299.3763   1427.11060     362.6675     299.3763
   1427.09534     365.1167     301.1362   1427.09534     365.1167     301.1362
   1427.08008     367.6959     302.8364   1427.08008     367.6959     302.8364
   1427.06482     369.8401     305.1020   1427.06482     369.8401     305.1020
   1427.04956     372.1354     307.1883   1427.04956     372.1354     307.1883
   1427.03430     373.9632     309.3702   1427.03430     373.9632     309.3702
   1427.01904     376.0347     311.3798   1427.01904     376.0347     311.3798
   1427.00378     379.1785     313.5688   1427.00378     379.1785     313.5688
   1426.98853     381.2979     314.8306   1426.98853     381.2979     314.8306
   1426.97327     383.9598     317.1452   1426.97327     383.9598     317.1452
   1426.95801     386.0538     319.1734   1426.95801     386.0538     319.1734
   1426.94275     388.2515     321.5487   1426.94275     388.2515     321.5487
   1426.92749     390.7928     323.5831   1426.92749     390.7928     323.5831
   1426.91223     393.1887     325.3495   1426.91223     393.1887     325.3495
   1426.89697     395.4132     327.6797   1426.89697     395.4132     327.6797
   1426.88171     398.1375     329.6309   1426.88171     398.1375     329.6309
   1426.86646     400.5694     331.4219   1426.86646     400.5694     331.4219
   1426.85120     403.5132     333.8554   1426.85120     403.5132     333.8554
   1426.83594     405.5414     335.3756   1426.83594     405.5414     335.3756
   1426.82068     408.1047     338.4959   1426.82068     408.1047     338.4959
   1426.80542     410.2781     340.9287   1426.80542     410.2781     340.9287
   1426.79016     413.0216     342.4272   1426.79016     413.0216     342.4272
   1426.77490     415.0628     344.5157   1426.77490     415.0628     344.5157
   1426.75964     418.9339     346.9976   1426.75964     418.9339     346.9976
   1426.74438     421.0368     348.4668   1426.74438     421.0368     348.4668
   1426.72913     423.3013     351.2022   1426.72913     423.3013     351.2022
   1426.71387     426.4285     352.5912   1426.71387     426.4285     352.5912
   1426.69861     428.3687     354.8251   1426.69861     428.3687     354.8251
   1426.68335     431.0422     356.8821   1426.68335     431.0422     356.8821
   1426.66809     433.5888     359.1583   1426.66809     433.5888     359.1583
   1426.65283     436.0744     361.2590   1426.65283     436.0744     361.2590
   1426.63757     439.1214     363.8392   1426.63757     439.1214     363.8392
   1426.62231     440.7965     367.2796   1426.62231     440.7965     367.2796
   1426.60706     444.4972     369.0538   1426.60706     444.4972     369.0538
   1426.59180     446.5012     370.2506   1426.59180     446.5012     370.2506
   1426.57654     448.4826     372.1568   1426.57654     448.4826     372.1568
   1426.56128     451.3036     373.7438   1426.56128     451.3036     373.7438
   1426.54602     454.3353     376.2685   1426.54602     454.3353     376.2685
   1426.53076     457.0552     378.3484   1426.53076     457.0552     378.3484
   1426.51550     459.1935     381.0649   1426.51550     459.1935     381.0649
   1426.50024     462.5405     382.4116   1426.50024     462.5405     382.4116
   1426.48499     465.1479     384.8244   1426.48499     465.1479     384.8244
   1426.46973     467.2474     386.7256   1426.46973     467.2474     386.7256
   1426.45447     470.0654     388.5939   1426.45447     470.0654     388.5939
   1426.43921     472.1245     390.7083   1426.43921     472.1245     390.7083
   1426.42395     474.3711     392.3539   1426.42395     474.3711     392.3539
   1426.40869     477.4760     394.5026   1426.40869     477.4760     394.5026
   1426.39343     479.5479     396.5827   1426.39343     479.5479     396.5827
   1426.37817     481.9246     398.4550   1426.37817     481.9246     398.4550
   1426.36292     484.4987     399.9887   1426.36292     484.4987     399.9887
   1426.34766     487.1832     401.6658   1426.34766     487.1832     401.6658
   1426.33240     489.6559     403.9040   1426.33240     489.6559     403.9040
   1426.31714     491.5918     406.0013   1426.31714     491.5918     406.0013
   1426.30188     494.2035     407.7122   1426.30188     494.2035     407.7122
   1426.28662     497.1454     409.6246   1426.28662     497.1454     409.6246
   1426.27136     499.5001     412.3349   1426.27136     499.5001     412.3349
   1426.25610     501.2079     413.8397   1426.25610     501.2079     413.8397
   1426.24084     504.1202     415.7860   1426.24084     504.1202     415.7860
   1426.22559     506.4401     417.8630   1426.22559     506.4401     417.8630
   1426.21033     509.0260     419.5799   1426.21033     509.0260     419.5799
   1426.19507     511.4883     421.3318   1426.19507     511.4883     421.3318
   1426.17981     513.6196     423.2460   1426.17981     513.6196     423.2460
   1426.16455     515.3999     424.8429   1426.16455     515.3999     424.8429
   1426.14929     517.4799     425.9521   1426.14929     517.4799     425.9521
   1426.13403     520.6422     428.9133   1426.13403     520.6422     428.9133
   1426.11877     522.2886     430.2861   1426.11877     522.2886     430.2861
   1426.10352     524.4549     432.5794   1426.10352     524.4549     432.5794
   1426.08826     526.6699     432.8287   1426.08826     526.6699     432.8287
   1426.07300     528.5104     435.4879   1426.07300     528.5104     435.4879
   1426.05774     530.7196     437.2464   1426.05774     530.7196     437.2464
   1426.04248     533.6219     438.2928   1426.04248     533.6219     438.2928
   1426.02722     535.3686     440.1045   1426.02722     535.3686     440.1045
   1426.01196     537.5978     441.5576   1426.01196     537.5978     441.5576
   1425.99670     538.5281     443.3815   1425.99670     538.5281     443.3815
   1425.98145     541.1840     444.7603   1425.98145     541.1840     444.7603
   1425.96619     542.9062     446.7932   1425.96619     542.9062     446.7932
   1425.95093     544.5764     448.1905   1425.95093     544.5764     448.1905
   1425.93567     546.7584     450.0555   1425.93567     546.7584     450.0555
   1425.92041     549.1464     450.5802   1425.92041     549.1464     450.5802
   1425.90515     549.9355     453.0725   1425.90515     549.9355     453.0725
   1425.88989     552.4778     454.5793   1425.88989     552.4778     454.5793
   1425.87463     555.5297     455.4743   1425.87463     555.5297     455.4743
   1425.85938     556.2763     456.9799   1425.85938     556.2763     456.9799
   1425.84412     557.9123     458.4913   1425.84412     557.9123     458.4913
   1425.82886     559.4768     459.7665   1425.82886     559.4768     459.7665
   1425.81360     562.2858     461.4546   1425.81360     562.2858     461.4546
   1425.79834     564.7751     462.5848   1425.79834     564.7751     462.5848
   1425.78308     565.1407     463.8651   1425.78308     565.1407     463.8651
   1425.76782     567.2488     465.4470   1425.76782     567.2488     465.4470
   1425.75256     568.3627     465.6220   1425.75256     568.3627     465.6220
   1425.73730     570.0966     467.0583   1425.73730     570.0966     467.0583
   1425.72205     571.1994     469.5410   1425.72205     571.1994     469.5410
   1425.70679     573.7269     470.4649   1425.70679     573.7269     470.4649
   1425.69153     575.5955     471.7236   1425.69153     575.5955     471.7236
   1425.67627     575.5615     473.4964   1425.67627     575.5615     473.4964
   1425.66101     576.2081     474.1036   1425.66101     576.2081     474.1036
   1425.64575     578.2032     474.7407   1425.64575     578.2032     474.7407
   1425.63049     580.1729     476.1704   1425.63049     580.1729     476.1704
   1425.61523     581.8773     477.0498   1425.61523     581.8773     477.0498
   1425.59998     584.4490     478.3399   1425.59998     584.4490     478.3399
   1425.58472     584.7116     480.2257   1425.58472     584.7116     480.2257
   1425.56946     585.6087     480.2618   1425.56946     585.6087     480.2618
   1425.55420     587.3824     481.9947   1425.55420     587.3824     481.9947
   1425.53894     588.1534     482.7776   1425.53894     588.1534     482.7776
   1425.52368     589.7435     484.8649   1425.52368     589.7435     484.8649
   1425.50842     590.9161     484.9515   1425.50842     590.9161     484.9515
   1425.49316     592.0898     486.0602   1425.49316     592.0898     486.0602
   1425.47791     593.3908     485.8140   1425.47791     593.3908     485.8140
   1425.46265     594.1823     487.9243   1425.46265     594.1823     487.9243
   1425.44739     594.6884     488.3151   1425.44739     594.6884     488.3151
   1425.43213     597.3196     489.7597   1425.43213     597.3196     489.7597
   1425.41687     598.4885     490.5313   1425.41687     598.4885     490.5313
   1425.40161     598.2181     491.2217   1425.40161     598.2181     491.2217
   1425.38635     600.7667     492.7632   1425.38635     600.7667     492.7632
   1425.37109     600.9580     492.3486   1425.37109     600.9580     492.3486
   1425.35583     601.0986     494.1555   1425.35583     601.0986     494.1555
   1425.34058     602.5555     495.2883   1425.34058     602.5555     495.2883
   1425.32532     602.4423     495.0348   1425.32532     602.4423     495.0348
   1425.31006     603.9708     495.5121   1425.31006     603.9708     495.5121
   1425.29480     604.1851     496.9825   1425.29480     604.1851     496.9825
   1425.27954     605.2839     496.7825   1425.27954     605.2839     496.7825
   1425.26428     606.9437     498.2961   1425.26428     606.9437     498.2961
   1425.24902     607.0801     498.7314   1425.24902     607.0801     498.7314
   1425.23376     607.4240     500.0685   1425.23376     607.4240     500.0685
   1425.21851     608.4068     499.8131   1425.21851     608.4068     499.8131
   1425.20325     609.5580     501.4612   1425.20325     609.5580     501.4612
   1425.18799     610.0919     501.3903   1425.18799     610.0919     501.3903
   1425.17273     609.5696     501.7784   1425.17273     609.5696     501.7784
   1425.15747     611.5685     502.5970   1425.15747     611.5685     502.5970
   1425.14221     612.0659     503.7549   1425.14221     612.0659     503.7549
   1425.12695     612.1957     504.3825   1425.12695     612.1957     504.3825
   1425.11169     612.2907     504.0772   1425.11169     612.2907     504.0772
   1425.09644     613.1379     505.3728   1425.09644     613.1379     505.3728
   1425.08118     613.1189     505.7607   1425.08118     613.1189     505.7607
   1425.06592     614.7939     505.3092   1425.06592     614.7939     505.3092
   1425.05066     614.2609     506.6135   1425.05066     614.2609     506.6135
   1425.03540     615.9991     507.1306   1425.03540     615.9991     507.1306
   1425.02014     615.9275     506.8001   1425.02014     615.9275     506.8001
   1425.00488     615.8073     508.7336   1425.00488     615.8073     508.7336
   1424.98962     617.8923     509.0484   1424.98962     617.8923     509.0484
   1424.97437     616.7380     508.7708   1424.97437     616.7380     508.7708
   1424.95911     617.1462     509.6598   1424.95911     617.1462     509.6598
   1424.94385     616.7204     510.4175   1424.94385     616.7204     510.4175
   1424.92859     617.7209     510.5327   1424.92859     617.7209     510.5327
   1424.91333     618.6899     509.5503   1424.91333     618.6899     509.5503
   1424.89807     618.0336     510.1642   1424.89807     618.0336     510.1642
   1424.88281     617.9077     511.3391   1424.88281     617.9077     511.3391
   1424.86755     618.6119     511.0670   1424.86755     618.6119     511.0670
   1424.85229     619.4250     512.2221   1424.85229     619.4250     512.2221
   1424.83704     619.8475     512.3088   1424.83704     619.8475     512.3088
   1424.82178     618.9739     512.1761   1424.82178     618.9739     512.1761
   1424.80652     618.9564     512.8984   1424.80652     618.9564     512.8984
   1424.79126     619.4990     513.6800   1424.79126     619.4990     513.6800
   1424.77600     618.9653     512.9347   1424.77600     618.9653     512.9347
   1424.76074     619.0105     512.9734   1424.76074     619.0105     512.9734
   1424.74548     619.3635     513.9730   1424.74548     619.3635     513.9730
   1424.73022     619.4118     513.2637   1424.73022     619.4118     513.2637
   1424.71497     619.1670     513.5315   1424.71497     619.1670     513.5315
   1424.69971     618.7538     513.8112   1424.69971     618.7538     513.8112
   1424.68445     620.2982     514.8729   1424.68445     620.2982     514.8729
   1424.66919     620.1271     514.9582   1424.66919     620.1271     514.9582
   1424.65393     619.4932     514.6489   1424.65393     619.4932     514.6489
   1424.63867     619.1801     514.2487   1424.63867     619.1801     514.2487
   1424.62341     619.5973     514.5540   1424.62341     619.5973     514.5540
   1424.60815     619.2903     514.5974   1424.60815     619.2903     514.5974
   1424.59290     619.0739     515.4478   1424.59290     619.0739     515.4478
   1424.57764     618.8396     515.2324   1424.57764     618.8396     515.2324
   1424.56238     619.4446     515.7092   1424.56238     619.4446     515.7092
   1424.54712     618.3209     515.1908   1424.54712     618.3209     515.1908
   1424.53186     618.7782     515.7269   1424.53186     618.7782     515.7269
   1424.51660     617.8563     515.3260   1424.51660     617.8563     515.3260
   1424.50134     618.5502     515.6478   1424.50134     618.5502     515.6478
   1424.48608     617.9558     516.4186   1424.48608     617.9558     516.4186
   1424.47083     618.2377     516.1483   1424.47083     618.2377     516.1483
   1424.45557     617.6888     515.2275   1424.45557     617.6888     515.2275
   1424.44031     617.2385     515.5910   1424.44031     617.2385     515.5910
   1424.42505     616.8616     515.5783   1424.42505     616.8616     515.5783
   1424.40979     616.6398     516.1719   1424.40979     616.6398     516.1719
   1424.39453     617.4433     515.7870   1424.39453     617.4433     515.7870
   1424.37927     616.4424     516.1777   1424.37927     616.4424     516.1777
   1424.36401     615.9490     515.6797   1424.36401     615.9490     515.6797
   1424.34875     615.9468     514.3790   1424.34875     615.9468     514.3790
   1424.33350     614.6757     515.9572   1424.33350     614.6757     515.9572
   1424.31824     615.9169     514.9963   1424.31824     615.9169     514.9963
   1424.30298     616.5754     515.5635   1424.30298     616.5754     515.5635
   1424.28772     614.9915     515.8074   1424.28772     614.9915     515.8074
   1424.27246     614.9969     515.4876   1424.27246     614.9969     515.4876
   1424.25720     615.0336     514.6305   1424.25720     615.0336     514.6305
   1424.24194     614.3429     514.4891   1424.24194     614.3429     514.4891
   1424.22668     614.4271     515.1088   1424.22668     614.4271     515.1088
   1424.21143     614.3043     515.1395   1424.21143     614.3043     515.1395
   1424.19617     613.4230     514.1213   1424.19617     613.4230     514.1213
   1424.18091     613.1119     513.7902   1424.18091     613.1119     513.7902
   1424.16565     612.1839     514.2261   1424.16565     612.1839     514.2261
   1424.15039     611.8547     514.3389   1424.15039     611.8547     514.3389
   1424.13513     612.5701     514.2626   1424.13513     612.5701     514.2626
   1424.11987     611.1349     513.9465   1424.11987     611.1349     513.9465
   1424.10461     610.9215     513.6832   1424.10461     610.9215     513.6832
   1424.08936     611.4728     513.7833   1424.08936     611.4728     513.7833
   1424.07410     610.5893     513.6676   1424.07410     610.5893     513.6676
   1424.05884     609.8362     512.6794   1424.05884     609.8362     512.6794
   1424.04358     610.1627     512.5420   1424.04358     610.1627     512.5420
   1424.02832     611.1049     512.8360   1424.02832     611.1049     512.8360
   1424.01306     608.6233     512.4333   1424.01306     608.6233     512.4333
   1423.99780     608.3949     512.8156   1423.99780     608.3949     512.8156
   1423.98254     608.2787     512.1167   1423.98254     608.2787     512.1167
   1423.96729     607.5510     512.1371   1423.96729     607.5510     512.1371
   1423.95203     606.1780     511.3382   1423.95203     606.1780     511.3382
   1423.93677     607.7287     510.7905   1423.93677     607.7287     510.7905
   1423.92151     607.0098     510.9623   1423.92151     607.0098     510.9623
   1423.90625     606.2286     510.3797   1423.90625     606.2286     510.3797
   1423.89099     605.9380     510.3427   1423.89099     605.9380     510.3427
   1423.87573     605.2487     509.7633   1423.87573     605.2487     509.7633
   1423.86047     605.0640     509.3442   1423.86047     605.0640     509.3442
   1423.84521     604.5393     508.5995   1423.84521     604.5393     508.5995
   1423.82996     603.1679     508.9220   1423.82996     603.1679     508.9220
   1423.81470     604.5911     508.7121   1423.81470     604.5911     508.7121
   1423.79944     603.0294     507.8419   1423.79944     603.0294     507.8419
   1423.78418     602.1193     508.7798   1423.78418     602.1193     508.7798
   1423.76892     601.9751     507.8746   1423.76892     601.9751     507.8746
   1423.75366     602.2741     507.0109   1423.75366     602.2741     507.0109
   1423.73840     600.7767     507.4252   1423.73840     600.7767     507.4252
   1423.72314     601.0327     506.0788   1423.72314     601.0327     506.0788
   1423.70789     600.5238     506.4105   1423.70789     600.5238     506.4105
   1423.69263     599.8353     506.2591   1423.69263     599.8353     506.2591
   1423.67737     600.3932     505.1984   1423.67737     600.3932     505.1984
   1423.66211     599.7725     504.7539   1423.66211     599.7725     504.7539
   1423.64685     599.2403     504.0333   1423.64685     599.2403     504.0333
   1423.63159     598.6015     504.2223   1423.63159     598.6015     504.2223
   1423.61633     598.5265     503.5975   1423.61633     598.5265     503.5975
   1423.60107     597.8398     503.2236   1423.60107     597.8398     503.2236
   1423.58582     598.2511     503.2582   1423.58582     598.2511     503.2582
   1423.57056     597.4251     501.9659   1423.57056     597.4251     501.9659
   1423.55530     596.6776     502.2839   1423.55530     596.6776     502.2839
   1423.54004     596.3111     501.5402   1423.54004     596.3111     501.5402
   1423.52478     597.0074     500.8941   1423.52478     597.0074     500.8941
   1423.50952     595.5347     501.1781   1423.50952     595.5347     501.1781
   1423.49426     594.9205     500.6550   1423.49426     594.9205     500.6550
   1423.47900     593.9800     500.3438   1423.47900     593.9800     500.3438
   1423.46375     593.2958     498.8067   1423.46375     593.2958     498.8067
   1423.44849     593.9108     498.6598   1423.44849     593.9108     498.6598
   1423.43323     593.5472     498.5005   1423.43323     593.5472     498.5005
   1423.41797     592.9890     497.4918   1423.41797     592.9890     497.4918
   1423.40271     592.2499     497.0172   1423.40271     592.2499     497.0172
   1423.38745     591.7527     496.4513   1423.38745     591.7527     496.4513
   1423.37219     592.8712     497.2379   1423.37219     592.8712     497.2379
   1423.35693     591.0114     496.0826   1423.35693     591.0114     496.0826
   1423.34167     592.3587     495.9147   1423.34167     592.3587     495.9147
   1423.32642     590.0201     494.5205   1423.32642     590.0201     494.5205
   1423.31116     590.1960     494.0218   1423.31116     590.1960     494.0218
   1423.29590     589.8576     493.5812   1423.29590     589.8576     493.5812
   1423.28064     590.1923     492.6433   1423.28064     590.1923     492.6433
   1423.26538     588.4907     493.0424   1423.26538     588.4907     493.0424
   1423.25012     588.8283     493.1597   1423.25012     588.8283     493.1597
   1423.23486     588.2794     492.6447   1423.23486     588.2794     492.6447
   1423.21960     587.3124     490.5927   1423.21960     587.3124     490.5927
   1423.20435     586.9233     491.3806   1423.20435     586.9233     491.3806
   1423.18909     587.2224     489.3961   1423.18909     587.2224     489.3961
   1423.17383     585.3591     489.2797   1423.17383     585.3591     489.2797
   1423.15857     586.0582     489.1383   1423.15857     586.0582     489.1383
   1423.14331     585.3029     488.1787   1423.14331     585.3029     488.1787
   1423.12805     585.7963     487.5860   1423.12805     585.7963     487.5860
   1423.11279     584.8680     487.3215   1423.11279     584.8680     487.3215
   1423.09753     585.1514     486.0594   1423.09753     585.1514     486.0594
   1423.08228     584.6123     485.6796   1423.08228     584.6123     485.6796
   1423.06702     583.6920     485.7958   1423.06702     583.6920     485.7958
   1423.05176     584.7972     484.6245   1423.05176     584.7972     484.6245
   1423.03650     584.0574     483.5176   1423.03650     584.0574     483.5176
   1423.02124     583.3034     483.6140   1423.02124     583.3034     483.6140
   1423.00598     583.4202     482.3102   1423.00598     583.4202     482.3102
   1422.99072     582.1974     481.9476   1422.99072     582.1974     481.9476
   1422.97546     583.4691     480.9308   1422.97546     583.4691     480.9308
   1422.96021     581.9366     480.5584   1422.96021     581.9366     480.5584
   1422.94495     582.0980     480.0197   1422.94495     582.0980     480.0197
   1422.92969     581.8210     479.3849   1422.92969     581.8210     479.3849
   1422.91443     580.5961     478.4103   1422.91443     580.5961     478.4103
   1422.89917     581.2937     478.0345   1422.89917     581.2937     478.0345
   1422.88391     581.2283     476.6060   1422.88391     581.2283     476.6060
   1422.86865     579.7968     476.5133   1422.86865     579.7968     476.5133
   1422.85339     580.2359     476.3136   1422.85339     580.2359     476.3136
   1422.83813     579.8901     475.1678   1422.83813     579.8901     475.1678
   1422.82288     579.4207     474.4435   1422.82288     579.4207     474.4435
   1422.80762     578.6870     474.2093   1422.80762     578.6870     474.2093
   1422.79236     579.1443     473.5540   1422.79236     579.1443     473.5540
   1422.77710     578.1793     472.9796   1422.77710     578.1793     472.9796
   1422.76184     578.3027     472.1466   1422.76184     578.3027     472.1466
   1422.74658     577.9135     470.9070   1422.74658     577.9135     470.9070
   1422.73132     578.1133     471.2442   1422.73132     578.1133     471.2442
   1422.71606     578.4304     469.3917   1422.71606     578.4304     469.3917
   1422.70081     577.2429     468.5510   1422.70081     577.2429     468.5510
   1422.68555     576.9852     467.8798   1422.68555     576.9852     467.8798
   1422.67029     577.3414     467.5970   1422.67029     577.3414     467.5970
   1422.65503     576.2422     466.5010   1422.65503     576.2422     466.5010
   1422.63977     576.1614     466.4741   1422.63977     576.1614     466.4741
   1422.62451     575.6559     464.6121   1422.62451     575.6559     464.6121
   1422.60925     575.2708     464.4071   1422.60925     575.2708     464.4071
   1422.59399     575.2786     463.9336   1422.59399     575.2786     463.9336
   1422.57874     575.0427     463.2075   1422.57874     575.0427     463.2075
   1422.56348     574.7178     461.9538   1422.56348     574.7178     461.9538
   1422.54822     574.6811     462.0257   1422.54822     574.6811     462.0257
   1422.53296     574.4879     460.3731   1422.53296     574.4879     460.3731
   1422.51770     573.8377     460.0121   1422.51770     573.8377     460.0121
   1422.50244     573.5146     459.5915   1422.50244     573.5146     459.5915
   1422.48718     573.5656     457.7223   1422.48718     573.5656     457.7223
   1422.47192     573.1967     457.4461   1422.47192     573.1967     457.4461
   1422.45667     573.6828     457.2792   1422.45667     573.6828     457.2792
   1422.44141     572.7709     455.9387   1422.44141     572.7709     455.9387
   1422.42615     572.6524     455.5024   1422.42615     572.6524     455.5024
   1422.41089     572.4283     454.8013   1422.41089     572.4283     454.8013
   1422.39563     573.0390     453.5717   1422.39563     573.0390     453.5717
   1422.38037     572.9481     453.2650   1422.38037     572.9481     453.2650
   1422.36511     572.6569     452.1698   1422.36511     572.6569     452.1698
   1422.34985     571.4158     451.9355   1422.34985     571.4158     451.9355
   1422.33459     571.6769     451.2781   1422.33459     571.6769     451.2781
   1422.31934     572.0008     450.3597   1422.31934     572.0008     450.3597
   1422.30408     571.4248     449.3856   1422.30408     571.4248     449.3856
   1422.28882     571.4498     448.6418   1422.28882     571.4498     448.6418
   1422.27356     571.4219     448.2692   1422.27356     571.4219     448.2692
   1422.25830     572.7770     447.4626   1422.25830     572.7770     447.4626
   1422.24304     570.6168     447.8766   1422.24304     570.6168     447.8766
   1422.22778     572.0974     446.7804   1422.22778     572.0974     446.7804
   1422.21252     570.9851     444.9204   1422.21252     570.9851     444.9204
   1422.19727     570.8352     443.9965   1422.19727     570.8352     443.9965
   1422.18201     571.1140     443.1927   1422.18201     571.1140     443.1927
   1422.16675     570.4875     442.7221   1422.16675     570.4875     442.7221
   1422.15149     570.5580     441.1061   1422.15149     570.5580     441.1061
   1422.13623     570.5260     441.4788   1422.13623     570.5260     441.4788
   1422.12097     568.8495     440.2299   1422.12097     568.8495     440.2299
   1422.10571     569.2214     438.5320   1422.10571     569.2214     438.5320
   1422.09045     569.3767     438.7386   1422.09045     569.3767     438.7386
   1422.07520     568.8589     437.6646   1422.07520     568.8589     437.6646
   1422.05994     569.1445     436.6046   1422.05994     569.1445     436.6046
   1422.04468     568.9891     436.7321   1422.04468     568.9891     436.7321
   1422.02942     568.5546     435.3055   1422.02942     568.5546     435.3055
   1422.01416     569.6071     434.1581   1422.01416     569.6071     434.1581
   1421.99890     569.1541     433.0495   1421.99890     569.1541     433.0495
   1421.98364     568.3132     432.8566   1421.98364     568.3132     432.8566
   1421.96838     568.5297     432.5685   1421.96838     568.5297     432.5685
   1421.95312     568.3212     431.0530   1421.95312     568.3212     431.0530
   1421.93787     567.9355     431.0055   1421.93787     567.9355     431.0055
   1421.92261     567.7697     429.5064   1421.92261     567.7697     429.5064
   1421.90735     567.4979     428.8560   1421.90735     567.4979     428.8560
   1421.89209     567.0554     428.8140   1421.89209     567.0554     428.8140
   1421.87683     567.5487     427.4805   1421.87683     567.5487     427.4805
   1421.86157     568.1190     426.2461   1421.86157     568.1190     426.2461
   1421.84631     568.2603     426.3522   1421.84631     568.2603     426.3522
   1421.83105     566.9351     425.1145   1421.83105     566.9351     425.1145
   1421.81580     566.7474     425.2053   1421.81580     566.7474     425.2053
   1421.80054     566.6819     423.7772   1421.80054     566.6819     423.7772
   1421.78528     567.3912     422.5843   1421.78528     567.3912     422.5843
   1421.77002     567.0345     421.1917   1421.77002     567.0345     421.1917
   1421.75476     566.1384     421.2650   1421.75476     566.1384     421.2650
   1421.73950     566.9311     420.6509   1421.73950     566.9311     420.6509
   1421.72424     566.1578     419.1122   1421.72424     566.1578     419.1122
   1421.70898     565.6189     418.4640   1421.70898     565.6189     418.4640
   1421.69373     565.8876     418.4696   1421.69373     565.8876     418.4696
   1421.67847     565.9257     417.4138   1421.67847     565.9257     417.4138
   1421.66321     565.6298     415.5111   1421.66321     565.6298     415.5111
   1421.64795     566.1200     415.2994   1421.64795     566.1200     415.2994
   1421.63269     565.1738     414.8728   1421.63269     565.1738     414.8728
   1421.61743     565.2809     414.2231   1421.61743     565.2809     414.2231
   1421.60217     566.2063     412.5754   1421.60217     566.2063     412.5754
   1421.58691     564.7667     412.5238   1421.58691     564.7667     412.5238
   1421.57166     564.0016     411.4813   1421.57166     564.0016     411.4813
   1421.55640     564.3261     410.6970   1421.55640     564.3261     410.6970
   1421.54114     564.4053     410.0700   1421.54114     564.4053     410.0700
   1421.52588     564.8500     409.2763   1421.52588     564.8500     409.2763
   1421.51062     564.2996     409.6070   1421.51062     564.2996     409.6070
   1421.49536     565.3287     407.8297   1421.49536     565.3287     407.8297
   1421.48010     564.8737     407.4760   1421.48010     564.8737     407.4760
   1421.46484     564.5875     407.1701   1421.46484     564.5875     407.1701
   1421.44958     566.4613     406.3133   1421.44958     566.4613     406.3133
   1421.43433     566.9276     407.0949   1421.43433     566.9276     407.0949
   1421.41907     568.6927     407.2337   1421.41907     568.6927     407.2337
   1421.40381     571.6199     408.3334   1421.40381     571.6199     408.3334
   1421.38855     574.4016     409.5001   1421.38855     574.4016     409.5001
   1421.37329     578.9458     412.0473   1421.37329     578.9458     412.0473
   1421.35803     581.6948     413.5349   1421.35803     581.6948     413.5349
   1421.34277     582.4351     413.4182   1421.34277     582.4351     413.4182
   1421.32751     579.7268     411.0353   1421.32751     579.7268     411.0353
   1421.31226     577.8962     409.1812   1421.31226     577.8962     409.1812
   1421.29700     573.5670     405.6327   1421.29700     573.5670     405.6327
   1421.28174     570.2967     402.3226   1421.28174     570.2967     402.3226
   1421.26648     567.6978     400.1514   1421.26648     567.6978     400.1514
   1421.25122     566.5372     397.8214   1421.25122     566.5372     397.8214
   1421.23596     565.2188     396.6185   1421.23596     565.2188     396.6185
   1421.22070     564.4590     395.5767   1421.22070     564.4590     395.5767
   1421.20544     564.0605     394.2503   1421.20544     564.0605     394.2503
   1421.19019     563.7208     393.4429   1421.19019     563.7208     393.4429
   1421.17493     563.1631     392.2195   1421.17493     563.1631     392.2195
   1421.15967     562.9604     391.2137   1421.15967     562.9604     391.2137
   1421.14441     562.6859     390.7888   1421.14441     562.6859     390.7888
   1421.12915     562.7608     390.0342   1421.12915     562.7608     390.0342
   1421.11389     563.0902     389.8269   1421.11389     563.0902     389.8269
   1421.09863     563.8289     389.6265   1421.09863     563.8289     389.6265
   1421.08337     562.8080     389.7566   1421.08337     562.8080     389.7566
   1421.06812     564.5173     389.1345   1421.06812     564.5173     389.1345
   1421.05286     564.8309     388.1143   1421.05286     564.8309     388.1143
   1421.03760     564.4955     387.5263   1421.03760     564.4955     387.5263
   1421.02234     565.6122     388.2487   1421.02234     565.6122     388.2487
   1421.00708     567.9941     389.4245   1421.00708     567.9941     389.4245
   1420.99182     570.5337     390.5349   1420.99182     570.5337     390.5349
   1420.97656     582.9224     396.8910   1420.97656     582.9224     396.8910
   1420.96130     609.7126     414.3216   1420.96130     609.7126     414.3216
   1420.94604     662.6443     449.7872   1420.94604     662.6443     449.7872
   1420.93079     719.0712     486.2808   1420.93079     719.0712     486.2808
   1420.91553     753.1339     506.9382   1420.91553     753.1339     506.9382
   1420.90027     765.1089     516.0406   1420.90027     765.1089     516.0406
   1420.88501     752.6254     504.2301   1420.88501     752.6254     504.2301
   1420.86975     722.9698     484.5800   1420.86975     722.9698     484.5800
   1420.85449     680.6440     457.3003   1420.85449     680.6440     457.3003
   1420.83923     702.7212     471.4734   1420.83923     702.7212     471.4734
   1420.82397     756.6501     504.6826   1420.82397     756.6501     504.6826
   1420.80872     775.3281     517.1011   1420.80872     775.3281     517.1011
   1420.79346     757.6420     504.8610   1420.79346     757.6420     504.8610
   1420.77820     771.3106     513.1821   1420.77820     771.3106     513.1821
   1420.76294     867.0705     573.7003   1420.76294     867.0705     573.7003
   1420.74768    1057.6647     698.2297   1420.74768    1057.6647     698.2297
   1420.73242    1325.0881     870.1392   1420.73242    1325.0881     870.1392
   1420.71716    1567.4905    1024.3763   1420.71716    1567.4905    1024.3763
   1420.70190    1839.9987    1200.2349   1420.70190    1839.9987    1200.2349
   1420.68665    1934.5548    1261.5461   1420.68665    1934.5548    1261.5461
   1420.67139    1839.3009    1194.6227   1420.67139    1839.3009    1194.6227
   1420.65613    1863.2764    1205.8842   1420.65613    1863.2764    1205.8842
   1420.64087    1780.5596    1152.8109   1420.64087    1780.5596    1152.8109
   1420.62561    1547.7574    1002.6093   1420.62561    1547.7574    1002.6093
   1420.61035    1339.4834     867.6065   1420.61035    1339.4834     867.6065
   1420.59509    1068.2462     693.5330   1420.59509    1068.2462     693.5330
   1420.57983     916.6474     597.3909   1420.57983     916.6474     597.3909
   1420.56458     921.0088     598.7560   1420.56458     921.0088     598.7560
   1420.54932    1069.1991     690.2198   1420.54932    1069.1991     690.2198
   1420.53406    1185.6512     764.9440   1420.53406    1185.6512     764.9440
   1420.51880    1084.5514     699.1869   1420.51880    1084.5514     699.1869
   1420.50354    1042.4427     671.5242   1420.50354    1042.4427     671.5242
   1420.48828    1017.0406     655.8478   1420.48828    1017.0406     655.8478
   1420.47302    1155.6217     742.2557   1420.47302    1155.6217     742.2557
   1420.45776    1209.2542     773.5309   1420.45776    1209.2542     773.5309
   1420.44250    1221.3995     781.2249   1420.44250    1221.3995     781.2249
   1420.42725    1193.8048     762.6121   1420.42725    1193.8048     762.6121
   1420.41199     963.9147     617.5510   1420.41199     963.9147     617.5510
   1420.39673     708.1653     454.7451   1420.39673     708.1653     454.7451
   1420.38147     625.3438     403.3211   1420.38147     625.3438     403.3211
   1420.36621     592.3865     380.8789   1420.36621     592.3865     380.8789
   1420.35095     575.7023     372.0092   1420.35095     575.7023     372.0092
   1420.33569     569.4453     366.4042   1420.33569     569.4453     366.4042
   1420.32043     564.9196     363.5072   1420.32043     564.9196     363.5072
   1420.30518     562.0080     361.2616   1420.30518     562.0080     361.2616
   1420.28992     560.9495     359.7575   1420.28992     560.9495     359.7575
   1420.27466     559.9637     359.3624   1420.27466     559.9637     359.3624
   1420.25940     557.8668     358.0865   1420.25940     557.8668     358.0865
   1420.24414     558.1564     357.6615   1420.24414     558.1564     357.6615
   1420.22888     556.8841     356.9619   1420.22888     556.8841     356.9619
   1420.21362     556.7872     355.4328   1420.21362     556.7872     355.4328
   1420.19836     555.9287     355.0957   1420.19836     555.9287     355.0957
   1420.18311     555.3442     353.6758   1420.18311     555.3442     353.6758
   1420.16785     554.2545     353.0858   1420.16785     554.2545     353.0858
   1420.15259     554.2414     352.2759   1420.15259     554.2414     352.2759
   1420.13733     554.4039     352.4364   1420.13733     554.4039     352.4364
   1420.12207     553.5020     351.6642   1420.12207     553.5020     351.6642
   1420.10681     553.1940     351.4633   1420.10681     553.1940     351.4633
   1420.09155     553.2782     350.5047   1420.09155     553.2782     350.5047
   1420.07629     552.2073     349.7536   1420.07629     552.2073     349.7536
   1420.06104     551.5577     348.8134   1420.06104     551.5577     348.8134
   1420.04578     551.8536     348.7082   1420.04578     551.8536     348.7082
   1420.03052     552.1570     348.4200   1420.03052     552.1570     348.4200
   1420.01526     554.0491     350.3772   1420.01526     554.0491     350.3772
   1420.00000     554.6030     350.9153   1420.00000     554.6030     350.9153
   1419.98474     555.1569     351.4533   1419.98474     555.1569     351.4533
   1419.96948     555.0846     348.7427   1419.96948     555.0846     348.7427
   1419.95422     550.6508     346.9739   1419.95422     550.6508     346.9739
   1419.93896     550.7643     346.4018   1419.93896     550.7643     346.4018
   1419.92371     550.6884     345.9214   1419.92371     550.6884     345.9214
   1419.90845     551.3375     346.0684   1419.90845     551.3375     346.0684
   1419.89319     551.1215     345.8132   1419.89319     551.1215     345.8132
   1419.87793     552.0063     345.6460   1419.87793     552.0063     345.6460
   1419.86267     551.1519     345.4303   1419.86267     551.1519     345.4303
   1419.84741     551.6831     344.8234   1419.84741     551.6831     344.8234
   1419.83215     552.1138     344.9569   1419.83215     552.1138     344.9569
   1419.81689     551.9527     344.4142   1419.81689     551.9527     344.4142
   1419.80164     551.9706     344.0436   1419.80164     551.9706     344.0436
   1419.78638     551.9996     344.8786   1419.78638     551.9996     344.8786
   1419.77112     552.0497     343.9357   1419.77112     552.0497     343.9357
   1419.75586     551.9182     343.9807   1419.75586     551.9182     343.9807
   1419.74060     551.4125     343.4523   1419.74060     551.4125     343.4523
   1419.72534     552.1498     343.9952   1419.72534     552.1498     343.9952
   1419.71008     552.8812     343.6051   1419.71008     552.8812     343.6051
   1419.69482     552.7136     343.7047   1419.69482     552.7136     343.7047
   1419.67957     552.7631     343.0561   1419.67957     552.7631     343.0561
   1419.66431     553.1485     342.9289   1419.66431     553.1485     342.9289
   1419.64905     552.5783     343.5143   1419.64905     552.5783     343.5143
   1419.63379     553.0169     343.2117   1419.63379     553.0169     343.2117
   1419.61853     553.7311     343.3750   1419.61853     553.7311     343.3750
   1419.60327     552.8224     343.2448   1419.60327     552.8224     343.2448
   1419.58801     553.5277     343.3096   1419.58801     553.5277     343.3096
   1419.57275     554.6252     343.4790   1419.57275     554.6252     343.4790
   1419.55750     554.4197     343.0043   1419.55750     554.4197     343.0043
   1419.54224     554.4810     342.2933   1419.54224     554.4810     342.2933
   1419.52698     554.6564     343.1736   1419.52698     554.6564     343.1736
   1419.51172     554.3959     343.0172   1419.51172     554.3959     343.0172
   1419.49646     555.2661     343.0531   1419.49646     555.2661     343.0531
   1419.48120     555.9401     342.8144   1419.48120     555.9401     342.8144
   1419.46594     555.4363     343.1868   1419.46594     555.4363     343.1868
   1419.45068     555.5485     342.9771   1419.45068     555.5485     342.9771
   1419.43542     555.7563     342.9636   1419.43542     555.7563     342.9636
   1419.42017     556.1099     342.8047   1419.42017     556.1099     342.8047
   1419.40491     556.4124     342.8781   1419.40491     556.4124     342.8781
   1419.38965     556.6266     343.1740   1419.38965     556.6266     343.1740
   1419.37439     556.8383     343.5286   1419.37439     556.8383     343.5286
   1419.35913     557.0630     343.7127   1419.35913     557.0630     343.7127
   1419.34387     557.4797     342.3042   1419.34387     557.4797     342.3042
   1419.32861     557.4579     343.6262   1419.32861     557.4579     343.6262
   1419.31335     558.4083     343.4904   1419.31335     558.4083     343.4904
   1419.29810     558.4113     344.0474   1419.29810     558.4113     344.0474
   1419.28284     558.7747     344.0596   1419.28284     558.7747     344.0596
   1419.26758     560.1861     345.3527   1419.26758     560.1861     345.3527
   1419.25232     559.1222     343.8161   1419.25232     559.1222     343.8161
   1419.23706     559.1533     344.2519   1419.23706     559.1533     344.2519
   1419.22180     559.9257     344.9417   1419.22180     559.9257     344.9417
   1419.20654     559.9442     344.3161   1419.20654     559.9442     344.3161
   1419.19128     560.5053     344.8478   1419.19128     560.5053     344.8478
   1419.17603     560.2783     345.2337   1419.17603     560.2783     345.2337
   1419.16077     561.0445     345.7374   1419.16077     561.0445     345.7374
   1419.14551     560.9130     345.8156   1419.14551     560.9130     345.8156
   1419.13025     562.6727     345.6096   1419.13025     562.6727     345.6096
   1419.11499     562.6206     346.1560   1419.11499     562.6206     346.1560
   1419.09973     562.2213     346.2595   1419.09973     562.2213     346.2595
   1419.08447     562.5861     346.9482   1419.08447     562.5861     346.9482
   1419.06921     563.0046     346.8268   1419.06921     563.0046     346.8268
   1419.05396     563.4242     347.4680   1419.05396     563.4242     347.4680
   1419.03870     563.2836     347.6434   1419.03870     563.2836     347.6434
   1419.02344     564.5865     348.2133   1419.02344     564.5865     348.2133
   1419.00818     564.5450     348.6147   1419.00818     564.5450     348.6147
   1418.99292     566.5126     348.8969   1418.99292     566.5126     348.8969
   1418.97766     565.0561     348.6807   1418.97766     565.0561     348.6807
   1418.96240     566.4527     349.1546   1418.96240     566.4527     349.1546
   1418.94714     566.7811     349.3955   1418.94714     566.7811     349.3955
   1418.93188     567.0228     350.6958   1418.93188     567.0228     350.6958
   1418.91663     567.5530     350.4773   1418.91663     567.5530     350.4773
   1418.90137     567.8766     350.6220   1418.90137     567.8766     350.6220
   1418.88611     569.0240     351.2391   1418.88611     569.0240     351.2391
   1418.87085     568.8931     351.3026   1418.87085     568.8931     351.3026
   1418.85559     568.9908     351.9213   1418.85559     568.9908     351.9213
   1418.84033     569.5710     352.1603   1418.84033     569.5710     352.1603
   1418.82507     570.7221     353.2584   1418.82507     570.7221     353.2584
   1418.80981     570.5296     353.2303   1418.80981     570.5296     353.2303
   1418.79456     570.4123     353.1599   1418.79456     570.4123     353.1599
   1418.77930     572.5544     353.9317   1418.77930     572.5544     353.9317
   1418.76404     571.0158     354.8426   1418.76404     571.0158     354.8426
   1418.74878     572.7113     354.6475   1418.74878     572.7113     354.6475
   1418.73352     572.9573     355.0576   1418.73352     572.9573     355.0576
   1418.71826     573.8697     356.0576   1418.71826     573.8697     356.0576
   1418.70300     573.3486     356.2695   1418.70300     573.3486     356.2695
   1418.68774     574.0026     356.8899   1418.68774     574.0026     356.8899
   1418.67249     574.4932     357.2807   1418.67249     574.4932     357.2807
   1418.65723     576.4094     358.5333   1418.65723     576.4094     358.5333
   1418.64197     576.1379     358.4047   1418.64197     576.1379     358.4047
   1418.62671     576.7570     359.1217   1418.62671     576.7570     359.1217
   1418.61145     577.0932     359.2912   1418.61145     577.0932     359.2912
   1418.59619     577.4909     360.3656   1418.59619     577.4909     360.3656
   1418.58093     578.1180     360.2889   1418.58093     578.1180     360.2889
   1418.56567     578.2717     360.9804   1418.56567     578.2717     360.9804
   1418.55042     579.1114     361.2284   1418.55042     579.1114     361.2284
   1418.53516     580.1873     362.4968   1418.53516     580.1873     362.4968
   1418.51990     580.7081     362.9932   1418.51990     580.7081     362.9932
   1418.50464     580.9334     363.6355   1418.50464     580.9334     363.6355
   1418.48938     582.4509     364.5132   1418.48938     582.4509     364.5132
   1418.47412     582.5432     365.2145   1418.47412     582.5432     365.2145
   1418.45886     582.1260     365.6752   1418.45886     582.1260     365.6752
   1418.44360     584.3748     366.2575   1418.44360     584.3748     366.2575
   1418.42834     583.7090     366.9136   1418.42834     583.7090     366.9136
   1418.41309     583.1940     367.6841   1418.41309     583.1940     367.6841
   1418.39783     585.3474     368.1498   1418.39783     585.3474     368.1498
   1418.38257     585.8196     368.7206   1418.38257     585.8196     368.7206
   1418.36731     585.9361     369.1440   1418.36731     585.9361     369.1440
   1418.35205     586.4198     369.5472   1418.35205     586.4198     369.5472
   1418.33679     587.5577     371.2932   1418.33679     587.5577     371.2932
   1418.32153     588.9386     371.4238   1418.32153     588.9386     371.4238
   1418.30627     590.1566     372.4055   1418.30627     590.1566     372.4055
   1418.29102     588.9473     373.8794   1418.29102     588.9473     373.8794
   1418.27576     589.9141     373.7346   1418.27576     589.9141     373.7346
   1418.26050     590.1842     374.4161   1418.26050     590.1842     374.4161
   1418.24524     592.2029     374.8314   1418.24524     592.2029     374.8314
   1418.22998     593.4327     376.4622   1418.22998     593.4327     376.4622
   1418.21472     591.8644     376.3470   1418.21472     591.8644     376.3470
   1418.19946     592.9008     377.3635   1418.19946     592.9008     377.3635
   1418.18420     593.4092     378.3068   1418.18420     593.4092     378.3068
   1418.16895     594.0695     379.1143   1418.16895     594.0695     379.1143
   1418.15369     595.0403     379.8008   1418.15369     595.0403     379.8008
   1418.13843     596.6436     380.5286   1418.13843     596.6436     380.5286
   1418.12317     596.5776     381.0107   1418.12317     596.5776     381.0107
   1418.10791     597.0256     381.4641   1418.10791     597.0256     381.4641
   1418.09265     598.2314     382.7766   1418.09265     598.2314     382.7766
   1418.07739     598.4233     383.7964   1418.07739     598.4233     383.7964
   1418.06213     599.3936     383.9147   1418.06213     599.3936     383.9147
   1418.04688     600.5273     385.2594   1418.04688     600.5273     385.2594
   1418.03162     600.4853     385.6882   1418.03162     600.4853     385.6882
   1418.01636     601.5179     386.8835   1418.01636     601.5179     386.8835
   1418.00110     601.7831     387.9827   1418.00110     601.7831     387.9827
   1417.98584     603.1773     388.6162   1417.98584     603.1773     388.6162
   1417.97058     604.0009     390.1501   1417.97058     604.0009     390.1501
   1417.95532     603.7812     390.1247   1417.95532     603.7812     390.1247
   1417.94006     604.7184     391.2349   1417.94006     604.7184     391.2349
   1417.92480     605.3815     392.0583   1417.92480     605.3815     392.0583
   1417.90955     605.8517     392.8827   1417.90955     605.8517     392.8827
   1417.89429     607.3804     394.1453   1417.89429     607.3804     394.1453
   1417.87903     607.3044     394.0559   1417.87903     607.3044     394.0559
   1417.86377     608.5207     395.7071   1417.86377     608.5207     395.7071
   1417.84851     609.2960     396.3777   1417.84851     609.2960     396.3777
   1417.83325     609.6265     397.0109   1417.83325     609.6265     397.0109
   1417.81799     612.0142     397.2843   1417.81799     612.0142     397.2843
   1417.80273     611.3689     398.0194   1417.80273     611.3689     398.0194
   1417.78748     611.8551     399.5938   1417.78748     611.8551     399.5938
   1417.77222     611.9723     400.0606   1417.77222     611.9723     400.0606
   1417.75696     614.0789     401.4925   1417.75696     614.0789     401.4925
   1417.74170     614.4667     402.3119   1417.74170     614.4667     402.3119
   1417.72644     615.4282     403.2213   1417.72644     615.4282     403.2213
   1417.71118     616.2292     404.7403   1417.71118     616.2292     404.7403
   1417.69592     616.7397     404.7516   1417.69592     616.7397     404.7516
   1417.68066     617.1009     406.2944   1417.68066     617.1009     406.2944
   1417.66541     618.3127     407.3583   1417.66541     618.3127     407.3583
   1417.65015     618.5295     407.5757   1417.65015     618.5295     407.5757
   1417.63489     619.3698     408.8014   1417.63489     619.3698     408.8014
   1417.61963     620.2157     409.7620   1417.61963     620.2157     409.7620
   1417.60437     620.6282     410.1397   1417.60437     620.6282     410.1397
   1417.58911     621.9404     411.0720   1417.58911     621.9404     411.0720
   1417.57385     622.3027     412.2297   1417.57385     622.3027     412.2297
   1417.55859     623.4797     412.8856   1417.55859     623.4797     412.8856
   1417.54333     623.5865     414.1642   1417.54333     623.5865     414.1642
   1417.52808     623.7260     415.2503   1417.52808     623.7260     415.2503
   1417.51282     625.9990     415.9201   1417.51282     625.9990     415.9201
   1417.49756     626.6009     416.0750   1417.49756     626.6009     416.0750
   1417.48230     625.9506     418.0626   1417.48230     625.9506     418.0626
   1417.46704     627.0914     418.0704   1417.46704     627.0914     418.0704
   1417.45178     627.2602     419.7121   1417.45178     627.2602     419.7121
   1417.43652     629.6167     420.8191   1417.43652     629.6167     420.8191
   1417.42126     628.7944     421.2491   1417.42126     628.7944     421.2491
   1417.40601     628.2771     422.2099   1417.40601     628.2771     422.2099
   1417.39075     630.1852     422.4430   1417.39075     630.1852     422.4430
   1417.37549     630.6180     423.6791   1417.37549     630.6180     423.6791
   1417.36023     633.0323     423.7048   1417.36023     633.0323     423.7048
   1417.34497     631.8344     425.2672   1417.34497     631.8344     425.2672
   1417.32971     632.4717     426.2627   1417.32971     632.4717     426.2627
   1417.31445     632.6706     427.2380   1417.31445     632.6706     427.2380
   1417.29919     632.7963     427.5313   1417.29919     632.7963     427.5313
   1417.28394     633.8482     428.3036   1417.28394     633.8482     428.3036
   1417.26868     634.7614     429.6003   1417.26868     634.7614     429.6003
   1417.25342     636.7280     430.7240   1417.25342     636.7280     430.7240
   1417.23816     636.9608     431.5508   1417.23816     636.9608     431.5508
   1417.22290     637.7208     433.2306   1417.22290     637.7208     433.2306
   1417.20764     638.0763     432.6631   1417.20764     638.0763     432.6631
   1417.19238     638.6100     433.9976   1417.19238     638.6100     433.9976
   1417.17712     639.0336     433.9203   1417.17712     639.0336     433.9203
   1417.16187     639.8181     435.1858   1417.16187     639.8181     435.1858
   1417.14661     639.4557     436.1741   1417.14661     639.4557     436.1741
   1417.13135     640.6598     436.3479   1417.13135     640.6598     436.3479
   1417.11609     640.8294     436.7440   1417.11609     640.8294     436.7440
   1417.10083     640.8353     438.4420   1417.10083     640.8353     438.4420
   1417.08557     641.9672     439.0823   1417.08557     641.9672     439.0823
   1417.07031     641.1541     438.9854   1417.07031     641.1541     438.9854
   1417.05505     642.9795     440.5687   1417.05505     642.9795     440.5687
   1417.03979     643.7960     440.5435   1417.03979     643.7960     440.5435
   1417.02454     644.5814     441.6490   1417.02454     644.5814     441.6490
   1417.00928     643.5413     442.9424   1417.00928     643.5413     442.9424
   1416.99402     644.8004     442.5461   1416.99402     644.8004     442.5461
   1416.97876     645.2090     443.8116   1416.97876     645.2090     443.8116
   1416.96350     645.2728     444.2887   1416.96350     645.2728     444.2887
   1416.94824     645.6982     444.5376   1416.94824     645.6982     444.5376
   1416.93298     645.1175     445.5747   1416.93298     645.1175     445.5747
   1416.91772     645.4376     446.1129   1416.91772     645.4376     446.1129
   1416.90247     647.1826     446.9579   1416.90247     647.1826     446.9579
   1416.88721     647.4800     446.6667   1416.88721     647.4800     446.6667
   1416.87195     647.3446     446.9330   1416.87195     647.3446     446.9330
   1416.85669     648.0767     447.8364   1416.85669     648.0767     447.8364
   1416.84143     648.2299     448.2064   1416.84143     648.2299     448.2064
   1416.82617     648.7588     448.4772   1416.82617     648.7588     448.4772
   1416.81091     649.2599     448.5318   1416.81091     649.2599     448.5318
   1416.79565     650.0247     449.9572   1416.79565     650.0247     449.9572
   1416.78040     649.7028     450.5400   1416.78040     649.7028     450.5400
   1416.76514     650.2975     450.8850   1416.76514     650.2975     450.8850
   1416.74988     650.1394     450.8889   1416.74988     650.1394     450.8889
   1416.73462     650.0114     451.5983   1416.73462     650.0114     451.5983
   1416.71936     650.6500     451.8123   1416.71936     650.6500     451.8123
   1416.70410     649.2408     450.9535   1416.70410     649.2408     450.9535
   1416.68884     650.5311     452.2014   1416.68884     650.5311     452.2014
   1416.67358     651.6213     452.2532   1416.67358     651.6213     452.2532
   1416.65833     651.8809     452.6755   1416.65833     651.8809     452.6755
   1416.64307     650.3359     453.2332   1416.64307     650.3359     453.2332
   1416.62781     651.8724     453.4521   1416.62781     651.8724     453.4521
   1416.61255     652.4031     453.2307   1416.61255     652.4031     453.2307
   1416.59729     652.9965     453.5738   1416.59729     652.9965     453.5738
   1416.58203     650.4550     453.0240   1416.58203     650.4550     453.0240
   1416.56677     651.9263     454.1487   1416.56677     651.9263     454.1487
   1416.55151     651.9680     454.4936   1416.55151     651.9680     454.4936
   1416.53625     651.7670     454.3684   1416.53625     651.7670     454.3684
   1416.52100     651.5485     454.3690   1416.52100     651.5485     454.3690
   1416.50574     652.0191     454.4978   1416.50574     652.0191     454.4978
   1416.49048     651.8422     454.5906   1416.49048     651.8422     454.5906
   1416.47522     651.5897     453.6646   1416.47522     651.5897     453.6646
   1416.45996     651.1876     454.1924   1416.45996     651.1876     454.1924
   1416.44470     651.6943     454.3786   1416.44470     651.6943     454.3786
   1416.42944     651.5002     454.0465   1416.42944     651.5002     454.0465
   1416.41418     651.6290     454.6559   1416.41418     651.6290     454.6559
   1416.39893     651.5187     453.3594   1416.39893     651.5187     453.3594
   1416.38367     650.4813     453.7041   1416.38367     650.4813     453.7041
   1416.36841     651.5560     454.2490   1416.36841     651.5560     454.2490
   1416.35315     650.9838     453.3874   1416.35315     650.9838     453.3874
   1416.33789     651.0370     453.2154   1416.33789     651.0370     453.2154
   1416.32263     651.6110     453.5087   1416.32263     651.6110     453.5087
   1416.30737     650.3710     452.9434   1416.30737     650.3710     452.9434
   1416.29211     649.3105     452.6751   1416.29211     649.3105     452.6751
   1416.27686     650.0663     452.5078   1416.27686     650.0663     452.5078
   1416.26160     650.0133     452.4996   1416.26160     650.0133     452.4996
   1416.24634     649.2751     451.8399   1416.24634     649.2751     451.8399
   1416.23108     648.8283     451.8170   1416.23108     648.8283     451.8170
   1416.21582     650.9981     451.4145   1416.21582     650.9981     451.4145
   1416.20056     648.7673     451.1894   1416.20056     648.7673     451.1894
   1416.18530     648.4412     450.9081   1416.18530     648.4412     450.9081
   1416.17004     648.3806     450.1193   1416.17004     648.3806     450.1193
   1416.15479     647.3708     450.0835   1416.15479     647.3708     450.0835
   1416.13953     648.0680     449.5596   1416.13953     648.0680     449.5596
   1416.12427     648.0570     449.8757   1416.12427     648.0570     449.8757
   1416.10901     647.0642     448.8176   1416.10901     647.0642     448.8176
   1416.09375     646.5261     449.0986   1416.09375     646.5261     449.0986
   1416.07849     645.9839     448.1803   1416.07849     645.9839     448.1803
   1416.06323     646.4105     447.5078   1416.06323     646.4105     447.5078
   1416.04797     645.6081     447.7664   1416.04797     645.6081     447.7664
   1416.03271     646.0988     447.3109   1416.03271     646.0988     447.3109
   1416.01746     644.6066     446.7272   1416.01746     644.6066     446.7272
   1416.00220     645.0832     446.2463   1416.00220     645.0832     446.2463
   1415.98694     644.6512     445.5049   1415.98694     644.6512     445.5049
   1415.97168     642.8667     445.2689   1415.97168     642.8667     445.2689
   1415.95642     642.5696     444.5647   1415.95642     642.5696     444.5647
   1415.94116     642.4614     444.6022   1415.94116     642.4614     444.6022
   1415.92590     642.1931     443.9311   1415.92590     642.1931     443.9311
   1415.91064     642.1100     442.9782   1415.91064     642.1100     442.9782
   1415.89539     641.9324     442.2273   1415.89539     641.9324     442.2273
   1415.88013     640.9296     442.0652   1415.88013     640.9296     442.0652
   1415.86487     641.6785     441.9261   1415.86487     641.6785     441.9261
   1415.84961     640.6082     440.8941   1415.84961     640.6082     440.8941
   1415.83435     641.3024     440.6643   1415.83435     641.3024     440.6643
   1415.81909     638.6931     439.7434   1415.81909     638.6931     439.7434
   1415.80383     638.8519     438.7596   1415.80383     638.8519     438.7596
   1415.78857     637.4586     437.9021   1415.78857     637.4586     437.9021
   1415.77332     637.4531     438.3471   1415.77332     637.4531     438.3471
   1415.75806     637.1554     437.7053   1415.75806     637.1554     437.7053
   1415.74280     635.9763     436.9905   1415.74280     635.9763     436.9905
   1415.72754     634.5271     436.6582   1415.72754     634.5271     436.6582
   1415.71228     636.2429     436.1026   1415.71228     636.2429     436.1026
   1415.69702     633.9197     435.1806   1415.69702     633.9197     435.1806
   1415.68176     633.5068     434.8108   1415.68176     633.5068     434.8108
   1415.66650     632.8981     433.8527   1415.66650     632.8981     433.8527
   1415.65125     633.1991     433.7962   1415.65125     633.1991     433.7962
   1415.63599     632.3178     432.6527   1415.63599     632.3178     432.6527
   1415.62073     630.9182     432.9005   1415.62073     630.9182     432.9005
   1415.60547     630.7947     431.5235   1415.60547     630.7947     431.5235
   1415.59021     629.6631     430.6573   1415.59021     629.6631     430.6573
   1415.57495     629.3288     430.2181   1415.57495     629.3288     430.2181
   1415.55969     628.3250     429.7029   1415.55969     628.3250     429.7029
   1415.54443     626.8308     429.0527   1415.54443     626.8308     429.0527
   1415.52917     626.6923     428.4845   1415.52917     626.6923     428.4845
   1415.51392     625.8513     428.1255   1415.51392     625.8513     428.1255
   1415.49866     624.9819     427.1537   1415.49866     624.9819     427.1537
   1415.48340     624.4642     426.9615   1415.48340     624.4642     426.9615
   1415.46814     623.6371     426.2700   1415.46814     623.6371     426.2700
   1415.45288     625.6952     424.7573   1415.45288     625.6952     424.7573
   1415.43762     621.6503     424.1757   1415.43762     621.6503     424.1757
   1415.42236     621.0724     423.9126   1415.42236     621.0724     423.9126
   1415.40710     621.2833     422.8720   1415.40710     621.2833     422.8720
   1415.39185     619.7737     422.6608   1415.39185     619.7737     422.6608
   1415.37659     618.1994     421.7285   1415.37659     618.1994     421.7285
   1415.36133     616.8238     421.2466   1415.36133     616.8238     421.2466
   1415.34607     616.8488     420.9447   1415.34607     616.8488     420.9447
   1415.33081     615.9409     419.3947   1415.33081     615.9409     419.3947
   1415.31555     615.6094     418.4799   1415.31555     615.6094     418.4799
   1415.30029     615.1620     418.2107   1415.30029     615.1620     418.2107
   1415.28503     613.6376     417.4271   1415.28503     613.6376     417.4271
   1415.26978     612.3668     416.4070   1415.26978     612.3668     416.4070
   1415.25452     612.2376     415.7873   1415.25452     612.2376     415.7873
   1415.23926     609.9102     415.3804   1415.23926     609.9102     415.3804
   1415.22400     609.3704     414.3117   1415.22400     609.3704     414.3117
   1415.20874     607.9973     412.4686   1415.20874     607.9973     412.4686
   1415.19348     607.2926     412.6602   1415.19348     607.2926     412.6602
   1415.17822     605.1497     411.9280   1415.17822     605.1497     411.9280
   1415.16296     605.5617     411.0649   1415.16296     605.5617     411.0649
   1415.14771     604.2675     410.0180   1415.14771     604.2675     410.0180
   1415.13245     603.0812     409.7589   1415.13245     603.0812     409.7589
   1415.11719     601.3141     408.6257   1415.11719     601.3141     408.6257
   1415.10193     600.8616     407.5209   1415.10193     600.8616     407.5209
   1415.08667     598.9625     407.1236   1415.08667     598.9625     407.1236
   1415.07141     598.9080     406.0822   1415.07141     598.9080     406.0822
   1415.05615     597.0840     404.9124   1415.05615     597.0840     404.9124
   1415.04089     596.1547     404.8236   1415.04089     596.1547     404.8236
   1415.02563     594.5723     403.6556   1415.02563     594.5723     403.6556
   1415.01038     593.2047     402.6920   1415.01038     593.2047     402.6920
   1414.99512     592.2287     401.7150   1414.99512     592.2287     401.7150
   1414.97986     590.8030     400.4947   1414.97986     590.8030     400.4947
   1414.96460     589.5562     399.4020   1414.96460     589.5562     399.4020
   1414.94934     588.1840     399.0057   1414.94934     588.1840     399.0057
   1414.93408     587.1771     397.5925   1414.93408     587.1771     397.5925
   1414.91882     585.3315     397.6759   1414.91882     585.3315     397.6759
   1414.90356     583.6127     396.1184   1414.90356     583.6127     396.1184
   1414.88831     583.2241     395.2373   1414.88831     583.2241     395.2373
   1414.87305     582.1049     394.6640   1414.87305     582.1049     394.6640
   1414.85779     580.0294     393.2028   1414.85779     580.0294     393.2028
   1414.84253     580.0589     392.7333   1414.84253     580.0589     392.7333
   1414.82727     576.8420     392.3651   1414.82727     576.8420     392.3651
   1414.81201     576.6554     390.3351   1414.81201     576.6554     390.3351
   1414.79675     574.7866     389.5356   1414.79675     574.7866     389.5356
   1414.78149     572.3297     388.7987   1414.78149     572.3297     388.7987
   1414.76624     571.4136     387.5260   1414.76624     571.4136     387.5260
   1414.75098     569.8202     386.4431   1414.75098     569.8202     386.4431
   1414.73572     567.8218     385.1731   1414.73572     567.8218     385.1731
   1414.72046     566.4429     384.4752   1414.72046     566.4429     384.4752
   1414.70520     565.2859     383.2241   1414.70520     565.2859     383.2241
   1414.68994     563.8990     382.1632   1414.68994     563.8990     382.1632
   1414.67468     562.3448     381.2425   1414.67468     562.3448     381.2425
   1414.65942     560.0776     380.3176   1414.65942     560.0776     380.3176
   1414.64417     559.3334     379.1491   1414.64417     559.3334     379.1491
   1414.62891     557.0931     378.4906   1414.62891     557.0931     378.4906
   1414.61365     555.2354     376.9229   1414.61365     555.2354     376.9229
   1414.59839     553.3010     376.4334   1414.59839     553.3010     376.4334
   1414.58313     551.9297     374.7339   1414.58313     551.9297     374.7339
   1414.56787     549.7406     373.7636   1414.56787     549.7406     373.7636
   1414.55261     547.8207     372.6642   1414.55261     547.8207     372.6642
   1414.53735     546.6886     371.1520   1414.53735     546.6886     371.1520
   1414.52209     543.6335     370.7934   1414.52209     543.6335     370.7934
   1414.50684     543.0065     368.9034   1414.50684     543.0065     368.9034
   1414.49158     541.0182     368.0057   1414.49158     541.0182     368.0057
   1414.47632     538.7233     366.8770   1414.47632     538.7233     366.8770
   1414.46106     537.3212     364.9985   1414.46106     537.3212     364.9985
   1414.44580     535.5085     364.2421   1414.44580     535.5085     364.2421
   1414.43054     534.2078     362.9683   1414.43054     534.2078     362.9683
   1414.41528     531.1757     361.7540   1414.41528     531.1757     361.7540
   1414.40002     530.6993     360.9020   1414.40002     530.6993     360.9020
   1414.38477     526.9958     359.7448   1414.38477     526.9958     359.7448
   1414.36951     525.9125     358.0068   1414.36951     525.9125     358.0068
   1414.35425     523.1877     357.0639   1414.35425     523.1877     357.0639
   1414.33899     521.8972     355.7339   1414.33899     521.8972     355.7339
   1414.32373     520.6216     354.5959   1414.32373     520.6216     354.5959
   1414.30847     517.9346     353.3652   1414.30847     517.9346     353.3652
   1414.29321     514.8057     352.1187   1414.29321     514.8057     352.1187
   1414.27795     514.3873     351.0481   1414.27795     514.3873     351.0481
   1414.26270     512.0900     349.4600   1414.26270     512.0900     349.4600
   1414.24744     510.1465     348.5452   1414.24744     510.1465     348.5452
   1414.23218     507.9951     347.0082   1414.23218     507.9951     347.0082
   1414.21692     504.7816     345.5623   1414.21692     504.7816     345.5623
   1414.20166     503.5540     343.6063   1414.20166     503.5540     343.6063
   1414.18640     501.2193     342.7783   1414.18640     501.2193     342.7783
   1414.17114     498.9821     341.8630   1414.17114     498.9821     341.8630
   1414.15588     498.2667     340.7220   1414.15588     498.2667     340.7220
   1414.14062     495.1230     339.2301   1414.14062     495.1230     339.2301
   1414.12537     492.6401     337.9614   1414.12537     492.6401     337.9614
   1414.11011     490.7048     336.7391   1414.11011     490.7048     336.7391
   1414.09485     488.6059     334.9872   1414.09485     488.6059     334.9872
   1414.07959     485.4859     333.9236   1414.07959     485.4859     333.9236
   1414.06433     484.1371     332.6476   1414.06433     484.1371     332.6476
   1414.04907     481.6195     330.9311   1414.04907     481.6195     330.9311
   1414.03381     480.0628     329.4574   1414.03381     480.0628     329.4574
   1414.01855     478.2541     327.8975   1414.01855     478.2541     327.8975
   1414.00330     503.6785     335.4233   1414.00330     503.6785     335.4233
   1413.98804     474.0578     326.5322   1413.98804     474.0578     326.5322
   1413.97278     470.5437     324.4211   1413.97278     470.5437     324.4211
   1413.95752     468.4681     322.9030   1413.95752     468.4681     322.9030
   1413.94226     465.4297     321.4083   1413.94226     465.4297     321.4083
   1413.92700     463.6803     319.9006   1413.92700     463.6803     319.9006
   1413.91174     461.6096     318.8310   1413.91174     461.6096     318.8310
   1413.89648     459.3225     317.1970   1413.89648     459.3225     317.1970
   1413.88123     456.8746     315.4358   1413.88123     456.8746     315.4358
   1413.86597     453.8974     314.2354   1413.86597     453.8974     314.2354
   1413.85071     451.6458     312.4896   1413.85071     451.6458     312.4896
   1413.83545     449.7352     311.2250   1413.83545     449.7352     311.2250
   1413.82019     447.4179     310.3051   1413.82019     447.4179     310.3051
   1413.80493     444.5369     308.4592   1413.80493     444.5369     308.4592
   1413.78967     442.9738     307.5209   1413.78967     442.9738     307.5209
   1413.77441     439.5779     305.6227   1413.77441     439.5779     305.6227
   1413.75916     437.8624     304.0963   1413.75916     437.8624     304.0963
   1413.74390     436.1509     302.9601   1413.74390     436.1509     302.9601
   1413.72864     433.2904     301.1563   1413.72864     433.2904     301.1563
   1413.71338     430.9834     300.1676   1413.71338     430.9834     300.1676
   1413.69812     428.2395     299.2008   1413.69812     428.2395     299.2008
   1413.68286     426.4319     297.1682   1413.68286     426.4319     297.1682
   1413.66760     424.0687     296.2750   1413.66760     424.0687     296.2750
   1413.65234     421.7184     294.4774   1413.65234     421.7184     294.4774
   1413.63708     419.4615     293.1874   1413.63708     419.4615     293.1874
   1413.62183     417.2328     291.8651   1413.62183     417.2328     291.8651
   1413.60657     415.0649     290.5577   1413.60657     415.0649     290.5577
   1413.59131     412.4277     289.0450   1413.59131     412.4277     289.0450
   1413.57605     409.5344     288.0126   1413.57605     409.5344     288.0126
   1413.56079     407.4652     286.1066   1413.56079     407.4652     286.1066
   1413.54553     406.2934     285.4388   1413.54553     406.2934     285.4388
   1413.53027     403.0206     283.6899   1413.53027     403.0206     283.6899
   1413.51501     400.8877     282.1324   1413.51501     400.8877     282.1324
   1413.49976     398.6055     281.0586   1413.49976     398.6055     281.0586
   1413.48450     395.9492     279.0918   1413.48450     395.9492     279.0918
   1413.46924     393.8830     278.3990   1413.46924     393.8830     278.3990
   1413.45398     392.5079     276.9880   1413.45398     392.5079     276.9880
   1413.43872     389.8079     275.3539   1413.43872     389.8079     275.3539
   1413.42346     387.3401     273.8362   1413.42346     387.3401     273.8362
   1413.40820     385.3711     272.6019   1413.40820     385.3711     272.6019
   1413.39294     382.9099     271.6929   1413.39294     382.9099     271.6929
   1413.37769     380.3496     270.2722   1413.37769     380.3496     270.2722
   1413.36243     378.5173     268.8306   1413.36243     378.5173     268.8306
   1413.34717     376.4596     267.8792   1413.34717     376.4596     267.8792
   1413.33191     373.3466     266.6086   1413.33191     373.3466     266.6086
   1413.31665     372.6937     265.4861   1413.31665     372.6937     265.4861
   1413.30139     370.1475     263.7097   1413.30139     370.1475     263.7097
   1413.28613     368.0504     262.6765   1413.28613     368.0504     262.6765
   1413.27087     366.0574     261.9729   1413.27087     366.0574     261.9729
   1413.25562     363.8896     260.3173   1413.25562     363.8896     260.3173
   1413.24036     362.1120     259.2863   1413.24036     362.1120     259.2863
   1413.22510     359.8960     257.9435   1413.22510     359.8960     257.9435
   1413.20984     357.7946     256.8767   1413.20984     357.7946     256.8767
   1413.19458     355.9246     255.7687   1413.19458     355.9246     255.7687
   1413.17932     353.3564     254.4033   1413.17932     353.3564     254.4033
   1413.16406     352.1558     253.7577   1413.16406     352.1558     253.7577
   1413.14880     349.8619     252.0712   1413.14880     349.8619     252.0712
   1413.13354     348.0737     251.8125   1413.13354     348.0737     251.8125
   1413.11829     346.0576     250.6272   1413.11829     346.0576     250.6272
   1413.10303     344.5362     249.7339   1413.10303     344.5362     249.7339
   1413.08777     342.0476     248.2668   1413.08777     342.0476     248.2668
   1413.07251     340.6684     247.6239   1413.07251     340.6684     247.6239
   1413.05725     339.3251     246.4496   1413.05725     339.3251     246.4496
   1413.04199     337.1765     245.0737   1413.04199     337.1765     245.0737
   1413.02673     335.9620     244.5697   1413.02673     335.9620     244.5697
   1413.01147     334.0537     243.7095   1413.01147     334.0537     243.7095
   1412.99622     332.9984     242.6973   1412.99622     332.9984     242.6973
   1412.98096     330.2399     241.7709   1412.98096     330.2399     241.7709
   1412.96570     329.1107     240.8819   1412.96570     329.1107     240.8819
   1412.95044     327.7418     240.2843   1412.95044     327.7418     240.2843
   1412.93518     325.6577     239.3529   1412.93518     325.6577     239.3529
   1412.91992     323.8996     238.7029   1412.91992     323.8996     238.7029
   1412.90466     322.5913     237.3604   1412.90466     322.5913     237.3604
   1412.88940     321.3955     236.9666   1412.88940     321.3955     236.9666
   1412.87415     320.1765     235.8999   1412.87415     320.1765     235.8999
   1412.85889     318.5879     235.5868   1412.85889     318.5879     235.5868
   1412.84363     317.2833     234.9787   1412.84363     317.2833     234.9787
   1412.82837     315.7227     234.1414   1412.82837     315.7227     234.1414
   1412.81311     314.6349     233.5003   1412.81311     314.6349     233.5003
   1412.79785     313.2259     232.8211   1412.79785     313.2259     232.8211
   1412.78259     312.4468     232.2612   1412.78259     312.4468     232.2612
   1412.76733     310.8746     232.1613   1412.76733     310.8746     232.1613
   1412.75208     310.1270     231.4294   1412.75208     310.1270     231.4294
   1412.73682     308.7465     230.9964   1412.73682     308.7465     230.9964
   1412.72156     307.1660     230.6560   1412.72156     307.1660     230.6560
   1412.70630     307.0642     230.4085   1412.70630     307.0642     230.4085
   1412.69104     305.7642     229.6699   1412.69104     305.7642     229.6699
   1412.67578     305.0584     228.9570   1412.67578     305.0584     228.9570
   1412.66052     303.7523     228.7286   1412.66052     303.7523     228.7286
   1412.64526     303.0966     228.5180   1412.64526     303.0966     228.5180
   1412.63000     302.4400     228.0627   1412.63000     302.4400     228.0627
   1412.61475     301.1134     228.2757   1412.61475     301.1134     228.2757
   1412.59949     300.7772     227.8333   1412.59949     300.7772     227.8333
   1412.58423     300.1422     227.9771   1412.58423     300.1422     227.9771
   1412.56897     299.3449     227.2439   1412.56897     299.3449     227.2439
   1412.55371     298.7047     227.4152   1412.55371     298.7047     227.4152
   1412.53845     297.8822     227.3669   1412.53845     297.8822     227.3669
   1412.52319     297.6121     227.1896   1412.52319     297.6121     227.1896
   1412.50793     297.3567     227.3848   1412.50793     297.3567     227.3848
   1412.49268     297.3397     227.3516   1412.49268     297.3397     227.3516
   1412.47742     296.5052     226.8559   1412.47742     296.5052     226.8559
   1412.46216     296.4717     227.4659   1412.46216     296.4717     227.4659
   1412.44690     295.9887     227.4029   1412.44690     295.9887     227.4029
   1412.43164     295.5880     227.5298   1412.43164     295.5880     227.5298
   1412.41638     295.3958     227.7734   1412.41638     295.3958     227.7734
   1412.40112     295.6790     227.9509   1412.40112     295.6790     227.9509
   1412.38586     295.0694     228.4648   1412.38586     295.0694     228.4648
   1412.37061     294.7845     228.3509   1412.37061     294.7845     228.3509
   1412.35535     295.2243     228.5543   1412.35535     295.2243     228.5543
   1412.34009     295.1759     229.4679   1412.34009     295.1759     229.4679
   1412.32483     295.2469     229.7400   1412.32483     295.2469     229.7400
   1412.30957     295.0502     230.1926   1412.30957     295.0502     230.1926
   1412.29431     295.2598     230.2453   1412.29431     295.2598     230.2453
   1412.27905     295.6894     230.6836   1412.27905     295.6894     230.6836
   1412.26379     296.3291     231.3763   1412.26379     296.3291     231.3763
   1412.24854     296.1987     232.2307   1412.24854     296.1987     232.2307
   1412.23328     296.4792     232.5253   1412.23328     296.4792     232.5253
   1412.21802     296.3039     233.4736   1412.21802     296.3039     233.4736
   1412.20276     297.3505     233.7281   1412.20276     297.3505     233.7281