#     FILENAME=!Skynet_57528_lach-hhg-104_20358_20911.cyb.fits
#     BASENAME=Skynet_57528_lach-hhg-104_20358_20911
#     SRC_NAME=lach-hhg-104
#     OBSERVER=hhgmadison16_9500
#     DATE_OBS=2016-05-20T15:31:29.750
#        OBSID=20358
#      SCANNUM=20911
#          MJD=57528.6479
#          UTC=55978
#     SCANTYPE=track
#     DATAMODE=HIRES
#     TUNEFREQ=1420.0000
# Actual_FREQ1=1420.0000
# Actual_FREQ2=1420.0000
#    LO1Tuning=6870.000
#     RFFILTER=1355_1435
#        OBSBW=-15.6250
#        NCHAN=1024 
#        FOCUS=37.0709
#           RA=22:23:47.93
#          DEC=57:20:06.40
#      RA(hrs)=22.396600
#     DEC(deg)=57.335100
#    AZIM(deg)=316.123
#    ELEV(deg)=49.502
#     IFattens=11.00, 10.00
#      WARNING=None
#    TCAL_XL1=7.9635
#    TCAL_YR1=9.1340
#    TCAL_XL2=7.9635
#    TCAL_YR2=9.1340
#     TRX_XL1=11.7060
#     TRX_YR1=11.7060
#     TRX_XL2=11.7060
#     TRX_YR2=11.7060
#        TAVE=1.0000
#Freq1(MHz)          XL1          YR1  Freq2(MHz)          XL2          YR2 

   1427.81250     294.7887     228.8961   1427.81250     294.7887     228.8961
   1427.79724     295.6740     229.2554   1427.79724     295.6740     229.2554
   1427.78198     296.4064     230.0647   1427.78198     296.4064     230.0647
   1427.76672     296.8467     230.5537   1427.76672     296.8467     230.5537
   1427.75146     296.9746     230.9803   1427.75146     296.9746     230.9803
   1427.73621     297.8306     232.3263   1427.73621     297.8306     232.3263
   1427.72095     298.5491     232.8000   1427.72095     298.5491     232.8000
   1427.70569     299.3767     233.5993   1427.70569     299.3767     233.5993
   1427.69043     299.7776     234.2924   1427.69043     299.7776     234.2924
   1427.67517     301.6135     235.1098   1427.67517     301.6135     235.1098
   1427.65991     302.0545     235.9990   1427.65991     302.0545     235.9990
   1427.64465     302.8063     236.9171   1427.64465     302.8063     236.9171
   1427.62939     304.0019     238.0251   1427.62939     304.0019     238.0251
   1427.61414     305.4818     238.5353   1427.61414     305.4818     238.5353
   1427.59888     306.1597     239.6242   1427.59888     306.1597     239.6242
   1427.58362     307.1743     240.7146   1427.58362     307.1743     240.7146
   1427.56836     308.3490     241.4410   1427.56836     308.3490     241.4410
   1427.55310     309.3503     242.4763   1427.55310     309.3503     242.4763
   1427.53784     310.2786     243.3832   1427.53784     310.2786     243.3832
   1427.52258     312.0565     244.4056   1427.52258     312.0565     244.4056
   1427.50732     313.2414     245.9450   1427.50732     313.2414     245.9450
   1427.49207     314.9045     246.9174   1427.49207     314.9045     246.9174
   1427.47681     316.0677     248.7415   1427.47681     316.0677     248.7415
   1427.46155     317.5745     249.5900   1427.46155     317.5745     249.5900
   1427.44629     318.7014     250.9788   1427.44629     318.7014     250.9788
   1427.43103     320.3283     251.7558   1427.43103     320.3283     251.7558
   1427.41577     321.8565     253.3175   1427.41577     321.8565     253.3175
   1427.40051     323.0064     254.7888   1427.40051     323.0064     254.7888
   1427.38525     324.8287     255.9594   1427.38525     324.8287     255.9594
   1427.37000     326.5136     257.0930   1427.37000     326.5136     257.0930
   1427.35474     328.0319     258.5153   1427.35474     328.0319     258.5153
   1427.33948     329.6781     260.4304   1427.33948     329.6781     260.4304
   1427.32422     332.0915     261.7272   1427.32422     332.0915     261.7272
   1427.30896     333.0882     262.9310   1427.30896     333.0882     262.9310
   1427.29370     334.9781     264.1259   1427.29370     334.9781     264.1259
   1427.27844     336.9320     265.6796   1427.27844     336.9320     265.6796
   1427.26318     338.7896     267.0510   1427.26318     338.7896     267.0510
   1427.24792     341.0560     268.7165   1427.24792     341.0560     268.7165
   1427.23267     342.4712     270.2841   1427.23267     342.4712     270.2841
   1427.21741     344.0479     271.6615   1427.21741     344.0479     271.6615
   1427.20215     346.4248     273.1174   1427.20215     346.4248     273.1174
   1427.18689     347.5923     275.0927   1427.18689     347.5923     275.0927
   1427.17163     350.2751     276.4507   1427.17163     350.2751     276.4507
   1427.15637     352.6092     278.2124   1427.15637     352.6092     278.2124
   1427.14111     354.1093     280.1122   1427.14111     354.1093     280.1122
   1427.12585     356.2594     281.4057   1427.12585     356.2594     281.4057
   1427.11060     358.0659     283.1033   1427.11060     358.0659     283.1033
   1427.09534     360.2757     284.6834   1427.09534     360.2757     284.6834
   1427.08008     362.1133     286.2303   1427.08008     362.1133     286.2303
   1427.06482     364.7881     288.2086   1427.06482     364.7881     288.2086
   1427.04956     366.1780     290.3203   1427.04956     366.1780     290.3203
   1427.03430     368.9142     291.5615   1427.03430     368.9142     291.5615
   1427.01904     370.7629     293.1269   1427.01904     370.7629     293.1269
   1427.00378     373.0339     295.4174   1427.00378     373.0339     295.4174
   1426.98853     375.5170     296.6646   1426.98853     375.5170     296.6646
   1426.97327     377.3359     299.2939   1426.97327     377.3359     299.2939
   1426.95801     379.4004     300.6053   1426.95801     379.4004     300.6053
   1426.94275     381.9281     302.4126   1426.94275     381.9281     302.4126
   1426.92749     384.1109     304.0368   1426.92749     384.1109     304.0368
   1426.91223     386.1904     306.0233   1426.91223     386.1904     306.0233
   1426.89697     389.0756     307.7432   1426.89697     389.0756     307.7432
   1426.88171     390.8292     309.5105   1426.88171     390.8292     309.5105
   1426.86646     392.8173     310.9247   1426.86646     392.8173     310.9247
   1426.85120     395.4359     313.3730   1426.85120     395.4359     313.3730
   1426.83594     398.1533     314.8345   1426.83594     398.1533     314.8345
   1426.82068     400.7138     317.1888   1426.82068     400.7138     317.1888
   1426.80542     403.2751     318.5027   1426.80542     403.2751     318.5027
   1426.79016     405.1171     320.9570   1426.79016     405.1171     320.9570
   1426.77490     407.0785     322.7976   1426.77490     407.0785     322.7976
   1426.75964     409.4833     324.2337   1426.75964     409.4833     324.2337
   1426.74438     412.7995     325.9873   1426.74438     412.7995     325.9873
   1426.72913     414.3482     327.9326   1426.72913     414.3482     327.9326
   1426.71387     417.4310     329.8405   1426.71387     417.4310     329.8405
   1426.69861     419.3656     331.6415   1426.69861     419.3656     331.6415
   1426.68335     421.3184     333.4212   1426.68335     421.3184     333.4212
   1426.66809     423.8048     335.2825   1426.66809     423.8048     335.2825
   1426.65283     426.0608     337.3062   1426.65283     426.0608     337.3062
   1426.63757     428.2679     339.4111   1426.63757     428.2679     339.4111
   1426.62231     431.2793     341.5147   1426.62231     431.2793     341.5147
   1426.60706     433.0203     342.8806   1426.60706     433.0203     342.8806
   1426.59180     435.7292     344.2838   1426.59180     435.7292     344.2838
   1426.57654     437.4507     346.3768   1426.57654     437.4507     346.3768
   1426.56128     439.8178     348.5744   1426.56128     439.8178     348.5744
   1426.54602     443.1913     349.9994   1426.54602     443.1913     349.9994
   1426.53076     445.3457     351.7016   1426.53076     445.3457     351.7016
   1426.51550     447.2552     353.4279   1426.51550     447.2552     353.4279
   1426.50024     449.2881     355.7440   1426.50024     449.2881     355.7440
   1426.48499     452.0196     357.0045   1426.48499     452.0196     357.0045
   1426.46973     454.0138     359.2569   1426.46973     454.0138     359.2569
   1426.45447     456.6009     360.8351   1426.45447     456.6009     360.8351
   1426.43921     458.0783     362.7624   1426.43921     458.0783     362.7624
   1426.42395     461.6601     364.3289   1426.42395     461.6601     364.3289
   1426.40869     463.4531     366.2315   1426.40869     463.4531     366.2315
   1426.39343     464.9568     367.6463   1426.39343     464.9568     367.6463
   1426.37817     467.7816     368.9994   1426.37817     467.7816     368.9994
   1426.36292     469.3252     371.3234   1426.36292     469.3252     371.3234
   1426.34766     471.7191     372.4818   1426.34766     471.7191     372.4818
   1426.33240     474.3553     374.9474   1426.33240     474.3553     374.9474
   1426.31714     476.8997     376.4806   1426.31714     476.8997     376.4806
   1426.30188     479.2890     378.3545   1426.30188     479.2890     378.3545
   1426.28662     480.8109     380.0988   1426.28662     480.8109     380.0988
   1426.27136     482.0317     381.5767   1426.27136     482.0317     381.5767
   1426.25610     484.8859     383.2394   1426.25610     484.8859     383.2394
   1426.24084     488.2771     385.1204   1426.24084     488.2771     385.1204
   1426.22559     489.3965     386.2729   1426.22559     489.3965     386.2729
   1426.21033     491.1571     388.4452   1426.21033     491.1571     388.4452
   1426.19507     492.8772     389.5014   1426.19507     492.8772     389.5014
   1426.17981     495.1617     391.7227   1426.17981     495.1617     391.7227
   1426.16455     497.7944     392.8637   1426.16455     497.7944     392.8637
   1426.14929     499.2239     394.7894   1426.14929     499.2239     394.7894
   1426.13403     501.0520     396.0664   1426.13403     501.0520     396.0664
   1426.11877     503.1190     397.5032   1426.11877     503.1190     397.5032
   1426.10352     504.9810     399.2501   1426.10352     504.9810     399.2501
   1426.08826     507.1572     400.6891   1426.08826     507.1572     400.6891
   1426.07300     508.6474     402.4469   1426.07300     508.6474     402.4469
   1426.05774     510.2204     403.8702   1426.05774     510.2204     403.8702
   1426.04248     513.1760     406.0082   1426.04248     513.1760     406.0082
   1426.02722     514.9380     407.0495   1426.02722     514.9380     407.0495
   1426.01196     516.2110     408.0948   1426.01196     516.2110     408.0948
   1425.99670     517.3927     409.7010   1425.99670     517.3927     409.7010
   1425.98145     519.9042     411.3125   1425.98145     519.9042     411.3125
   1425.96619     522.0165     412.6199   1425.96619     522.0165     412.6199
   1425.95093     522.7693     413.9668   1425.95093     522.7693     413.9668
   1425.93567     525.0414     415.7287   1425.93567     525.0414     415.7287
   1425.92041     526.2399     416.7847   1425.92041     526.2399     416.7847
   1425.90515     528.1306     419.0297   1425.90515     528.1306     419.0297
   1425.88989     530.3441     419.4120   1425.88989     530.3441     419.4120
   1425.87463     531.2217     421.2531   1425.87463     531.2217     421.2531
   1425.85938     533.8254     422.4265   1425.85938     533.8254     422.4265
   1425.84412     534.9127     423.9469   1425.84412     534.9127     423.9469
   1425.82886     535.6490     425.6996   1425.82886     535.6490     425.6996
   1425.81360     538.1466     425.9118   1425.81360     538.1466     425.9118
   1425.79834     539.5627     426.9049   1425.79834     539.5627     426.9049
   1425.78308     540.9813     429.5456   1425.78308     540.9813     429.5456
   1425.76782     542.1368     429.8166   1425.76782     542.1368     429.8166
   1425.75256     543.5911     432.0104   1425.75256     543.5911     432.0104
   1425.73730     545.0293     433.3418   1425.73730     545.0293     433.3418
   1425.72205     546.5193     433.6588   1425.72205     546.5193     433.6588
   1425.70679     547.3158     435.3791   1425.70679     547.3158     435.3791
   1425.69153     548.6748     436.6409   1425.69153     548.6748     436.6409
   1425.67627     549.3659     437.2099   1425.67627     549.3659     437.2099
   1425.66101     551.4915     439.0541   1425.66101     551.4915     439.0541
   1425.64575     552.3533     440.0837   1425.64575     552.3533     440.0837
   1425.63049     553.7111     441.5208   1425.63049     553.7111     441.5208
   1425.61523     555.1168     442.8198   1425.61523     555.1168     442.8198
   1425.59998     555.6724     444.0847   1425.59998     555.6724     444.0847
   1425.58472     556.4193     444.9405   1425.58472     556.4193     444.9405
   1425.56946     558.8958     446.0770   1425.56946     558.8958     446.0770
   1425.55420     560.2746     447.3073   1425.55420     560.2746     447.3073
   1425.53894     560.8546     449.0107   1425.53894     560.8546     449.0107
   1425.52368     562.6611     449.6302   1425.52368     562.6611     449.6302
   1425.50842     562.1702     450.0493   1425.50842     562.1702     450.0493
   1425.49316     564.7969     451.7258   1425.49316     564.7969     451.7258
   1425.47791     564.4561     452.6771   1425.47791     564.4561     452.6771
   1425.46265     565.4291     453.6181   1425.46265     565.4291     453.6181
   1425.44739     565.7966     454.0282   1425.44739     565.7966     454.0282
   1425.43213     568.3043     455.7029   1425.43213     568.3043     455.7029
   1425.41687     569.8327     456.9724   1425.41687     569.8327     456.9724
   1425.40161     569.1459     458.0599   1425.40161     569.1459     458.0599
   1425.38635     569.7829     458.4480   1425.38635     569.7829     458.4480
   1425.37109     571.0630     459.5121   1425.37109     571.0630     459.5121
   1425.35583     571.9227     459.8913   1425.35583     571.9227     459.8913
   1425.34058     571.4826     461.6468   1425.34058     571.4826     461.6468
   1425.32532     573.1378     462.7663   1425.32532     573.1378     462.7663
   1425.31006     574.3240     462.8578   1425.31006     574.3240     462.8578
   1425.29480     575.3910     463.1702   1425.29480     575.3910     463.1702
   1425.27954     575.5399     464.3080   1425.27954     575.5399     464.3080
   1425.26428     575.7868     466.0538   1425.26428     575.7868     466.0538
   1425.24902     576.6814     467.1631   1425.24902     576.6814     467.1631
   1425.23376     577.5477     467.9865   1425.23376     577.5477     467.9865
   1425.21851     577.5362     468.7199   1425.21851     577.5362     468.7199
   1425.20325     578.4150     469.5215   1425.20325     578.4150     469.5215
   1425.18799     579.7966     470.2099   1425.18799     579.7966     470.2099
   1425.17273     579.4885     471.2275   1425.17273     579.4885     471.2275
   1425.15747     580.9872     471.7188   1425.15747     580.9872     471.7188
   1425.14221     580.7749     473.0983   1425.14221     580.7749     473.0983
   1425.12695     580.8496     473.4546   1425.12695     580.8496     473.4546
   1425.11169     581.4870     474.1169   1425.11169     581.4870     474.1169
   1425.09644     582.3978     474.6993   1425.09644     582.3978     474.6993
   1425.08118     582.5502     475.2515   1425.08118     582.5502     475.2515
   1425.06592     582.5319     476.6975   1425.06592     582.5319     476.6975
   1425.05066     583.6356     477.7072   1425.05066     583.6356     477.7072
   1425.03540     584.6503     477.6543   1425.03540     584.6503     477.6543
   1425.02014     585.1884     479.6325   1425.02014     585.1884     479.6325
   1425.00488     584.8821     479.8876   1425.00488     584.8821     479.8876
   1424.98962     584.3638     479.8218   1424.98962     584.3638     479.8218
   1424.97437     584.5565     480.5260   1424.97437     584.5565     480.5260
   1424.95911     584.7619     482.2125   1424.95911     584.7619     482.2125
   1424.94385     585.2642     482.2399   1424.94385     585.2642     482.2399
   1424.92859     584.9342     483.2599   1424.92859     584.9342     483.2599
   1424.91333     585.9257     483.3621   1424.91333     585.9257     483.3621
   1424.89807     586.5651     483.8766   1424.89807     586.5651     483.8766
   1424.88281     587.1400     484.4629   1424.88281     587.1400     484.4629
   1424.86755     586.6104     485.1224   1424.86755     586.6104     485.1224
   1424.85229     587.4181     486.6195   1424.85229     587.4181     486.6195
   1424.83704     587.4539     486.7059   1424.83704     587.4539     486.7059
   1424.82178     587.8519     487.3365   1424.82178     587.8519     487.3365
   1424.80652     587.6838     487.9808   1424.80652     587.6838     487.9808
   1424.79126     587.3076     488.0285   1424.79126     587.3076     488.0285
   1424.77600     587.6879     488.6712   1424.77600     587.6879     488.6712
   1424.76074     588.1818     489.4117   1424.76074     588.1818     489.4117
   1424.74548     587.7996     490.6664   1424.74548     587.7996     490.6664
   1424.73022     588.3177     491.5302   1424.73022     588.3177     491.5302
   1424.71497     588.8486     490.8158   1424.71497     588.8486     490.8158
   1424.69971     588.0531     491.6884   1424.69971     588.0531     491.6884
   1424.68445     588.6910     492.4662   1424.68445     588.6910     492.4662
   1424.66919     588.7255     492.8757   1424.66919     588.7255     492.8757
   1424.65393     589.0231     493.2879   1424.65393     589.0231     493.2879
   1424.63867     588.5977     493.9386   1424.63867     588.5977     493.9386
   1424.62341     588.2834     493.4900   1424.62341     588.2834     493.4900
   1424.60815     589.3543     494.9168   1424.60815     589.3543     494.9168
   1424.59290     589.4387     495.3772   1424.59290     589.4387     495.3772
   1424.57764     587.7595     495.3684   1424.57764     587.7595     495.3684
   1424.56238     587.3511     496.6440   1424.56238     587.3511     496.6440
   1424.54712     588.5369     496.4112   1424.54712     588.5369     496.4112
   1424.53186     587.8922     497.8829   1424.53186     587.8922     497.8829
   1424.51660     588.9224     496.8210   1424.51660     588.9224     496.8210
   1424.50134     587.9514     497.5220   1424.50134     587.9514     497.5220
   1424.48608     588.9425     498.6667   1424.48608     588.9425     498.6667
   1424.47083     587.7300     498.3199   1424.47083     587.7300     498.3199
   1424.45557     587.7141     500.0023   1424.45557     587.7141     500.0023
   1424.44031     588.1189     499.9401   1424.44031     588.1189     499.9401
   1424.42505     587.8702     499.4326   1424.42505     587.8702     499.4326
   1424.40979     587.3423     500.4139   1424.40979     587.3423     500.4139
   1424.39453     587.5458     500.8507   1424.39453     587.5458     500.8507
   1424.37927     587.3560     500.9694   1424.37927     587.3560     500.9694
   1424.36401     587.7325     501.5431   1424.36401     587.7325     501.5431
   1424.34875     587.2924     501.6171   1424.34875     587.2924     501.6171
   1424.33350     586.3923     502.4749   1424.33350     586.3923     502.4749
   1424.31824     587.5761     502.3094   1424.31824     587.5761     502.3094
   1424.30298     586.9584     502.6569   1424.30298     586.9584     502.6569
   1424.28772     587.0637     503.3962   1424.28772     587.0637     503.3962
   1424.27246     588.2422     503.4677   1424.27246     588.2422     503.4677
   1424.25720     587.3772     504.1602   1424.25720     587.3772     504.1602
   1424.24194     586.5887     503.8882   1424.24194     586.5887     503.8882
   1424.22668     586.1587     504.5889   1424.22668     586.1587     504.5889
   1424.21143     586.0803     504.7907   1424.21143     586.0803     504.7907
   1424.19617     586.3049     505.5703   1424.19617     586.3049     505.5703
   1424.18091     586.3530     505.6105   1424.18091     586.3530     505.6105
   1424.16565     586.4003     506.1977   1424.16565     586.4003     506.1977
   1424.15039     586.1548     506.4129   1424.15039     586.1548     506.4129
   1424.13513     585.4694     505.8567   1424.13513     585.4694     505.8567
   1424.11987     585.9666     507.0478   1424.11987     585.9666     507.0478
   1424.10461     585.9229     507.3328   1424.10461     585.9229     507.3328
   1424.08936     585.0704     506.7982   1424.08936     585.0704     506.7982
   1424.07410     584.8787     507.4720   1424.07410     584.8787     507.4720
   1424.05884     584.9798     507.7015   1424.05884     584.9798     507.7015
   1424.04358     585.4800     507.4224   1424.04358     585.4800     507.4224
   1424.02832     584.0558     508.6154   1424.02832     584.0558     508.6154
   1424.01306     585.3783     508.9795   1424.01306     585.3783     508.9795
   1423.99780     584.8541     508.9493   1423.99780     584.8541     508.9493
   1423.98254     583.5532     509.6452   1423.98254     583.5532     509.6452
   1423.96729     584.5894     508.7577   1423.96729     584.5894     508.7577
   1423.95203     584.3704     510.0602   1423.95203     584.3704     510.0602
   1423.93677     583.9819     509.8250   1423.93677     583.9819     509.8250
   1423.92151     583.7050     510.1360   1423.92151     583.7050     510.1360
   1423.90625     582.6935     510.2153   1423.90625     582.6935     510.2153
   1423.89099     582.7334     510.4597   1423.89099     582.7334     510.4597
   1423.87573     582.8186     510.4601   1423.87573     582.8186     510.4601
   1423.86047     582.9241     511.0331   1423.86047     582.9241     511.0331
   1423.84521     583.5961     510.6478   1423.84521     583.5961     510.6478
   1423.82996     581.9956     511.3294   1423.82996     581.9956     511.3294
   1423.81470     581.9095     511.7154   1423.81470     581.9095     511.7154
   1423.79944     581.5522     511.9072   1423.79944     581.5522     511.9072
   1423.78418     582.2148     511.7878   1423.78418     582.2148     511.7878
   1423.76892     581.8926     511.0364   1423.76892     581.8926     511.0364
   1423.75366     581.5002     512.5397   1423.75366     581.5002     512.5397
   1423.73840     581.1760     512.1224   1423.73840     581.1760     512.1224
   1423.72314     581.5500     511.0997   1423.72314     581.5500     511.0997
   1423.70789     580.9730     512.1794   1423.70789     580.9730     512.1794
   1423.69263     580.7393     512.0723   1423.69263     580.7393     512.0723
   1423.67737     580.6970     511.4673   1423.67737     580.6970     511.4673
   1423.66211     580.9129     511.6879   1423.66211     580.9129     511.6879
   1423.64685     580.7849     512.7474   1423.64685     580.7849     512.7474
   1423.63159     580.3956     512.7836   1423.63159     580.3956     512.7836
   1423.61633     579.7975     513.1049   1423.61633     579.7975     513.1049
   1423.60107     579.7004     512.3173   1423.60107     579.7004     512.3173
   1423.58582     580.3878     513.3952   1423.58582     580.3878     513.3952
   1423.57056     579.6025     512.6647   1423.57056     579.6025     512.6647
   1423.55530     579.4445     512.8148   1423.55530     579.4445     512.8148
   1423.54004     579.1140     512.4035   1423.54004     579.1140     512.4035
   1423.52478     577.8045     513.6292   1423.52478     577.8045     513.6292
   1423.50952     578.3076     512.2761   1423.50952     578.3076     512.2761
   1423.49426     578.8455     513.1246   1423.49426     578.8455     513.1246
   1423.47900     578.6722     512.7250   1423.47900     578.6722     512.7250
   1423.46375     578.7997     512.9821   1423.46375     578.7997     512.9821
   1423.44849     578.1102     512.9173   1423.44849     578.1102     512.9173
   1423.43323     577.4169     511.9101   1423.43323     577.4169     511.9101
   1423.41797     577.5671     511.8615   1423.41797     577.5671     511.8615
   1423.40271     577.6938     512.3168   1423.40271     577.6938     512.3168
   1423.38745     577.7026     513.3608   1423.38745     577.7026     513.3608
   1423.37219     578.2122     511.4056   1423.37219     578.2122     511.4056
   1423.35693     577.5485     512.3962   1423.35693     577.5485     512.3962
   1423.34167     577.6977     512.5707   1423.34167     577.6977     512.5707
   1423.32642     577.5312     512.0019   1423.32642     577.5312     512.0019
   1423.31116     576.0455     511.9289   1423.31116     576.0455     511.9289
   1423.29590     577.1057     511.8958   1423.29590     577.1057     511.8958
   1423.28064     576.1323     512.2539   1423.28064     576.1323     512.2539
   1423.26538     575.9216     511.0636   1423.26538     575.9216     511.0636
   1423.25012     576.2655     511.1801   1423.25012     576.2655     511.1801
   1423.23486     576.6073     510.4641   1423.23486     576.6073     510.4641
   1423.21960     575.7132     511.4848   1423.21960     575.7132     511.4848
   1423.20435     575.6167     510.7282   1423.20435     575.6167     510.7282
   1423.18909     576.4342     510.7086   1423.18909     576.4342     510.7086
   1423.17383     575.6523     510.3457   1423.17383     575.6523     510.3457
   1423.15857     575.6711     510.1945   1423.15857     575.6711     510.1945
   1423.14331     575.6107     509.9808   1423.14331     575.6107     509.9808
   1423.12805     575.5359     509.3244   1423.12805     575.5359     509.3244
   1423.11279     575.4736     509.6599   1423.11279     575.4736     509.6599
   1423.09753     574.4875     509.4547   1423.09753     574.4875     509.4547
   1423.08228     574.9950     508.8940   1423.08228     574.9950     508.8940
   1423.06702     573.5665     507.7248   1423.06702     573.5665     507.7248
   1423.05176     574.7454     508.2997   1423.05176     574.7454     508.2997
   1423.03650     575.2090     507.8474   1423.03650     575.2090     507.8474
   1423.02124     574.9067     506.9712   1423.02124     574.9067     506.9712
   1423.00598     574.9250     507.3130   1423.00598     574.9250     507.3130
   1422.99072     574.2915     506.6131   1422.99072     574.2915     506.6131
   1422.97546     574.3881     506.8336   1422.97546     574.3881     506.8336
   1422.96021     574.1538     506.2675   1422.96021     574.1538     506.2675
   1422.94495     574.0787     506.5727   1422.94495     574.0787     506.5727
   1422.92969     573.2019     505.9223   1422.92969     573.2019     505.9223
   1422.91443     575.0271     505.2459   1422.91443     575.0271     505.2459
   1422.89917     573.6370     505.1342   1422.89917     573.6370     505.1342
   1422.88391     574.3683     503.8742   1422.88391     574.3683     503.8742
   1422.86865     574.1520     503.2634   1422.86865     574.1520     503.2634
   1422.85339     573.6682     503.2394   1422.85339     573.6682     503.2394
   1422.83813     573.5593     503.0429   1422.83813     573.5593     503.0429
   1422.82288     573.1663     502.6917   1422.82288     573.1663     502.6917
   1422.80762     574.1675     502.5799   1422.80762     574.1675     502.5799
   1422.79236     573.5068     501.0251   1422.79236     573.5068     501.0251
   1422.77710     573.7909     501.0506   1422.77710     573.7909     501.0506
   1422.76184     572.9866     500.3699   1422.76184     572.9866     500.3699
   1422.74658     572.5078     499.9961   1422.74658     572.5078     499.9961
   1422.73132     573.1120     499.0388   1422.73132     573.1120     499.0388
   1422.71606     573.0516     498.8676   1422.71606     573.0516     498.8676
   1422.70081     573.1217     498.0128   1422.70081     573.1217     498.0128
   1422.68555     572.8835     497.3716   1422.68555     572.8835     497.3716
   1422.67029     571.9799     497.4704   1422.67029     571.9799     497.4704
   1422.65503     571.7813     496.6988   1422.65503     571.7813     496.6988
   1422.63977     572.8547     495.9226   1422.63977     572.8547     495.9226
   1422.62451     572.4989     495.3916   1422.62451     572.4989     495.3916
   1422.60925     572.6458     494.4700   1422.60925     572.6458     494.4700
   1422.59399     571.8697     494.3071   1422.59399     571.8697     494.3071
   1422.57874     572.4470     493.1068   1422.57874     572.4470     493.1068
   1422.56348     571.8592     492.3737   1422.56348     571.8592     492.3737
   1422.54822     571.6735     492.3356   1422.54822     571.6735     492.3356
   1422.53296     571.2092     491.2531   1422.53296     571.2092     491.2531
   1422.51770     571.9263     490.7638   1422.51770     571.9263     490.7638
   1422.50244     571.5261     490.4783   1422.50244     571.5261     490.4783
   1422.48718     570.2213     489.2708   1422.48718     570.2213     489.2708
   1422.47192     571.0916     488.8438   1422.47192     571.0916     488.8438
   1422.45667     570.7611     487.5812   1422.45667     570.7611     487.5812
   1422.44141     570.4679     486.9019   1422.44141     570.4679     486.9019
   1422.42615     571.4001     487.1813   1422.42615     571.4001     487.1813
   1422.41089     570.8824     485.7165   1422.41089     570.8824     485.7165
   1422.39563     570.5059     485.3712   1422.39563     570.5059     485.3712
   1422.38037     570.6904     485.1258   1422.38037     570.6904     485.1258
   1422.36511     571.2728     483.0724   1422.36511     571.2728     483.0724
   1422.34985     569.1144     482.9423   1422.34985     569.1144     482.9423
   1422.33459     570.2042     482.2199   1422.33459     570.2042     482.2199
   1422.31934     571.3785     481.2427   1422.31934     571.3785     481.2427
   1422.30408     570.4377     480.3675   1422.30408     570.4377     480.3675
   1422.28882     570.2382     478.8970   1422.28882     570.2382     478.8970
   1422.27356     569.7350     479.2222   1422.27356     569.7350     479.2222
   1422.25830     569.7357     478.0120   1422.25830     569.7357     478.0120
   1422.24304     568.8506     478.2599   1422.24304     568.8506     478.2599
   1422.22778     569.8182     476.3392   1422.22778     569.8182     476.3392
   1422.21252     569.3311     476.0924   1422.21252     569.3311     476.0924
   1422.19727     569.5310     474.1857   1422.19727     569.5310     474.1857
   1422.18201     568.5240     474.9248   1422.18201     568.5240     474.9248
   1422.16675     569.3823     472.8919   1422.16675     569.3823     472.8919
   1422.15149     570.6116     472.1590   1422.15149     570.6116     472.1590
   1422.13623     568.6902     470.5943   1422.13623     568.6902     470.5943
   1422.12097     569.5109     470.2633   1422.12097     569.5109     470.2633
   1422.10571     568.6919     470.3369   1422.10571     568.6919     470.3369
   1422.09045     568.8738     468.2592   1422.09045     568.8738     468.2592
   1422.07520     567.8812     467.4712   1422.07520     567.8812     467.4712
   1422.05994     568.5292     467.1039   1422.05994     568.5292     467.1039
   1422.04468     567.8838     465.7971   1422.04468     567.8838     465.7971
   1422.02942     567.6855     464.7129   1422.02942     567.6855     464.7129
   1422.01416     568.5110     464.4387   1422.01416     568.5110     464.4387
   1421.99890     568.6801     462.9924   1421.99890     568.6801     462.9924
   1421.98364     568.1351     461.7773   1421.98364     568.1351     461.7773
   1421.96838     568.0078     460.3159   1421.96838     568.0078     460.3159
   1421.95312     567.3456     460.8182   1421.95312     567.3456     460.8182
   1421.93787     567.0563     458.7319   1421.93787     567.0563     458.7319
   1421.92261     567.7770     458.9423   1421.92261     567.7770     458.9423
   1421.90735     568.3348     457.5141   1421.90735     568.3348     457.5141
   1421.89209     567.1558     456.1547   1421.89209     567.1558     456.1547
   1421.87683     566.6172     455.5935   1421.87683     566.6172     455.5935
   1421.86157     566.2583     454.9180   1421.86157     566.2583     454.9180
   1421.84631     566.3607     453.7047   1421.84631     566.3607     453.7047
   1421.83105     566.8205     452.6556   1421.83105     566.8205     452.6556
   1421.81580     566.3973     451.3399   1421.81580     566.3973     451.3399
   1421.80054     566.0802     450.6155   1421.80054     566.0802     450.6155
   1421.78528     565.5289     449.6137   1421.78528     565.5289     449.6137
   1421.77002     566.2604     448.2230   1421.77002     566.2604     448.2230
   1421.75476     566.4300     448.0050   1421.75476     566.4300     448.0050
   1421.73950     566.1927     446.2488   1421.73950     566.1927     446.2488
   1421.72424     565.3650     445.2278   1421.72424     565.3650     445.2278
   1421.70898     565.7330     444.3781   1421.70898     565.7330     444.3781
   1421.69373     564.9406     442.7764   1421.69373     564.9406     442.7764
   1421.67847     563.7462     442.1413   1421.67847     563.7462     442.1413
   1421.66321     564.4450     440.9839   1421.66321     564.4450     440.9839
   1421.64795     563.8739     439.9658   1421.64795     563.8739     439.9658
   1421.63269     564.3156     438.9046   1421.63269     564.3156     438.9046
   1421.61743     564.3913     438.0713   1421.61743     564.3913     438.0713
   1421.60217     564.6426     437.6489   1421.60217     564.6426     437.6489
   1421.58691     564.4271     436.2085   1421.58691     564.4271     436.2085
   1421.57166     563.9442     435.6239   1421.57166     563.9442     435.6239
   1421.55640     563.7045     433.4296   1421.55640     563.7045     433.4296
   1421.54114     562.9356     433.2279   1421.54114     562.9356     433.2279
   1421.52588     564.0900     432.4506   1421.52588     564.0900     432.4506
   1421.51062     562.9887     431.5071   1421.51062     562.9887     431.5071
   1421.49536     562.9317     430.5426   1421.49536     562.9317     430.5426
   1421.48010     562.7701     428.7749   1421.48010     562.7701     428.7749
   1421.46484     563.3787     427.6863   1421.46484     563.3787     427.6863
   1421.44958     563.3450     427.0938   1421.44958     563.3450     427.0938
   1421.43433     562.1182     425.9293   1421.43433     562.1182     425.9293
   1421.41907     561.3151     424.1557   1421.41907     561.3151     424.1557
   1421.40381     562.7765     423.6375   1421.40381     562.7765     423.6375
   1421.38855     561.6069     421.9571   1421.38855     561.6069     421.9571
   1421.37329     562.2800     421.6714   1421.37329     562.2800     421.6714
   1421.35803     562.2032     421.2493   1421.35803     562.2032     421.2493
   1421.34277     561.6121     419.8592   1421.34277     561.6121     419.8592
   1421.32751     562.1321     418.1012   1421.32751     562.1321     418.1012
   1421.31226     561.8711     418.0515   1421.31226     561.8711     418.0515
   1421.29700     562.0046     417.0471   1421.29700     562.0046     417.0471
   1421.28174     562.0389     416.5593   1421.28174     562.0389     416.5593
   1421.26648     562.8925     415.5421   1421.26648     562.8925     415.5421
   1421.25122     562.9525     415.7914   1421.25122     562.9525     415.7914
   1421.23596     562.6520     415.3318   1421.23596     562.6520     415.3318
   1421.22070     563.8728     414.2086   1421.22070     563.8728     414.2086
   1421.20544     565.1526     413.7690   1421.20544     565.1526     413.7690
   1421.19019     566.2722     414.6655   1421.19019     566.2722     414.6655
   1421.17493     568.3998     414.8933   1421.17493     568.3998     414.8933
   1421.15967     569.2811     414.3726   1421.15967     569.2811     414.3726
   1421.14441     569.6491     413.6510   1421.14441     569.6491     413.6510
   1421.12915     569.9403     412.6277   1421.12915     569.9403     412.6277
   1421.11389     571.8463     412.9194   1421.11389     571.8463     412.9194
   1421.09863     576.0674     415.2291   1421.09863     576.0674     415.2291
   1421.08337     582.6145     419.2682   1421.08337     582.6145     419.2682
   1421.06812     593.6275     426.0245   1421.06812     593.6275     426.0245
   1421.05286     612.3048     438.3343   1421.05286     612.3048     438.3343
   1421.03760     642.5563     459.9419   1421.03760     642.5563     459.9419
   1421.02234     676.2892     481.4237   1421.02234     676.2892     481.4237
   1421.00708     684.9265     486.6651   1421.00708     684.9265     486.6651
   1420.99182     690.0262     488.9601   1420.99182     690.0262     488.9601
   1420.97656     693.2430     489.6866   1420.97656     693.2430     489.6866
   1420.96130     693.7489     488.8163   1420.96130     693.7489     488.8163
   1420.94604     678.4689     477.5865   1420.94604     678.4689     477.5865
   1420.93079     659.8113     464.0202   1420.93079     659.8113     464.0202
   1420.91553     651.3616     455.9166   1420.91553     651.3616     455.9166
   1420.90027     652.7506     456.3858   1420.90027     652.7506     456.3858
   1420.88501     674.2167     470.3707   1420.88501     674.2167     470.3707
   1420.86975     726.9101     505.4565   1420.86975     726.9101     505.4565
   1420.85449     860.0654     594.9033   1420.85449     860.0654     594.9033
   1420.83923    1138.6786     779.8889   1420.83923    1138.6786     779.8889
   1420.82397    1355.6602     924.8463   1420.82397    1355.6602     924.8463
   1420.80872    1414.6392     962.6182   1420.80872    1414.6392     962.6182
   1420.79346    1448.6492     986.1097   1420.79346    1448.6492     986.1097
   1420.77820    1600.7911    1083.4663   1420.77820    1600.7911    1083.4663
   1420.76294    1753.4816    1181.8898   1420.76294    1753.4816    1181.8898
   1420.74768    1778.8253    1194.0247   1420.74768    1778.8253    1194.0247
   1420.73242    1571.3359    1053.3848   1420.73242    1571.3359    1053.3848
   1420.71716    1295.6880     871.4167   1420.71716    1295.6880     871.4167
   1420.70190    1251.0968     839.0010   1420.70190    1251.0968     839.0010
   1420.68665    1122.8063     753.1709   1420.68665    1122.8063     753.1709
   1420.67139     931.5822     625.7190   1420.67139     931.5822     625.7190
   1420.65613     856.5327     575.9955   1420.65613     856.5327     575.9955
   1420.64087     866.6912     582.5502   1420.64087     866.6912     582.5502
   1420.62561     949.1283     636.7500   1420.62561     949.1283     636.7500
   1420.61035     982.8170     658.2854   1420.61035     982.8170     658.2854
   1420.59509     992.6566     662.5104   1420.59509     992.6566     662.5104
   1420.57983     975.7911     648.3739   1420.57983     975.7911     648.3739
   1420.56458    1081.2919     714.7552   1420.56458    1081.2919     714.7552
   1420.54932    1238.0116     815.3458   1420.54932    1238.0116     815.3458
   1420.53406    1353.5294     889.8480   1420.53406    1353.5294     889.8480
   1420.51880    1522.9153    1000.5090   1420.51880    1522.9153    1000.5090
   1420.50354    1459.0347     954.5109   1420.50354    1459.0347     954.5109
   1420.48828    1045.0144     686.7681   1420.48828    1045.0144     686.7681
   1420.47302     782.7755     516.4135   1420.47302     782.7755     516.4135
   1420.45776     673.6702     445.0148   1420.45776     673.6702     445.0148
   1420.44250     616.9760     408.1674   1420.44250     616.9760     408.1674
   1420.42725     588.3184     389.0962   1420.42725     588.3184     389.0962
   1420.41199     573.2831     378.1492   1420.41199     573.2831     378.1492
   1420.39673     563.9963     372.5755   1420.39673     563.9963     372.5755
   1420.38147     559.9960     368.9715   1420.38147     559.9960     368.9715
   1420.36621     557.8300     367.3548   1420.36621     557.8300     367.3548
   1420.35095     556.1771     365.4805   1420.35095     556.1771     365.4805
   1420.33569     556.1195     364.7359   1420.33569     556.1195     364.7359
   1420.32043     555.3259     363.9893   1420.32043     555.3259     363.9893
   1420.30518     554.5614     363.4299   1420.30518     554.5614     363.4299
   1420.28992     554.8075     361.8184   1420.28992     554.8075     361.8184
   1420.27466     553.1765     361.0563   1420.27466     553.1765     361.0563
   1420.25940     553.3381     360.0179   1420.25940     553.3381     360.0179
   1420.24414     553.8000     359.6061   1420.24414     553.8000     359.6061
   1420.22888     553.0509     358.6456   1420.22888     553.0509     358.6456
   1420.21362     552.3698     357.8126   1420.21362     552.3698     357.8126
   1420.19836     551.6730     356.9456   1420.19836     551.6730     356.9456
   1420.18311     550.6969     356.0765   1420.18311     550.6969     356.0765
   1420.16785     550.8564     354.3577   1420.16785     550.8564     354.3577
   1420.15259     550.3054     353.8411   1420.15259     550.3054     353.8411
   1420.13733     548.2820     353.3586   1420.13733     548.2820     353.3586
   1420.12207     547.8679     352.1370   1420.12207     547.8679     352.1370
   1420.10681     548.3558     351.6175   1420.10681     548.3558     351.6175
   1420.09155     548.3521     350.8735   1420.09155     548.3521     350.8735
   1420.07629     546.8671     350.3713   1420.07629     546.8671     350.3713
   1420.06104     547.0629     349.7646   1420.06104     547.0629     349.7646
   1420.04578     547.4055     348.9822   1420.04578     547.4055     348.9822
   1420.03052     547.5959     348.2747   1420.03052     547.5959     348.2747
   1420.01526     548.1644     348.5709   1420.01526     548.1644     348.5709
   1420.00000     548.6575     349.6860   1420.00000     548.6575     349.6860
   1419.98474     549.1506     350.8011   1419.98474     549.1506     350.8011
   1419.96948     548.6140     348.2193   1419.96948     548.6140     348.2193
   1419.95422     546.3271     346.1445   1419.95422     546.3271     346.1445
   1419.93896     546.7072     345.6715   1419.93896     546.7072     345.6715
   1419.92371     546.4291     344.9995   1419.92371     546.4291     344.9995
   1419.90845     546.7499     344.6623   1419.90845     546.7499     344.6623
   1419.89319     546.7360     344.3350   1419.89319     546.7360     344.3350
   1419.87793     546.6866     344.3195   1419.87793     546.6866     344.3195
   1419.86267     547.4105     343.7062   1419.86267     547.4105     343.7062
   1419.84741     546.9678     343.6523   1419.84741     546.9678     343.6523
   1419.83215     546.5566     342.9355   1419.83215     546.5566     342.9355
   1419.81689     547.1738     342.9640   1419.81689     547.1738     342.9640
   1419.80164     546.4042     342.8613   1419.80164     546.4042     342.8613
   1419.78638     546.7939     342.5700   1419.78638     546.7939     342.5700
   1419.77112     547.1192     342.1186   1419.77112     547.1192     342.1186
   1419.75586     548.0682     341.9496   1419.75586     548.0682     341.9496
   1419.74060     547.5366     341.2538   1419.74060     547.5366     341.2538
   1419.72534     547.1761     341.4394   1419.72534     547.1761     341.4394
   1419.71008     547.9128     341.3996   1419.71008     547.9128     341.3996
   1419.69482     547.0865     340.9652   1419.69482     547.0865     340.9652
   1419.67957     548.2343     341.0828   1419.67957     548.2343     341.0828
   1419.66431     548.4113     340.3170   1419.66431     548.4113     340.3170
   1419.64905     548.5703     340.5208   1419.64905     548.5703     340.5208
   1419.63379     549.0150     339.8654   1419.63379     549.0150     339.8654
   1419.61853     549.3450     340.1165   1419.61853     549.3450     340.1165
   1419.60327     548.9645     339.8534   1419.60327     548.9645     339.8534
   1419.58801     549.3987     340.0847   1419.58801     549.3987     340.0847
   1419.57275     549.9623     339.5107   1419.57275     549.9623     339.5107
   1419.55750     550.3095     340.1107   1419.55750     550.3095     340.1107
   1419.54224     550.4329     339.1904   1419.54224     550.4329     339.1904
   1419.52698     550.1072     339.4602   1419.52698     550.1072     339.4602
   1419.51172     548.9127     339.3203   1419.51172     548.9127     339.3203
   1419.49646     549.8608     339.0297   1419.49646     549.8608     339.0297
   1419.48120     550.2899     339.6130   1419.48120     550.2899     339.6130
   1419.46594     551.2558     339.3141   1419.46594     551.2558     339.3141
   1419.45068     552.0203     338.9652   1419.45068     552.0203     338.9652
   1419.43542     551.0667     339.4008   1419.43542     551.0667     339.4008
   1419.42017     550.9828     338.9931   1419.42017     550.9828     338.9931
   1419.40491     552.4254     339.0366   1419.40491     552.4254     339.0366
   1419.38965     551.7047     338.6984   1419.38965     551.7047     338.6984
   1419.37439     552.4665     339.0316   1419.37439     552.4665     339.0316
   1419.35913     552.3432     338.7478   1419.35913     552.3432     338.7478
   1419.34387     552.9031     338.9718   1419.34387     552.9031     338.9718
   1419.32861     554.2209     338.7523   1419.32861     554.2209     338.7523
   1419.31335     553.0632     339.6486   1419.31335     553.0632     339.6486
   1419.29810     553.8955     339.7177   1419.29810     553.8955     339.7177
   1419.28284     554.0929     339.2665   1419.28284     554.0929     339.2665
   1419.26758     554.1220     339.7017   1419.26758     554.1220     339.7017
   1419.25232     554.7730     339.3041   1419.25232     554.7730     339.3041
   1419.23706     555.2487     339.3776   1419.23706     555.2487     339.3776
   1419.22180     555.1274     339.7739   1419.22180     555.1274     339.7739
   1419.20654     556.0912     340.1270   1419.20654     556.0912     340.1270
   1419.19128     555.6495     340.1052   1419.19128     555.6495     340.1052
   1419.17603     556.4752     339.8285   1419.17603     556.4752     339.8285
   1419.16077     556.7148     340.4036   1419.16077     556.7148     340.4036
   1419.14551     556.8126     340.5240   1419.14551     556.8126     340.5240
   1419.13025     557.7510     340.6798   1419.13025     557.7510     340.6798
   1419.11499     558.5370     340.9001   1419.11499     558.5370     340.9001
   1419.09973     558.0088     341.1296   1419.09973     558.0088     341.1296
   1419.08447     559.1268     341.0873   1419.08447     559.1268     341.0873
   1419.06921     559.4265     341.5889   1419.06921     559.4265     341.5889
   1419.05396     559.5307     341.5155   1419.05396     559.5307     341.5155
   1419.03870     559.1052     341.7097   1419.03870     559.1052     341.7097
   1419.02344     561.4394     342.0347   1419.02344     561.4394     342.0347
   1419.00818     560.0734     342.4211   1419.00818     560.0734     342.4211
   1418.99292     561.3517     342.6470   1418.99292     561.3517     342.6470
   1418.97766     561.1781     342.7616   1418.97766     561.1781     342.7616
   1418.96240     562.6179     343.4944   1418.96240     562.6179     343.4944
   1418.94714     562.9155     343.2191   1418.94714     562.9155     343.2191
   1418.93188     562.1075     344.2467   1418.93188     562.1075     344.2467
   1418.91663     562.7295     344.1004   1418.91663     562.7295     344.1004
   1418.90137     564.4728     344.3751   1418.90137     564.4728     344.3751
   1418.88611     565.4330     344.6018   1418.88611     565.4330     344.6018
   1418.87085     564.8044     344.6608   1418.87085     564.8044     344.6608
   1418.85559     565.2877     345.4297   1418.85559     565.2877     345.4297
   1418.84033     564.8876     345.6693   1418.84033     564.8876     345.6693
   1418.82507     565.3970     346.2215   1418.82507     565.3970     346.2215
   1418.80981     566.8609     346.5861   1418.80981     566.8609     346.5861
   1418.79456     566.6846     347.1679   1418.79456     566.6846     347.1679
   1418.77930     568.2430     347.1476   1418.77930     568.2430     347.1476
   1418.76404     569.1315     348.0002   1418.76404     569.1315     348.0002
   1418.74878     568.4537     347.6923   1418.74878     568.4537     347.6923
   1418.73352     569.7840     348.6503   1418.73352     569.7840     348.6503
   1418.71826     569.9005     348.7820   1418.71826     569.9005     348.7820
   1418.70300     570.5963     349.6685   1418.70300     570.5963     349.6685
   1418.68774     570.7573     349.6665   1418.68774     570.7573     349.6665
   1418.67249     571.2807     350.3668   1418.67249     571.2807     350.3668
   1418.65723     571.5910     350.7252   1418.65723     571.5910     350.7252
   1418.64197     572.5742     351.3832   1418.64197     572.5742     351.3832
   1418.62671     573.3090     351.3777   1418.62671     573.3090     351.3777
   1418.61145     574.0050     352.0996   1418.61145     574.0050     352.0996
   1418.59619     573.3488     352.3146   1418.59619     573.3488     352.3146
   1418.58093     573.7676     353.0441   1418.58093     573.7676     353.0441
   1418.56567     575.6303     353.3979   1418.56567     575.6303     353.3979
   1418.55042     575.8984     354.4713   1418.55042     575.8984     354.4713
   1418.53516     575.6633     354.7412   1418.53516     575.6633     354.7412
   1418.51990     576.3509     355.3914   1418.51990     576.3509     355.3914
   1418.50464     577.8073     355.5761   1418.50464     577.8073     355.5761
   1418.48938     578.4453     356.1445   1418.48938     578.4453     356.1445
   1418.47412     578.7868     355.9457   1418.47412     578.7868     355.9457
   1418.45886     579.7653     357.7076   1418.45886     579.7653     357.7076
   1418.44360     580.6844     358.5551   1418.44360     580.6844     358.5551
   1418.42834     581.0621     358.0363   1418.42834     581.0621     358.0363
   1418.41309     581.8737     358.7655   1418.41309     581.8737     358.7655
   1418.39783     582.0449     359.8447   1418.39783     582.0449     359.8447
   1418.38257     583.4166     360.0472   1418.38257     583.4166     360.0472
   1418.36731     584.1796     360.2448   1418.36731     584.1796     360.2448
   1418.35205     584.4240     361.3654   1418.35205     584.4240     361.3654
   1418.33679     584.8560     361.5921   1418.33679     584.8560     361.5921
   1418.32153     585.9710     362.3107   1418.32153     585.9710     362.3107
   1418.30627     585.8688     363.0099   1418.30627     585.8688     363.0099
   1418.29102     586.7465     363.8294   1418.29102     586.7465     363.8294
   1418.27576     586.6094     364.7199   1418.27576     586.6094     364.7199
   1418.26050     587.5236     364.6389   1418.26050     587.5236     364.6389
   1418.24524     587.6661     365.3298   1418.24524     587.6661     365.3298
   1418.22998     589.0524     366.3635   1418.22998     589.0524     366.3635
   1418.21472     589.6752     366.7535   1418.21472     589.6752     366.7535
   1418.19946     590.3910     367.5555   1418.19946     590.3910     367.5555
   1418.18420     591.0514     368.0202   1418.18420     591.0514     368.0202
   1418.16895     592.1502     368.6945   1418.16895     592.1502     368.6945
   1418.15369     592.6273     370.1128   1418.15369     592.6273     370.1128
   1418.13843     594.3825     370.4109   1418.13843     594.3825     370.4109
   1418.12317     594.1992     371.2537   1418.12317     594.1992     371.2537
   1418.10791     595.0236     372.3441   1418.10791     595.0236     372.3441
   1418.09265     595.4050     372.1425   1418.09265     595.4050     372.1425
   1418.07739     595.7623     372.6652   1418.07739     595.7623     372.6652
   1418.06213     598.2158     373.5622   1418.06213     598.2158     373.5622
   1418.04688     597.1329     374.9788   1418.04688     597.1329     374.9788
   1418.03162     598.7632     375.2638   1418.03162     598.7632     375.2638
   1418.01636     600.1630     375.5130   1418.01636     600.1630     375.5130
   1418.00110     600.0836     376.7191   1418.00110     600.0836     376.7191
   1417.98584     601.1874     376.8367   1417.98584     601.1874     376.8367
   1417.97058     600.8786     378.2869   1417.97058     600.8786     378.2869
   1417.95532     602.4880     379.3961   1417.95532     602.4880     379.3961
   1417.94006     602.8507     379.3987   1417.94006     602.8507     379.3987
   1417.92480     603.5327     380.0152   1417.92480     603.5327     380.0152
   1417.90955     604.2534     381.3321   1417.90955     604.2534     381.3321
   1417.89429     605.5547     381.6885   1417.89429     605.5547     381.6885
   1417.87903     606.6383     382.3741   1417.87903     606.6383     382.3741
   1417.86377     605.9686     383.6383   1417.86377     605.9686     383.6383
   1417.84851     607.6897     383.6579   1417.84851     607.6897     383.6579
   1417.83325     608.6899     384.4717   1417.83325     608.6899     384.4717
   1417.81799     608.0276     385.5362   1417.81799     608.0276     385.5362
   1417.80273     608.9880     385.6838   1417.80273     608.9880     385.6838
   1417.78748     609.6898     386.3648   1417.78748     609.6898     386.3648
   1417.77222     610.8438     386.6743   1417.77222     610.8438     386.6743
   1417.75696     611.7220     388.1253   1417.75696     611.7220     388.1253
   1417.74170     612.8331     388.7912   1417.74170     612.8331     388.7912
   1417.72644     613.1129     389.9348   1417.72644     613.1129     389.9348
   1417.71118     613.5338     390.6568   1417.71118     613.5338     390.6568
   1417.69592     615.0106     391.4555   1417.69592     615.0106     391.4555
   1417.68066     615.6331     392.1665   1417.68066     615.6331     392.1665
   1417.66541     616.1730     392.8304   1417.66541     616.1730     392.8304
   1417.65015     616.7654     393.1491   1417.65015     616.7654     393.1491
   1417.63489     618.5970     394.6087   1417.63489     618.5970     394.6087
   1417.61963     618.2148     395.0304   1417.61963     618.2148     395.0304
   1417.60437     619.6615     395.9655   1417.60437     619.6615     395.9655
   1417.58911     620.1827     396.3501   1417.58911     620.1827     396.3501
   1417.57385     620.1996     396.8916   1417.57385     620.1996     396.8916
   1417.55859     621.7966     398.7130   1417.55859     621.7966     398.7130
   1417.54333     623.1339     398.6821   1417.54333     623.1339     398.6821
   1417.52808     624.0070     399.3037   1417.52808     624.0070     399.3037
   1417.51282     623.4944     399.6703   1417.51282     623.4944     399.6703
   1417.49756     624.5365     401.4908   1417.49756     624.5365     401.4908
   1417.48230     625.1780     401.0958   1417.48230     625.1780     401.0958
   1417.46704     626.3677     402.5022   1417.46704     626.3677     402.5022
   1417.45178     627.4233     402.8482   1417.45178     627.4233     402.8482
   1417.43652     627.6314     403.7583   1417.43652     627.6314     403.7583
   1417.42126     627.0065     404.4231   1417.42126     627.0065     404.4231
   1417.40601     628.7264     405.3098   1417.40601     628.7264     405.3098
   1417.39075     628.3473     405.3888   1417.39075     628.3473     405.3888
   1417.37549     630.2565     406.1713   1417.37549     630.2565     406.1713
   1417.36023     630.7341     407.0685   1417.36023     630.7341     407.0685
   1417.34497     632.4011     407.0798   1417.34497     632.4011     407.0798
   1417.32971     632.3844     408.5662   1417.32971     632.3844     408.5662
   1417.31445     632.0781     408.4980   1417.31445     632.0781     408.4980
   1417.29919     633.1903     409.8532   1417.29919     633.1903     409.8532
   1417.28394     634.1776     410.3780   1417.28394     634.1776     410.3780
   1417.26868     635.2624     411.1154   1417.26868     635.2624     411.1154
   1417.25342     635.0967     411.2257   1417.25342     635.0967     411.2257
   1417.23816     636.4940     412.4254   1417.23816     636.4940     412.4254
   1417.22290     637.3936     413.3517   1417.22290     637.3936     413.3517
   1417.20764     636.7795     413.1805   1417.20764     636.7795     413.1805
   1417.19238     637.7062     413.3972   1417.19238     637.7062     413.3972
   1417.17712     638.0821     413.4456   1417.17712     638.0821     413.4456
   1417.16187     638.6713     414.6949   1417.16187     638.6713     414.6949
   1417.14661     639.0754     415.6717   1417.14661     639.0754     415.6717
   1417.13135     640.5515     416.4518   1417.13135     640.5515     416.4518
   1417.11609     641.0693     416.3626   1417.11609     641.0693     416.3626
   1417.10083     640.5715     417.6425   1417.10083     640.5715     417.6425
   1417.08557     641.9782     417.9370   1417.08557     641.9782     417.9370
   1417.07031     642.1520     418.4683   1417.07031     642.1520     418.4683
   1417.05505     642.6326     418.6667   1417.05505     642.6326     418.6667
   1417.03979     642.8062     419.2000   1417.03979     642.8062     419.2000
   1417.02454     643.0592     419.4520   1417.02454     643.0592     419.4520
   1417.00928     643.4292     420.1270   1417.00928     643.4292     420.1270
   1416.99402     644.3002     420.1251   1416.99402     644.3002     420.1251
   1416.97876     645.3951     421.6001   1416.97876     645.3951     421.6001
   1416.96350     646.6699     421.7857   1416.96350     646.6699     421.7857
   1416.94824     645.1425     421.5957   1416.94824     645.1425     421.5957
   1416.93298     647.1287     421.6671   1416.93298     647.1287     421.6671
   1416.91772     646.6325     422.5674   1416.91772     646.6325     422.5674
   1416.90247     646.0999     422.6226   1416.90247     646.0999     422.6226
   1416.88721     647.7008     422.6263   1416.88721     647.7008     422.6263
   1416.87195     647.4622     422.9354   1416.87195     647.4622     422.9354
   1416.85669     648.6516     423.3608   1416.85669     648.6516     423.3608
   1416.84143     649.5366     424.1776   1416.84143     649.5366     424.1776
   1416.82617     650.1323     424.0208   1416.82617     650.1323     424.0208
   1416.81091     649.8644     424.1980   1416.81091     649.8644     424.1980
   1416.79565     650.5909     424.0299   1416.79565     650.5909     424.0299
   1416.78040     648.9741     425.0231   1416.78040     648.9741     425.0231
   1416.76514     649.5407     425.1321   1416.76514     649.5407     425.1321
   1416.74988     650.5112     425.6404   1416.74988     650.5112     425.6404
   1416.73462     651.1557     425.6925   1416.73462     651.1557     425.6925
   1416.71936     652.1122     425.6609   1416.71936     652.1122     425.6609
   1416.70410     651.6042     425.8576   1416.70410     651.6042     425.8576
   1416.68884     651.4390     425.8981   1416.68884     651.4390     425.8981
   1416.67358     651.5135     426.6091   1416.67358     651.5135     426.6091
   1416.65833     651.8813     426.2001   1416.65833     651.8813     426.2001
   1416.64307     651.8177     426.2819   1416.64307     651.8177     426.2819
   1416.62781     652.4063     426.4884   1416.62781     652.4063     426.4884
   1416.61255     652.5280     426.2296   1416.61255     652.5280     426.2296
   1416.59729     652.8059     426.8368   1416.59729     652.8059     426.8368
   1416.58203     652.7016     426.5438   1416.58203     652.7016     426.5438
   1416.56677     652.1956     426.1128   1416.56677     652.1956     426.1128
   1416.55151     653.1971     426.3178   1416.55151     653.1971     426.3178
   1416.53625     652.6966     426.8289   1416.53625     652.6966     426.8289
   1416.52100     653.6888     425.7929   1416.52100     653.6888     425.7929
   1416.50574     653.1627     426.2904   1416.50574     653.1627     426.2904
   1416.49048     653.7720     426.3032   1416.49048     653.7720     426.3032
   1416.47522     653.5763     426.0820   1416.47522     653.5763     426.0820
   1416.45996     652.6934     425.6033   1416.45996     652.6934     425.6033
   1416.44470     652.3718     426.4323   1416.44470     652.3718     426.4323
   1416.42944     653.4607     426.2562   1416.42944     653.4607     426.2562
   1416.41418     654.4688     425.2875   1416.41418     654.4688     425.2875
   1416.39893     653.6094     425.2526   1416.39893     653.6094     425.2526
   1416.38367     653.1241     424.0649   1416.38367     653.1241     424.0649
   1416.36841     653.0886     424.8424   1416.36841     653.0886     424.8424
   1416.35315     653.0661     424.9830   1416.35315     653.0661     424.9830
   1416.33789     652.9367     424.2199   1416.33789     652.9367     424.2199
   1416.32263     652.3035     424.1627   1416.32263     652.3035     424.1627
   1416.30737     653.1386     423.8032   1416.30737     653.1386     423.8032
   1416.29211     653.2537     423.3854   1416.29211     653.2537     423.3854
   1416.27686     653.1733     423.1406   1416.27686     653.1733     423.1406
   1416.26160     652.5433     422.9111   1416.26160     652.5433     422.9111
   1416.24634     653.1562     422.6725   1416.24634     653.1562     422.6725
   1416.23108     652.5981     422.8393   1416.23108     652.5981     422.8393
   1416.21582     651.3531     422.4358   1416.21582     651.3531     422.4358
   1416.20056     651.9626     422.5512   1416.20056     651.9626     422.5512
   1416.18530     651.6454     421.4023   1416.18530     651.6454     421.4023
   1416.17004     651.4965     420.9473   1416.17004     651.4965     420.9473
   1416.15479     651.8339     420.1406   1416.15479     651.8339     420.1406
   1416.13953     650.3514     420.8008   1416.13953     650.3514     420.8008
   1416.12427     650.6132     419.3274   1416.12427     650.6132     419.3274
   1416.10901     650.9871     419.8104   1416.10901     650.9871     419.8104
   1416.09375     649.6705     420.0193   1416.09375     649.6705     420.0193
   1416.07849     648.9670     419.4502   1416.07849     648.9670     419.4502
   1416.06323     648.8403     418.7268   1416.06323     648.8403     418.7268
   1416.04797     649.5714     418.3472   1416.04797     649.5714     418.3472
   1416.03271     647.8340     417.4417   1416.03271     647.8340     417.4417
   1416.01746     649.0146     417.4478   1416.01746     649.0146     417.4478
   1416.00220     647.6475     417.3449   1416.00220     647.6475     417.3449
   1415.98694     648.1111     417.2635   1415.98694     648.1111     417.2635
   1415.97168     646.9168     416.0059   1415.97168     646.9168     416.0059
   1415.95642     647.7496     415.2849   1415.95642     647.7496     415.2849
   1415.94116     646.0000     415.0148   1415.94116     646.0000     415.0148
   1415.92590     646.2098     414.4464   1415.92590     646.2098     414.4464
   1415.91064     646.2629     414.5525   1415.91064     646.2629     414.5525
   1415.89539     645.6093     414.1331   1415.89539     645.6093     414.1331
   1415.88013     645.9923     413.7144   1415.88013     645.9923     413.7144
   1415.86487     645.3463     413.2625   1415.86487     645.3463     413.2625
   1415.84961     644.3677     413.7485   1415.84961     644.3677     413.7485
   1415.83435     644.3812     411.8817   1415.83435     644.3812     411.8817
   1415.81909     642.3586     411.6201   1415.81909     642.3586     411.6201
   1415.80383     642.7046     410.6724   1415.80383     642.7046     410.6724
   1415.78857     642.4913     410.7714   1415.78857     642.4913     410.7714
   1415.77332     641.7363     410.1470   1415.77332     641.7363     410.1470
   1415.75806     641.2676     409.5588   1415.75806     641.2676     409.5588
   1415.74280     639.9838     409.1049   1415.74280     639.9838     409.1049
   1415.72754     639.3549     408.5726   1415.72754     639.3549     408.5726
   1415.71228     639.3187     408.4190   1415.71228     639.3187     408.4190
   1415.69702     639.3981     407.6657   1415.69702     639.3981     407.6657
   1415.68176     637.9905     407.4390   1415.68176     637.9905     407.4390
   1415.66650     637.6655     406.7905   1415.66650     637.6655     406.7905
   1415.65125     636.9891     405.8272   1415.65125     636.9891     405.8272
   1415.63599     636.4360     405.7433   1415.63599     636.4360     405.7433
   1415.62073     635.2555     405.2455   1415.62073     635.2555     405.2455
   1415.60547     634.8195     404.9006   1415.60547     634.8195     404.9006
   1415.59021     634.4128     404.1233   1415.59021     634.4128     404.1233
   1415.57495     633.9814     403.5393   1415.57495     633.9814     403.5393
   1415.55969     632.6936     402.9065   1415.55969     632.6936     402.9065
   1415.54443     633.1868     402.5141   1415.54443     633.1868     402.5141
   1415.52917     631.5607     401.7466   1415.52917     631.5607     401.7466
   1415.51392     631.1606     401.7971   1415.51392     631.1606     401.7971
   1415.49866     631.4216     401.0270   1415.49866     631.4216     401.0270
   1415.48340     629.9056     400.2823   1415.48340     629.9056     400.2823
   1415.46814     628.4102     399.1990   1415.46814     628.4102     399.1990
   1415.45288     628.2449     398.7602   1415.45288     628.2449     398.7602
   1415.43762     627.2078     399.1993   1415.43762     627.2078     399.1993
   1415.42236     626.4719     398.7671   1415.42236     626.4719     398.7671
   1415.40710     626.1212     397.5944   1415.40710     626.1212     397.5944
   1415.39185     625.6802     396.8944   1415.39185     625.6802     396.8944
   1415.37659     623.4777     396.3526   1415.37659     623.4777     396.3526
   1415.36133     623.1416     395.3179   1415.36133     623.1416     395.3179
   1415.34607     622.8047     395.0490   1415.34607     622.8047     395.0490
   1415.33081     620.7552     394.4459   1415.33081     620.7552     394.4459
   1415.31555     620.9721     393.7817   1415.31555     620.9721     393.7817
   1415.30029     620.0021     392.9440   1415.30029     620.0021     392.9440
   1415.28503     618.6539     392.2593   1415.28503     618.6539     392.2593
   1415.26978     618.0673     392.1780   1415.26978     618.0673     392.1780
   1415.25452     616.5748     391.5271   1415.25452     616.5748     391.5271
   1415.23926     615.9896     390.6476   1415.23926     615.9896     390.6476
   1415.22400     614.3307     390.5474   1415.22400     614.3307     390.5474
   1415.20874     613.1777     390.0576   1415.20874     613.1777     390.0576
   1415.19348     613.8491     388.9236   1415.19348     613.8491     388.9236
   1415.17822     613.1945     388.8261   1415.17822     613.1945     388.8261
   1415.16296     611.1100     387.7408   1415.16296     611.1100     387.7408
   1415.14771     609.5511     387.3633   1415.14771     609.5511     387.3633
   1415.13245     607.9313     385.9917   1415.13245     607.9313     385.9917
   1415.11719     608.2621     385.5323   1415.11719     608.2621     385.5323
   1415.10193     605.7009     384.7008   1415.10193     605.7009     384.7008
   1415.08667     603.9706     384.2885   1415.08667     603.9706     384.2885
   1415.07141     603.5792     383.6737   1415.07141     603.5792     383.6737
   1415.05615     602.9406     382.4468   1415.05615     602.9406     382.4468
   1415.04089     600.8995     382.4435   1415.04089     600.8995     382.4435
   1415.02563     600.7125     381.5807   1415.02563     600.7125     381.5807
   1415.01038     599.6248     380.5905   1415.01038     599.6248     380.5905
   1414.99512     598.3295     380.1173   1414.99512     598.3295     380.1173
   1414.97986     597.0963     379.1184   1414.97986     597.0963     379.1184
   1414.96460     594.9821     378.5295   1414.96460     594.9821     378.5295
   1414.94934     594.0314     377.1875   1414.94934     594.0314     377.1875
   1414.93408     592.3429     377.2974   1414.93408     592.3429     377.2974
   1414.91882     591.7133     375.9515   1414.91882     591.7133     375.9515
   1414.90356     589.5807     376.2468   1414.90356     589.5807     376.2468
   1414.88831     589.1850     374.6255   1414.88831     589.1850     374.6255
   1414.87305     587.3202     373.4404   1414.87305     587.3202     373.4404
   1414.85779     584.6348     373.2138   1414.85779     584.6348     373.2138
   1414.84253     584.1082     372.1352   1414.84253     584.1082     372.1352
   1414.82727     582.5422     370.7487   1414.82727     582.5422     370.7487
   1414.81201     581.7612     370.4752   1414.81201     581.7612     370.4752
   1414.79675     579.1599     370.1539   1414.79675     579.1599     370.1539
   1414.78149     578.5554     369.1642   1414.78149     578.5554     369.1642
   1414.76624     576.1829     368.2307   1414.76624     576.1829     368.2307
   1414.75098     575.0657     367.2335   1414.75098     575.0657     367.2335
   1414.73572     573.1177     366.2733   1414.73572     573.1177     366.2733
   1414.72046     571.9036     364.9637   1414.72046     571.9036     364.9637
   1414.70520     571.0106     364.7190   1414.70520     571.0106     364.7190
   1414.68994     568.8347     363.6927   1414.68994     568.8347     363.6927
   1414.67468     567.0457     363.1198   1414.67468     567.0457     363.1198
   1414.65942     565.9728     362.3371   1414.65942     565.9728     362.3371
   1414.64417     563.4008     361.4553   1414.64417     563.4008     361.4553
   1414.62891     562.0244     360.2746   1414.62891     562.0244     360.2746
   1414.61365     560.4083     359.6190   1414.61365     560.4083     359.6190
   1414.59839     558.3572     358.4200   1414.59839     558.3572     358.4200
   1414.58313     556.4390     356.9651   1414.58313     556.4390     356.9651
   1414.56787     555.0331     356.4261   1414.56787     555.0331     356.4261
   1414.55261     554.0397     355.3454   1414.55261     554.0397     355.3454
   1414.53735     551.7106     354.3814   1414.53735     551.7106     354.3814
   1414.52209     549.2465     353.3761   1414.52209     549.2465     353.3761
   1414.50684     548.6862     353.0549   1414.50684     548.6862     353.0549
   1414.49158     545.4050     351.2486   1414.49158     545.4050     351.2486
   1414.47632     544.2298     350.1581   1414.47632     544.2298     350.1581
   1414.46106     542.5435     349.7870   1414.46106     542.5435     349.7870
   1414.44580     540.1641     348.4843   1414.44580     540.1641     348.4843
   1414.43054     538.3323     347.1597   1414.43054     538.3323     347.1597
   1414.41528     536.8969     346.4394   1414.41528     536.8969     346.4394
   1414.40002     534.9744     345.4282   1414.40002     534.9744     345.4282
   1414.38477     532.9977     344.3046   1414.38477     532.9977     344.3046
   1414.36951     530.7941     343.3001   1414.36951     530.7941     343.3001
   1414.35425     527.7259     342.8962   1414.35425     527.7259     342.8962
   1414.33899     526.6490     341.1472   1414.33899     526.6490     341.1472
   1414.32373     524.6616     340.2863   1414.32373     524.6616     340.2863
   1414.30847     522.9716     338.8716   1414.30847     522.9716     338.8716
   1414.29321     519.9540     337.8003   1414.29321     519.9540     337.8003
   1414.27795     518.5469     336.1042   1414.27795     518.5469     336.1042
   1414.26270     516.7530     335.5393   1414.26270     516.7530     335.5393
   1414.24744     515.4927     333.5779   1414.24744     515.4927     333.5779
   1414.23218     511.1620     333.5529   1414.23218     511.1620     333.5529
   1414.21692     508.9305     331.9085   1414.21692     508.9305     331.9085
   1414.20166     507.5168     331.0941   1414.20166     507.5168     331.0941
   1414.18640     505.2843     329.8907   1414.18640     505.2843     329.8907
   1414.17114     502.9392     328.5703   1414.17114     502.9392     328.5703
   1414.15588     500.7811     327.5800   1414.15588     500.7811     327.5800
   1414.14062     498.5659     326.8664   1414.14062     498.5659     326.8664
   1414.12537     496.4900     325.3996   1414.12537     496.4900     325.3996
   1414.11011     494.1827     324.3763   1414.11011     494.1827     324.3763
   1414.09485     491.6169     322.7503   1414.09485     491.6169     322.7503
   1414.07959     490.0013     321.7869   1414.07959     490.0013     321.7869
   1414.06433     487.7932     320.4095   1414.06433     487.7932     320.4095
   1414.04907     485.1605     319.3979   1414.04907     485.1605     319.3979
   1414.03381     483.2607     318.0862   1414.03381     483.2607     318.0862
   1414.01855     481.5576     317.1414   1414.01855     481.5576     317.1414
   1414.00330     504.8083     324.7426   1414.00330     504.8083     324.7426
   1413.98804     477.2660     314.8882   1413.98804     477.2660     314.8882
   1413.97278     474.2098     313.7240   1413.97278     474.2098     313.7240
   1413.95752     471.1404     312.4818   1413.95752     471.1404     312.4818
   1413.94226     468.1866     310.8133   1413.94226     468.1866     310.8133
   1413.92700     466.5388     309.5316   1413.92700     466.5388     309.5316
   1413.91174     463.7062     308.3819   1413.91174     463.7062     308.3819
   1413.89648     461.3738     307.3607   1413.89648     461.3738     307.3607
   1413.88123     459.1658     306.5076   1413.88123     459.1658     306.5076
   1413.86597     456.4309     304.6931   1413.86597     456.4309     304.6931
   1413.85071     454.5888     303.9497   1413.85071     454.5888     303.9497
   1413.83545     451.4726     301.9734   1413.83545     451.4726     301.9734
   1413.82019     448.8496     301.0133   1413.82019     448.8496     301.0133
   1413.80493     446.9352     299.9266   1413.80493     446.9352     299.9266
   1413.78967     444.9288     298.5049   1413.78967     444.9288     298.5049
   1413.77441     441.9231     297.0901   1413.77441     441.9231     297.0901
   1413.75916     439.5333     296.1325   1413.75916     439.5333     296.1325
   1413.74390     437.0483     294.4966   1413.74390     437.0483     294.4966
   1413.72864     434.7752     293.5396   1413.72864     434.7752     293.5396
   1413.71338     432.8870     292.0186   1413.71338     432.8870     292.0186
   1413.69812     429.3814     290.7697   1413.69812     429.3814     290.7697
   1413.68286     426.7983     289.3636   1413.68286     426.7983     289.3636
   1413.66760     424.9083     289.1985   1413.66760     424.9083     289.1985
   1413.65234     423.3216     286.9765   1413.65234     423.3216     286.9765
   1413.63708     420.0965     285.6838   1413.63708     420.0965     285.6838
   1413.62183     417.9121     284.8374   1413.62183     417.9121     284.8374
   1413.60657     415.4390     283.7227   1413.60657     415.4390     283.7227
   1413.59131     413.4910     282.3281   1413.59131     413.4910     282.3281
   1413.57605     410.6091     281.0481   1413.57605     410.6091     281.0481
   1413.56079     408.9149     279.6470   1413.56079     408.9149     279.6470
   1413.54553     406.1017     278.9191   1413.54553     406.1017     278.9191
   1413.53027     403.3447     277.2423   1413.53027     403.3447     277.2423
   1413.51501     401.5268     276.4227   1413.51501     401.5268     276.4227
   1413.49976     398.8089     274.7809   1413.49976     398.8089     274.7809
   1413.48450     396.5612     273.7164   1413.48450     396.5612     273.7164
   1413.46924     393.8128     272.2343   1413.46924     393.8128     272.2343
   1413.45398     391.4103     270.7517   1413.45398     391.4103     270.7517
   1413.43872     388.7598     270.1357   1413.43872     388.7598     270.1357
   1413.42346     386.5454     269.2489   1413.42346     386.5454     269.2489
   1413.40820     384.3722     267.3095   1413.40820     384.3722     267.3095
   1413.39294     382.0886     266.3974   1413.39294     382.0886     266.3974
   1413.37769     380.3237     265.3697   1413.37769     380.3237     265.3697
   1413.36243     378.4348     264.5287   1413.36243     378.4348     264.5287
   1413.34717     376.3475     262.9650   1413.34717     376.3475     262.9650
   1413.33191     373.2317     261.8882   1413.33191     373.2317     261.8882
   1413.31665     371.2822     260.4641   1413.31665     371.2822     260.4641
   1413.30139     369.1669     259.7585   1413.30139     369.1669     259.7585
   1413.28613     366.8710     258.5559   1413.28613     366.8710     258.5559
   1413.27087     364.9391     257.2690   1413.27087     364.9391     257.2690
   1413.25562     362.6145     256.4330   1413.25562     362.6145     256.4330
   1413.24036     360.2190     255.4216   1413.24036     360.2190     255.4216
   1413.22510     358.9351     253.9937   1413.22510     358.9351     253.9937
   1413.20984     356.2933     252.4850   1413.20984     356.2933     252.4850
   1413.19458     354.0135     251.4758   1413.19458     354.0135     251.4758
   1413.17932     351.8225     250.8429   1413.17932     351.8225     250.8429
   1413.16406     349.6835     250.0919   1413.16406     349.6835     250.0919
   1413.14880     348.1790     248.8135   1413.14880     348.1790     248.8135
   1413.13354     345.5672     248.2796   1413.13354     345.5672     248.2796
   1413.11829     344.0777     246.5699   1413.11829     344.0777     246.5699
   1413.10303     342.3187     245.7682   1413.10303     342.3187     245.7682
   1413.08777     340.1413     244.8751   1413.08777     340.1413     244.8751
   1413.07251     338.6314     244.2215   1413.07251     338.6314     244.2215
   1413.05725     337.2980     243.1167   1413.05725     337.2980     243.1167
   1413.04199     335.2945     241.8398   1413.04199     335.2945     241.8398
   1413.02673     333.8164     241.0103   1413.02673     333.8164     241.0103
   1413.01147     331.8237     240.2053   1413.01147     331.8237     240.2053
   1412.99622     329.9092     239.5331   1412.99622     329.9092     239.5331
   1412.98096     328.2681     238.5936   1412.98096     328.2681     238.5936
   1412.96570     326.2098     237.6992   1412.96570     326.2098     237.6992
   1412.95044     324.9834     236.9596   1412.95044     324.9834     236.9596
   1412.93518     323.0418     235.9984   1412.93518     323.0418     235.9984
   1412.91992     321.5870     235.3968   1412.91992     321.5870     235.3968
   1412.90466     320.4460     234.7969   1412.90466     320.4460     234.7969
   1412.88940     319.0371     234.0256   1412.88940     319.0371     234.0256
   1412.87415     316.9433     233.6931   1412.87415     316.9433     233.6931
   1412.85889     315.6523     232.7666   1412.85889     315.6523     232.7666
   1412.84363     314.3065     231.9226   1412.84363     314.3065     231.9226
   1412.82837     313.2521     231.4991   1412.82837     313.2521     231.4991
   1412.81311     312.0677     230.6749   1412.81311     312.0677     230.6749
   1412.79785     310.9379     230.1541   1412.79785     310.9379     230.1541
   1412.78259     309.7206     229.3699   1412.78259     309.7206     229.3699
   1412.76733     308.1421     228.9772   1412.76733     308.1421     228.9772
   1412.75208     307.0695     228.6257   1412.75208     307.0695     228.6257
   1412.73682     306.3722     228.2093   1412.73682     306.3722     228.2093
   1412.72156     305.2995     227.4623   1412.72156     305.2995     227.4623
   1412.70630     304.0151     227.4512   1412.70630     304.0151     227.4512
   1412.69104     302.7514     226.9131   1412.69104     302.7514     226.9131
   1412.67578     302.2207     226.1414   1412.67578     302.2207     226.1414
   1412.66052     301.0371     225.9383   1412.66052     301.0371     225.9383
   1412.64526     300.6941     225.6596   1412.64526     300.6941     225.6596
   1412.63000     299.5669     225.5810   1412.63000     299.5669     225.5810
   1412.61475     298.8524     224.9199   1412.61475     298.8524     224.9199
   1412.59949     297.8761     224.9428   1412.59949     297.8761     224.9428
   1412.58423     297.3443     224.5625   1412.58423     297.3443     224.5625
   1412.56897     296.3145     224.3875   1412.56897     296.3145     224.3875
   1412.55371     296.3633     224.0413   1412.55371     296.3633     224.0413
   1412.53845     295.8973     224.3820   1412.53845     295.8973     224.3820
   1412.52319     294.6129     224.1189   1412.52319     294.6129     224.1189
   1412.50793     294.3539     223.9966   1412.50793     294.3539     223.9966
   1412.49268     293.9196     223.8823   1412.49268     293.9196     223.8823
   1412.47742     293.4641     223.6755   1412.47742     293.4641     223.6755
   1412.46216     293.0996     223.7792   1412.46216     293.0996     223.7792
   1412.44690     292.7838     223.7611   1412.44690     292.7838     223.7611
   1412.43164     293.0206     224.2465   1412.43164     293.0206     224.2465
   1412.41638     292.6223     224.0952   1412.41638     292.6223     224.0952
   1412.40112     292.3602     224.1818   1412.40112     292.3602     224.1818
   1412.38586     292.3520     224.2335   1412.38586     292.3520     224.2335
   1412.37061     292.6178     224.6218   1412.37061     292.6178     224.6218
   1412.35535     291.8836     224.7737   1412.35535     291.8836     224.7737
   1412.34009     292.0765     224.8085   1412.34009     292.0765     224.8085
   1412.32483     292.3341     225.0069   1412.32483     292.3341     225.0069
   1412.30957     292.6026     225.0651   1412.30957     292.6026     225.0651
   1412.29431     292.9536     225.4744   1412.29431     292.9536     225.4744
   1412.27905     292.6786     226.0312   1412.27905     292.6786     226.0312
   1412.26379     293.6394     226.6833   1412.26379     293.6394     226.6833
   1412.24854     293.0728     226.9873   1412.24854     293.0728     226.9873
   1412.23328     293.3288     226.7668   1412.23328     293.3288     226.7668
   1412.21802     293.8596     227.9587   1412.21802     293.8596     227.9587
   1412.20276     294.1059     228.2360   1412.20276     294.1059     228.2360