#     FILENAME=!Skynet_57528_lach-hhg-149_20490_20973.cyb.fits
#     BASENAME=Skynet_57528_lach-hhg-149_20490_20973
#     SRC_NAME=lach-hhg-149
#     OBSERVER=hhgmadison16_9500
#     DATE_OBS=2016-05-20T17:35:38.680
#        OBSID=20490
#      SCANNUM=20973
#          MJD=57528.7341
#          UTC=63427
#     SCANTYPE=track
#     DATAMODE=HIRES
#     TUNEFREQ=1420.0000
# Actual_FREQ1=1420.0000
# Actual_FREQ2=1420.0000
#    LO1Tuning=6870.000
#     RFFILTER=1355_1435
#        OBSBW=-15.6250
#        NCHAN=1024 
#        FOCUS=37.0709
#           RA=03:59:26.36
#          DEC=53:04:40.01
#      RA(hrs)=3.990700
#     DEC(deg)=53.077800
#    AZIM(deg)=353.150
#    ELEV(deg)=75.118
#     IFattens=10.00, 9.00
#      WARNING=None
#    TCAL_XL1=7.9635
#    TCAL_YR1=9.1340
#    TCAL_XL2=7.9635
#    TCAL_YR2=9.1340
#     TRX_XL1=11.7060
#     TRX_YR1=11.7060
#     TRX_XL2=11.7060
#     TRX_YR2=11.7060
#        TAVE=1.0000
#Freq1(MHz)          XL1          YR1  Freq2(MHz)          XL2          YR2 

   1427.81250     380.9890     335.0371   1427.81250     380.9890     335.0371
   1427.79724     381.6137     335.7533   1427.79724     381.6137     335.7533
   1427.78198     382.2255     336.8157   1427.78198     382.2255     336.8157
   1427.76672     383.0987     338.3730   1427.76672     383.0987     338.3730
   1427.75146     384.1546     340.3821   1427.75146     384.1546     340.3821
   1427.73621     384.6395     341.5950   1427.73621     384.6395     341.5950
   1427.72095     385.9374     343.4039   1427.72095     385.9374     343.4039
   1427.70569     386.9818     344.4720   1427.70569     386.9818     344.4720
   1427.69043     387.8008     346.4888   1427.69043     387.8008     346.4888
   1427.67517     388.5855     348.2518   1427.67517     388.5855     348.2518
   1427.65991     389.9176     349.1545   1427.65991     389.9176     349.1545
   1427.64465     391.3093     351.4703   1427.64465     391.3093     351.4703
   1427.62939     392.1175     352.8233   1427.62939     392.1175     352.8233
   1427.61414     393.2142     354.3992   1427.61414     393.2142     354.3992
   1427.59888     395.8500     356.2135   1427.59888     395.8500     356.2135
   1427.58362     396.2446     357.7989   1427.58362     396.2446     357.7989
   1427.56836     397.9855     359.8480   1427.56836     397.9855     359.8480
   1427.55310     399.1871     361.6458   1427.55310     399.1871     361.6458
   1427.53784     400.8267     364.2727   1427.53784     400.8267     364.2727
   1427.52258     402.9085     365.3871   1427.52258     402.9085     365.3871
   1427.50732     403.7966     368.1251   1427.50732     403.7966     368.1251
   1427.49207     405.8203     369.0520   1427.49207     405.8203     369.0520
   1427.47681     407.3364     371.7989   1427.47681     407.3364     371.7989
   1427.46155     409.4948     373.5373   1427.46155     409.4948     373.5373
   1427.44629     411.3158     376.0779   1427.44629     411.3158     376.0779
   1427.43103     413.1971     377.7895   1427.43103     413.1971     377.7895
   1427.41577     414.3047     379.4781   1427.41577     414.3047     379.4781
   1427.40051     417.2005     381.9798   1427.40051     417.2005     381.9798
   1427.38525     418.8489     383.5973   1427.38525     418.8489     383.5973
   1427.37000     421.2249     386.2952   1427.37000     421.2249     386.2952
   1427.35474     422.8044     387.7054   1427.35474     422.8044     387.7054
   1427.33948     425.1630     390.9107   1427.33948     425.1630     390.9107
   1427.32422     427.8489     392.2607   1427.32422     427.8489     392.2607
   1427.30896     429.8664     395.0229   1427.30896     429.8664     395.0229
   1427.29370     432.4959     397.4095   1427.29370     432.4959     397.4095
   1427.27844     434.2270     398.9029   1427.27844     434.2270     398.9029
   1427.26318     436.5467     401.3753   1427.26318     436.5467     401.3753
   1427.24792     438.8022     404.1022   1427.24792     438.8022     404.1022
   1427.23267     441.2200     405.7602   1427.23267     441.2200     405.7602
   1427.21741     443.5359     408.2668   1427.21741     443.5359     408.2668
   1427.20215     446.2787     410.3386   1427.20215     446.2787     410.3386
   1427.18689     449.1615     412.6380   1427.18689     449.1615     412.6380
   1427.17163     450.7710     414.5791   1427.17163     450.7710     414.5791
   1427.15637     454.0591     417.4430   1427.15637     454.0591     417.4430
   1427.14111     456.6281     419.2563   1427.14111     456.6281     419.2563
   1427.12585     459.6643     421.6184   1427.12585     459.6643     421.6184
   1427.11060     461.8426     423.3516   1427.11060     461.8426     423.3516
   1427.09534     464.0321     426.4949   1427.09534     464.0321     426.4949
   1427.08008     467.6474     428.3403   1427.08008     467.6474     428.3403
   1427.06482     470.3423     430.5368   1427.06482     470.3423     430.5368
   1427.04956     473.2739     433.0607   1427.04956     473.2739     433.0607
   1427.03430     475.3587     435.8984   1427.03430     475.3587     435.8984
   1427.01904     478.8752     438.0190   1427.01904     478.8752     438.0190
   1427.00378     481.3675     440.4506   1427.00378     481.3675     440.4506
   1426.98853     484.2601     442.8604   1426.98853     484.2601     442.8604
   1426.97327     487.5373     445.2990   1426.97327     487.5373     445.2990
   1426.95801     489.8103     446.9184   1426.95801     489.8103     446.9184
   1426.94275     493.0279     449.7788   1426.94275     493.0279     449.7788
   1426.92749     496.0683     451.0963   1426.92749     496.0683     451.0963
   1426.91223     499.0142     453.7850   1426.91223     499.0142     453.7850
   1426.89697     501.8884     456.0204   1426.89697     501.8884     456.0204
   1426.88171     505.2396     458.0570   1426.88171     505.2396     458.0570
   1426.86646     508.0593     460.5514   1426.86646     508.0593     460.5514
   1426.85120     510.9868     463.2194   1426.85120     510.9868     463.2194
   1426.83594     513.9662     464.7878   1426.83594     513.9662     464.7878
   1426.82068     517.3878     467.3481   1426.82068     517.3878     467.3481
   1426.80542     520.1995     469.5090   1426.80542     520.1995     469.5090
   1426.79016     523.9495     472.2427   1426.79016     523.9495     472.2427
   1426.77490     526.8184     474.1065   1426.77490     526.8184     474.1065
   1426.75964     529.9658     475.5118   1426.75964     529.9658     475.5118
   1426.74438     533.3542     478.3601   1426.74438     533.3542     478.3601
   1426.72913     536.0250     480.3301   1426.72913     536.0250     480.3301
   1426.71387     539.7670     481.9206   1426.71387     539.7670     481.9206
   1426.69861     541.9459     484.5862   1426.69861     541.9459     484.5862
   1426.68335     545.8119     487.1596   1426.68335     545.8119     487.1596
   1426.66809     549.5078     489.3487   1426.66809     549.5078     489.3487
   1426.65283     552.1669     491.1317   1426.65283     552.1669     491.1317
   1426.63757     555.0180     492.5994   1426.63757     555.0180     492.5994
   1426.62231     565.1368     497.6743   1426.62231     565.1368     497.6743
   1426.60706     562.0192     497.6936   1426.60706     562.0192     497.6936
   1426.59180     564.7549     499.2308   1426.59180     564.7549     499.2308
   1426.57654     566.7295     501.1589   1426.57654     566.7295     501.1589
   1426.56128     571.7258     503.2657   1426.56128     571.7258     503.2657
   1426.54602     574.0899     505.4925   1426.54602     574.0899     505.4925
   1426.53076     576.8870     506.3147   1426.53076     576.8870     506.3147
   1426.51550     580.4545     508.6615   1426.51550     580.4545     508.6615
   1426.50024     584.0479     511.0552   1426.50024     584.0479     511.0552
   1426.48499     585.6882     512.3853   1426.48499     585.6882     512.3853
   1426.46973     590.4182     515.2112   1426.46973     590.4182     515.2112
   1426.45447     592.9417     517.3760   1426.45447     592.9417     517.3760
   1426.43921     595.6144     518.5138   1426.43921     595.6144     518.5138
   1426.42395     599.1445     520.5017   1426.42395     599.1445     520.5017
   1426.40869     601.8334     521.6869   1426.40869     601.8334     521.6869
   1426.39343     605.1501     524.2732   1426.39343     605.1501     524.2732
   1426.37817     607.7097     525.2422   1426.37817     607.7097     525.2422
   1426.36292     611.2750     527.7236   1426.36292     611.2750     527.7236
   1426.34766     615.0804     530.1961   1426.34766     615.0804     530.1961
   1426.33240     617.5452     531.3738   1426.33240     617.5452     531.3738
   1426.31714     621.3506     532.3865   1426.31714     621.3506     532.3865
   1426.30188     624.8253     534.0430   1426.30188     624.8253     534.0430
   1426.28662     625.8608     535.0709   1426.28662     625.8608     535.0709
   1426.27136     629.0259     537.9182   1426.27136     629.0259     537.9182
   1426.25610     632.0098     538.9457   1426.25610     632.0098     538.9457
   1426.24084     635.5876     541.2187   1426.24084     635.5876     541.2187
   1426.22559     638.6072     541.9088   1426.22559     638.6072     541.9088
   1426.21033     641.1754     544.5592   1426.21033     641.1754     544.5592
   1426.19507     643.0914     545.5257   1426.19507     643.0914     545.5257
   1426.17981     647.4351     547.3733   1426.17981     647.4351     547.3733
   1426.16455     649.3981     549.0351   1426.16455     649.3981     549.0351
   1426.14929     652.0700     550.1132   1426.14929     652.0700     550.1132
   1426.13403     654.3285     551.3743   1426.13403     654.3285     551.3743
   1426.11877     658.2058     552.7347   1426.11877     658.2058     552.7347
   1426.10352     661.1554     554.1013   1426.10352     661.1554     554.1013
   1426.08826     663.7795     555.7748   1426.08826     663.7795     555.7748
   1426.07300     666.0545     557.2895   1426.07300     666.0545     557.2895
   1426.05774     668.2308     558.2767   1426.05774     668.2308     558.2767
   1426.04248     672.3986     560.0035   1426.04248     672.3986     560.0035
   1426.02722     673.7375     561.2415   1426.02722     673.7375     561.2415
   1426.01196     676.6302     562.8566   1426.01196     676.6302     562.8566
   1425.99670     678.6987     563.9108   1425.99670     678.6987     563.9108
   1425.98145     680.9001     565.6034   1425.98145     680.9001     565.6034
   1425.96619     685.0865     567.2433   1425.96619     685.0865     567.2433
   1425.95093     686.3889     569.1160   1425.95093     686.3889     569.1160
   1425.93567     689.0616     568.9363   1425.93567     689.0616     568.9363
   1425.92041     691.6484     570.2280   1425.92041     691.6484     570.2280
   1425.90515     693.7061     570.4517   1425.90515     693.7061     570.4517
   1425.88989     696.6275     572.4281   1425.88989     696.6275     572.4281
   1425.87463     699.1165     574.3546   1425.87463     699.1165     574.3546
   1425.85938     700.5372     575.0796   1425.85938     700.5372     575.0796
   1425.84412     702.9297     575.4361   1425.84412     702.9297     575.4361
   1425.82886     706.2177     577.4365   1425.82886     706.2177     577.4365
   1425.81360     708.6058     578.4346   1425.81360     708.6058     578.4346
   1425.79834     710.8069     579.0066   1425.79834     710.8069     579.0066
   1425.78308     712.2067     579.1000   1425.78308     712.2067     579.1000
   1425.76782     713.7178     581.4991   1425.76782     713.7178     581.4991
   1425.75256     716.0469     582.7185   1425.75256     716.0469     582.7185
   1425.73730     718.7624     583.7151   1425.73730     718.7624     583.7151
   1425.72205     720.3599     584.3333   1425.72205     720.3599     584.3333
   1425.70679     722.4454     586.3432   1425.70679     722.4454     586.3432
   1425.69153     724.7919     585.2448   1425.69153     724.7919     585.2448
   1425.67627     726.7637     587.2458   1425.67627     726.7637     587.2458
   1425.66101     728.1074     587.9937   1425.66101     728.1074     587.9937
   1425.64575     730.1696     588.6999   1425.64575     730.1696     588.6999
   1425.63049     732.6942     589.7807   1425.63049     732.6942     589.7807
   1425.61523     734.3043     590.3807   1425.61523     734.3043     590.3807
   1425.59998     735.6404     591.7678   1425.59998     735.6404     591.7678
   1425.58472     737.0633     592.5947   1425.58472     737.0633     592.5947
   1425.56946     739.2415     593.0781   1425.56946     739.2415     593.0781
   1425.55420     740.7916     594.5692   1425.55420     740.7916     594.5692
   1425.53894     742.5240     594.8714   1425.53894     742.5240     594.8714
   1425.52368     742.4543     596.2885   1425.52368     742.4543     596.2885
   1425.50842     745.0522     596.5712   1425.50842     745.0522     596.5712
   1425.49316     747.4073     596.9496   1425.49316     747.4073     596.9496
   1425.47791     748.9367     597.6673   1425.47791     748.9367     597.6673
   1425.46265     749.4608     598.7311   1425.46265     749.4608     598.7311
   1425.44739     752.4568     598.6568   1425.44739     752.4568     598.6568
   1425.43213     753.2831     599.5061   1425.43213     753.2831     599.5061
   1425.41687     752.7292     600.1386   1425.41687     752.7292     600.1386
   1425.40161     755.9437     600.7516   1425.40161     755.9437     600.7516
   1425.38635     756.8507     601.4080   1425.38635     756.8507     601.4080
   1425.37109     758.2124     602.2847   1425.37109     758.2124     602.2847
   1425.35583     759.1990     603.2854   1425.35583     759.1990     603.2854
   1425.34058     760.4283     603.7182   1425.34058     760.4283     603.7182
   1425.32532     761.1435     603.6293   1425.32532     761.1435     603.6293
   1425.31006     763.0814     604.2539   1425.31006     763.0814     604.2539
   1425.29480     763.9227     604.1649   1425.29480     763.9227     604.1649
   1425.27954     763.5950     605.1155   1425.27954     763.5950     605.1155
   1425.26428     766.6288     605.5476   1425.26428     766.6288     605.5476
   1425.24902     766.4294     606.1057   1425.24902     766.4294     606.1057
   1425.23376     768.3826     607.0435   1425.23376     768.3826     607.0435
   1425.21851     769.1196     607.1129   1425.21851     769.1196     607.1129
   1425.20325     769.5933     607.8572   1425.20325     769.5933     607.8572
   1425.18799     769.9514     608.1608   1425.18799     769.9514     608.1608
   1425.17273     772.8997     609.8666   1425.17273     772.8997     609.8666
   1425.15747     771.6345     607.4365   1425.15747     771.6345     607.4365
   1425.14221     773.6155     609.2263   1425.14221     773.6155     609.2263
   1425.12695     774.1763     610.0989   1425.12695     774.1763     610.0989
   1425.11169     773.2618     610.3560   1425.11169     773.2618     610.3560
   1425.09644     773.7634     611.3323   1425.09644     773.7634     611.3323
   1425.08118     774.0938     610.2778   1425.08118     774.0938     610.2778
   1425.06592     774.8951     611.2139   1425.06592     774.8951     611.2139
   1425.05066     777.3110     611.5571   1425.05066     777.3110     611.5571
   1425.03540     776.3508     611.4134   1425.03540     776.3508     611.4134
   1425.02014     777.0671     611.5106   1425.02014     777.0671     611.5106
   1425.00488     778.0767     612.1068   1425.00488     778.0767     612.1068
   1424.98962     780.4394     612.5087   1424.98962     780.4394     612.5087
   1424.97437     778.3746     612.7275   1424.97437     778.3746     612.7275
   1424.95911     779.0677     612.9632   1424.95911     779.0677     612.9632
   1424.94385     778.7321     613.4816   1424.94385     778.7321     613.4816
   1424.92859     780.4883     613.2686   1424.92859     780.4883     613.2686
   1424.91333     780.5937     614.0548   1424.91333     780.5937     614.0548
   1424.89807     782.0073     613.6738   1424.89807     782.0073     613.6738
   1424.88281     781.2162     614.0557   1424.88281     781.2162     614.0557
   1424.86755     780.3945     614.4761   1424.86755     780.3945     614.4761
   1424.85229     781.8994     614.6735   1424.85229     781.8994     614.6735
   1424.83704     782.3558     614.4425   1424.83704     782.3558     614.4425
   1424.82178     782.4384     614.8925   1424.82178     782.4384     614.8925
   1424.80652     782.5979     614.1040   1424.80652     782.5979     614.1040
   1424.79126     781.4971     615.6677   1424.79126     781.4971     615.6677
   1424.77600     782.7003     614.8934   1424.77600     782.7003     614.8934
   1424.76074     782.6454     615.4016   1424.76074     782.6454     615.4016
   1424.74548     783.0485     615.3626   1424.74548     783.0485     615.3626
   1424.73022     781.9173     615.4232   1424.73022     781.9173     615.4232
   1424.71497     784.1071     615.7800   1424.71497     784.1071     615.7800
   1424.69971     783.6506     615.5631   1424.69971     783.6506     615.5631
   1424.68445     783.5196     615.6033   1424.68445     783.5196     615.6033
   1424.66919     783.0803     614.8848   1424.66919     783.0803     614.8848
   1424.65393     782.8255     615.3653   1424.65393     782.8255     615.3653
   1424.63867     782.7734     616.4960   1424.63867     782.7734     616.4960
   1424.62341     784.1516     616.4539   1424.62341     784.1516     616.4539
   1424.60815     782.7142     616.3240   1424.60815     782.7142     616.3240
   1424.59290     782.1324     615.0649   1424.59290     782.1324     615.0649
   1424.57764     781.6337     615.1401   1424.57764     781.6337     615.1401
   1424.56238     782.3015     614.7162   1424.56238     782.3015     614.7162
   1424.54712     782.6740     614.6127   1424.54712     782.6740     614.6127
   1424.53186     781.1986     614.7789   1424.53186     781.1986     614.7789
   1424.51660     782.0485     614.4750   1424.51660     782.0485     614.4750
   1424.50134     781.2086     614.6564   1424.50134     781.2086     614.6564
   1424.48608     780.9587     615.5384   1424.48608     780.9587     615.5384
   1424.47083     781.2875     615.5429   1424.47083     781.2875     615.5429
   1424.45557     782.2947     615.3293   1424.45557     782.2947     615.3293
   1424.44031     781.8577     614.7438   1424.44031     781.8577     614.7438
   1424.42505     780.9840     614.3569   1424.42505     780.9840     614.3569
   1424.40979     780.4087     614.7274   1424.40979     780.4087     614.7274
   1424.39453     779.4365     613.8069   1424.39453     779.4365     613.8069
   1424.37927     778.7968     613.9548   1424.37927     778.7968     613.9548
   1424.36401     778.5915     614.7299   1424.36401     778.5915     614.7299
   1424.34875     779.8816     614.3483   1424.34875     779.8816     614.3483
   1424.33350     777.9885     613.9119   1424.33350     777.9885     613.9119
   1424.31824     778.1241     614.6419   1424.31824     778.1241     614.6419
   1424.30298     777.4147     613.2266   1424.30298     777.4147     613.2266
   1424.28772     777.5574     612.5865   1424.28772     777.5574     612.5865
   1424.27246     777.2679     612.8028   1424.27246     777.2679     612.8028
   1424.25720     776.3779     614.0381   1424.25720     776.3779     614.0381
   1424.24194     776.0797     612.3077   1424.24194     776.0797     612.3077
   1424.22668     775.8723     612.1700   1424.22668     775.8723     612.1700
   1424.21143     775.7796     612.7850   1424.21143     775.7796     612.7850
   1424.19617     774.2136     612.7432   1424.19617     774.2136     612.7432
   1424.18091     774.4114     611.0650   1424.18091     774.4114     611.0650
   1424.16565     775.1556     612.6917   1424.16565     775.1556     612.6917
   1424.15039     774.7191     612.5904   1424.15039     774.7191     612.5904
   1424.13513     773.2478     611.7905   1424.13513     773.2478     611.7905
   1424.11987     771.9929     611.2135   1424.11987     771.9929     611.2135
   1424.10461     773.1961     611.1702   1424.10461     773.1961     611.1702
   1424.08936     771.2187     610.4711   1424.08936     771.2187     610.4711
   1424.07410     769.1415     610.2335   1424.07410     769.1415     610.2335
   1424.05884     770.8123     609.8967   1424.05884     770.8123     609.8967
   1424.04358     770.4670     610.0947   1424.04358     770.4670     610.0947
   1424.02832     769.2638     610.0058   1424.02832     769.2638     610.0058
   1424.01306     768.0529     609.8749   1424.01306     768.0529     609.8749
   1423.99780     767.3127     609.1812   1423.99780     767.3127     609.1812
   1423.98254     766.7911     609.5636   1423.98254     766.7911     609.5636
   1423.96729     766.6939     609.5358   1423.96729     766.6939     609.5358
   1423.95203     765.6544     607.7419   1423.95203     765.6544     607.7419
   1423.93677     765.4607     607.2376   1423.93677     765.4607     607.2376
   1423.92151     765.7098     608.3871   1423.92151     765.7098     608.3871
   1423.90625     763.8022     607.3561   1423.90625     763.8022     607.3561
   1423.89099     763.3345     607.0776   1423.89099     763.3345     607.0776
   1423.87573     763.4906     606.0775   1423.87573     763.4906     606.0775
   1423.86047     764.2159     606.7611   1423.86047     764.2159     606.7611
   1423.84521     763.4543     606.8397   1423.84521     763.4543     606.8397
   1423.82996     761.5291     605.6104   1423.82996     761.5291     605.6104
   1423.81470     761.7724     605.5917   1423.81470     761.7724     605.5917
   1423.79944     760.9067     605.3580   1423.79944     760.9067     605.3580
   1423.78418     759.8395     604.0688   1423.78418     759.8395     604.0688
   1423.76892     759.7768     603.9391   1423.76892     759.7768     603.9391
   1423.75366     759.0541     604.2957   1423.75366     759.0541     604.2957
   1423.73840     759.7872     603.2100   1423.73840     759.7872     603.2100
   1423.72314     758.3936     603.3073   1423.72314     758.3936     603.3073
   1423.70789     757.4953     602.1598   1423.70789     757.4953     602.1598
   1423.69263     756.1065     602.8875   1423.69263     756.1065     602.8875
   1423.67737     757.3055     602.4561   1423.67737     757.3055     602.4561
   1423.66211     756.9636     602.4803   1423.66211     756.9636     602.4803
   1423.64685     755.6907     601.0123   1423.64685     755.6907     601.0123
   1423.63159     755.1381     600.8605   1423.63159     755.1381     600.8605
   1423.61633     753.5410     600.0005   1423.61633     753.5410     600.0005
   1423.60107     753.5975     600.0533   1423.60107     753.5975     600.0533
   1423.58582     753.1881     599.5277   1423.58582     753.1881     599.5277
   1423.57056     751.9559     598.9065   1423.57056     751.9559     598.9065
   1423.55530     752.4543     599.1669   1423.55530     752.4543     599.1669
   1423.54004     752.2728     597.5902   1423.54004     752.2728     597.5902
   1423.52478     750.8206     597.8397   1423.52478     750.8206     597.8397
   1423.50952     751.4642     597.4805   1423.50952     751.4642     597.4805
   1423.49426     750.0432     598.1200   1423.49426     750.0432     598.1200
   1423.47900     750.0615     597.3279   1423.47900     750.0615     597.3279
   1423.46375     748.9294     595.5439   1423.46375     748.9294     595.5439
   1423.44849     747.2058     596.0448   1423.44849     747.2058     596.0448
   1423.43323     746.9653     595.6772   1423.43323     746.9653     595.6772
   1423.41797     747.6421     594.6611   1423.41797     747.6421     594.6611
   1423.40271     747.2556     594.6775   1423.40271     747.2556     594.6775
   1423.38745     747.0524     594.6646   1423.38745     747.0524     594.6646
   1423.37219     746.4510     593.9248   1423.37219     746.4510     593.9248
   1423.35693     745.8030     593.3928   1423.35693     745.8030     593.3928
   1423.34167     744.5869     592.0599   1423.34167     744.5869     592.0599
   1423.32642     743.4532     592.6033   1423.32642     743.4532     592.6033
   1423.31116     743.5786     591.4255   1423.31116     743.5786     591.4255
   1423.29590     743.7407     590.4346   1423.29590     743.7407     590.4346
   1423.28064     741.6690     589.1436   1423.28064     741.6690     589.1436
   1423.26538     742.9465     589.2275   1423.26538     742.9465     589.2275
   1423.25012     741.3625     589.7911   1423.25012     741.3625     589.7911
   1423.23486     742.0914     589.7628   1423.23486     742.0914     589.7628
   1423.21960     740.8407     587.8041   1423.21960     740.8407     587.8041
   1423.20435     738.9709     587.1288   1423.20435     738.9709     587.1288
   1423.18909     739.7208     587.1105   1423.18909     739.7208     587.1105
   1423.17383     739.3539     586.4993   1423.17383     739.3539     586.4993
   1423.15857     738.4877     585.8542   1423.15857     738.4877     585.8542
   1423.14331     738.6857     585.0441   1423.14331     738.6857     585.0441
   1423.12805     737.4971     584.4186   1423.12805     737.4971     584.4186
   1423.11279     737.2225     583.3148   1423.11279     737.2225     583.3148
   1423.09753     736.5255     583.8500   1423.09753     736.5255     583.8500
   1423.08228     736.8602     582.7485   1423.08228     736.8602     582.7485
   1423.06702     736.5881     583.0979   1423.06702     736.5881     583.0979
   1423.05176     736.3904     581.2880   1423.05176     736.3904     581.2880
   1423.03650     735.2578     580.8386   1423.03650     735.2578     580.8386
   1423.02124     735.7177     581.1901   1423.02124     735.7177     581.1901
   1423.00598     733.8427     579.7120   1423.00598     733.8427     579.7120
   1422.99072     735.0831     578.9119   1422.99072     735.0831     578.9119
   1422.97546     733.7101     578.9087   1422.97546     733.7101     578.9087
   1422.96021     733.1649     577.5853   1422.96021     733.1649     577.5853
   1422.94495     733.5117     576.2709   1422.94495     733.5117     576.2709
   1422.92969     732.8360     576.8664   1422.92969     732.8360     576.8664
   1422.91443     732.2709     575.8846   1422.91443     732.2709     575.8846
   1422.89917     730.7892     574.1161   1422.89917     730.7892     574.1161
   1422.88391     730.9855     574.7434   1422.88391     730.9855     574.7434
   1422.86865     731.3337     572.7594   1422.86865     731.3337     572.7594
   1422.85339     730.3422     572.9131   1422.85339     730.3422     572.9131
   1422.83813     730.4696     572.1533   1422.83813     730.4696     572.1533
   1422.82288     730.5279     571.1216   1422.82288     730.5279     571.1216
   1422.80762     729.2271     571.0889   1422.80762     729.2271     571.0889
   1422.79236     730.2334     569.0866   1422.79236     730.2334     569.0866
   1422.77710     729.9045     568.4493   1422.77710     729.9045     568.4493
   1422.76184     728.7011     567.5824   1422.76184     728.7011     567.5824
   1422.74658     728.4410     566.9999   1422.74658     728.4410     566.9999
   1422.73132     728.1750     566.4389   1422.73132     728.1750     566.4389
   1422.71606     726.4477     564.7250   1422.71606     726.4477     564.7250
   1422.70081     727.7374     565.0104   1422.70081     727.7374     565.0104
   1422.68555     727.7980     564.5165   1422.68555     727.7980     564.5165
   1422.67029     727.1939     563.6523   1422.67029     727.1939     563.6523
   1422.65503     726.3620     562.3706   1422.65503     726.3620     562.3706
   1422.63977     726.4004     561.9714   1422.63977     726.4004     561.9714
   1422.62451     725.9246     561.2538   1422.62451     725.9246     561.2538
   1422.60925     726.4802     560.5298   1422.60925     726.4802     560.5298
   1422.59399     725.7219     559.2444   1422.59399     725.7219     559.2444
   1422.57874     724.7148     557.7227   1422.57874     724.7148     557.7227
   1422.56348     724.9537     557.4553   1422.56348     724.9537     557.4553
   1422.54822     725.2043     555.8760   1422.54822     725.2043     555.8760
   1422.53296     724.4431     556.8893   1422.53296     724.4431     556.8893
   1422.51770     725.5247     555.1879   1422.51770     725.5247     555.1879
   1422.50244     724.4635     553.5577   1422.50244     724.4635     553.5577
   1422.48718     723.3345     553.4156   1422.48718     723.3345     553.4156
   1422.47192     724.2544     552.4398   1422.47192     724.2544     552.4398
   1422.45667     723.3900     551.5645   1422.45667     723.3900     551.5645
   1422.44141     723.7581     550.5316   1422.44141     723.7581     550.5316
   1422.42615     723.6104     550.2614   1422.42615     723.6104     550.2614
   1422.41089     722.4773     548.8540   1422.41089     722.4773     548.8540
   1422.39563     723.1308     547.4338   1422.39563     723.1308     547.4338
   1422.38037     722.3755     546.8549   1422.38037     722.3755     546.8549
   1422.36511     723.2893     545.6620   1422.36511     723.2893     545.6620
   1422.34985     722.2936     545.4615   1422.34985     722.2936     545.4615
   1422.33459     723.1497     545.2304   1422.33459     723.1497     545.2304
   1422.31934     722.4057     543.5225   1422.31934     722.4057     543.5225
   1422.30408     721.7385     542.4174   1422.30408     721.7385     542.4174
   1422.28882     721.9550     541.4125   1422.28882     721.9550     541.4125
   1422.27356     721.1727     540.8168   1422.27356     721.1727     540.8168
   1422.25830     721.8642     539.2800   1422.25830     721.8642     539.2800
   1422.24304     721.9415     538.8043   1422.24304     721.9415     538.8043
   1422.22778     720.5772     536.8255   1422.22778     720.5772     536.8255
   1422.21252     720.5419     537.1096   1422.21252     720.5419     537.1096
   1422.19727     721.5286     535.9194   1422.19727     721.5286     535.9194
   1422.18201     721.1347     534.3767   1422.18201     721.1347     534.3767
   1422.16675     719.5614     533.5572   1422.16675     719.5614     533.5572
   1422.15149     720.3833     532.8007   1422.15149     720.3833     532.8007
   1422.13623     720.2495     531.2466   1422.13623     720.2495     531.2466
   1422.12097     720.0970     531.0418   1422.12097     720.0970     531.0418
   1422.10571     720.5765     530.4059   1422.10571     720.5765     530.4059
   1422.09045     718.8965     528.8994   1422.09045     718.8965     528.8994
   1422.07520     720.2220     526.9291   1422.07520     720.2220     526.9291
   1422.05994     720.8309     526.8354   1422.05994     720.8309     526.8354
   1422.04468     719.8865     525.3984   1422.04468     719.8865     525.3984
   1422.02942     719.5585     525.7217   1422.02942     719.5585     525.7217
   1422.01416     720.2306     523.9113   1422.01416     720.2306     523.9113
   1421.99890     718.7737     523.1060   1421.99890     718.7737     523.1060
   1421.98364     718.8047     522.6090   1421.98364     718.8047     522.6090
   1421.96838     719.1154     521.3821   1421.96838     719.1154     521.3821
   1421.95312     718.6009     520.6479   1421.95312     718.6009     520.6479
   1421.93787     720.0049     518.7337   1421.93787     720.0049     518.7337
   1421.92261     718.9760     517.9470   1421.92261     718.9760     517.9470
   1421.90735     718.5294     516.7823   1421.90735     718.5294     516.7823
   1421.89209     717.7760     515.6420   1421.89209     717.7760     515.6420
   1421.87683     718.0909     514.9921   1421.87683     718.0909     514.9921
   1421.86157     719.2414     513.9363   1421.86157     719.2414     513.9363
   1421.84631     718.1428     512.0026   1421.84631     718.1428     512.0026
   1421.83105     717.7059     511.8662   1421.83105     717.7059     511.8662
   1421.81580     718.5844     510.9875   1421.81580     718.5844     510.9875
   1421.80054     717.9711     509.5389   1421.80054     717.9711     509.5389
   1421.78528     717.8326     508.6958   1421.78528     717.8326     508.6958
   1421.77002     717.1371     507.4603   1421.77002     717.1371     507.4603
   1421.75476     719.0531     506.1247   1421.75476     719.0531     506.1247
   1421.73950     718.2145     505.1794   1421.73950     718.2145     505.1794
   1421.72424     717.6678     504.1975   1421.72424     717.6678     504.1975
   1421.70898     717.0331     503.7186   1421.70898     717.0331     503.7186
   1421.69373     715.4744     502.0245   1421.69373     715.4744     502.0245
   1421.67847     716.8801     501.6309   1421.67847     716.8801     501.6309
   1421.66321     717.7642     500.0149   1421.66321     717.7642     500.0149
   1421.64795     716.3259     499.4920   1421.64795     716.3259     499.4920
   1421.63269     717.2867     498.1730   1421.63269     717.2867     498.1730
   1421.61743     716.7059     497.3950   1421.61743     716.7059     497.3950
   1421.60217     716.2111     496.6397   1421.60217     716.2111     496.6397
   1421.58691     716.8329     494.6609   1421.58691     716.8329     494.6609
   1421.57166     716.0938     495.0135   1421.57166     716.0938     495.0135
   1421.55640     716.5889     492.8933   1421.55640     716.5889     492.8933
   1421.54114     717.2245     491.2674   1421.54114     717.2245     491.2674
   1421.52588     715.5876     490.4391   1421.52588     715.5876     490.4391
   1421.51062     715.9801     489.2762   1421.51062     715.9801     489.2762
   1421.49536     716.7832     489.1536   1421.49536     716.7832     489.1536
   1421.48010     714.9744     487.4926   1421.48010     714.9744     487.4926
   1421.46484     714.9872     487.1089   1421.46484     714.9872     487.1089
   1421.44958     716.8967     485.7861   1421.44958     716.8967     485.7861
   1421.43433     715.0856     484.7589   1421.43433     715.0856     484.7589
   1421.41907     715.9977     483.3136   1421.41907     715.9977     483.3136
   1421.40381     717.3811     482.2570   1421.40381     717.3811     482.2570
   1421.38855     715.2053     481.3032   1421.38855     715.2053     481.3032
   1421.37329     715.5385     479.9480   1421.37329     715.5385     479.9480
   1421.35803     715.0770     479.2737   1421.35803     715.0770     479.2737
   1421.34277     715.8508     478.2707   1421.34277     715.8508     478.2707
   1421.32751     715.3064     477.0940   1421.32751     715.3064     477.0940
   1421.31226     715.7567     476.4023   1421.31226     715.7567     476.4023
   1421.29700     714.9872     475.2683   1421.29700     714.9872     475.2683
   1421.28174     714.1474     473.8273   1421.28174     714.1474     473.8273
   1421.26648     714.8184     473.3235   1421.26648     714.8184     473.3235
   1421.25122     713.8736     471.3951   1421.25122     713.8736     471.3951
   1421.23596     714.3970     471.4097   1421.23596     714.3970     471.4097
   1421.22070     713.9697     470.3650   1421.22070     713.9697     470.3650
   1421.20544     713.1844     468.9557   1421.20544     713.1844     468.9557
   1421.19019     713.2552     467.8074   1421.19019     713.2552     467.8074
   1421.17493     714.0790     465.5503   1421.17493     714.0790     465.5503
   1421.15967     713.5615     465.6833   1421.15967     713.5615     465.6833
   1421.14441     712.8578     464.5015   1421.14441     712.8578     464.5015
   1421.12915     713.3625     464.0941   1421.12915     713.3625     464.0941
   1421.11389     713.9355     462.4077   1421.11389     713.9355     462.4077
   1421.09863     713.2502     461.6030   1421.09863     713.2502     461.6030
   1421.08337     712.3073     460.6618   1421.08337     712.3073     460.6618
   1421.06812     712.4718     459.0851   1421.06812     712.4718     459.0851
   1421.05286     713.6635     459.2838   1421.05286     713.6635     459.2838
   1421.03760     713.1521     459.1162   1421.03760     713.1521     459.1162
   1421.02234     714.5419     458.5845   1421.02234     714.5419     458.5845
   1421.00708     715.3781     457.3382   1421.00708     715.3781     457.3382
   1420.99182     715.2721     456.5262   1420.99182     715.2721     456.5262
   1420.97656     716.9774     456.9847   1420.97656     716.9774     456.9847
   1420.96130     716.4908     456.4516   1420.96130     716.4908     456.4516
   1420.94604     718.2318     455.6800   1420.94604     718.2318     455.6800
   1420.93079     719.8732     455.5378   1420.93079     719.8732     455.5378
   1420.91553     720.2132     455.7940   1420.91553     720.2132     455.7940
   1420.90027     720.5061     454.1613   1420.90027     720.5061     454.1613
   1420.88501     722.2485     453.3116   1420.88501     722.2485     453.3116
   1420.86975     722.3066     453.4821   1420.86975     722.3066     453.4821
   1420.85449     724.4398     453.4494   1420.85449     724.4398     453.4494
   1420.83923     726.5640     454.5654   1420.83923     726.5640     454.5654
   1420.82397     731.4971     456.2061   1420.82397     731.4971     456.2061
   1420.80872     741.2714     461.4706   1420.80872     741.2714     461.4706
   1420.79346     756.0596     470.0393   1420.79346     756.0596     470.0393
   1420.77820     779.0196     482.4616   1420.77820     779.0196     482.4616
   1420.76294     806.5241     498.0126   1420.76294     806.5241     498.0126
   1420.74768     828.4437     510.6858   1420.74768     828.4437     510.6858
   1420.73242     863.5521     530.9071   1420.73242     863.5521     530.9071
   1420.71716     928.4461     569.2919   1420.71716     928.4461     569.2919
   1420.70190    1082.3938     658.1766   1420.70190    1082.3938     658.1766
   1420.68665    1211.3295     734.1624   1420.68665    1211.3295     734.1624
   1420.67139    1482.2450     895.9344   1420.67139    1482.2450     895.9344
   1420.65613    1901.0122    1143.0743   1420.65613    1901.0122    1143.0743
   1420.64087    2073.7996    1240.6008   1420.64087    2073.7996    1240.6008
   1420.62561    1843.7606    1103.1525   1420.62561    1843.7606    1103.1525
   1420.61035    1715.0592    1026.8129   1420.61035    1715.0592    1026.8129
   1420.59509    1932.5032    1151.2489   1420.59509    1932.5032    1151.2489
   1420.57983    2161.4250    1285.5774   1420.57983    2161.4250    1285.5774
   1420.56458    2297.6941    1362.6757   1420.56458    2297.6941    1362.6757
   1420.54932    2479.4023    1462.4427   1420.54932    2479.4023    1462.4427
   1420.53406    2573.9407    1517.0054   1420.53406    2573.9407    1517.0054
   1420.51880    2338.5439    1378.5284   1420.51880    2338.5439    1378.5284
   1420.50354    1789.1390    1057.2322   1420.50354    1789.1390    1057.2322
   1420.48828    1435.0297     849.0831   1420.48828    1435.0297     849.0831
   1420.47302    1275.4004     753.7917   1420.47302    1275.4004     753.7917
   1420.45776    1199.1630     708.7278   1420.45776    1199.1630     708.7278
   1420.44250    1269.4979     748.0867   1420.44250    1269.4979     748.0867
   1420.42725    1650.3572     967.2836   1420.42725    1650.3572     967.2836
   1420.41199    1867.1165    1088.1298   1420.41199    1867.1165    1088.1298
   1420.39673    1805.3521    1052.0311   1420.39673    1805.3521    1052.0311
   1420.38147    1717.9786     999.7175   1420.38147    1717.9786     999.7175
   1420.36621    1501.0515     873.4132   1420.36621    1501.0515     873.4132
   1420.35095    1147.9077     669.0972   1420.35095    1147.9077     669.0972
   1420.33569     892.6816     523.0934   1420.33569     892.6816     523.0934
   1420.32043     814.1754     477.1372   1420.32043     814.1754     477.1372
   1420.30518     767.9116     450.2389   1420.30518     767.9116     450.2389
   1420.28992     741.1501     434.5334   1420.28992     741.1501     434.5334
   1420.27466     728.4435     426.5923   1420.27466     728.4435     426.5923
   1420.25940     721.1854     421.0996   1420.25940     721.1854     421.0996
   1420.24414     716.7232     418.5031   1420.24414     716.7232     418.5031
   1420.22888     713.6592     416.4022   1420.22888     713.6592     416.4022
   1420.21362     710.6066     414.1533   1420.21362     710.6066     414.1533
   1420.19836     710.1349     412.0796   1420.19836     710.1349     412.0796
   1420.18311     707.8737     411.0256   1420.18311     707.8737     411.0256
   1420.16785     706.4838     409.5553   1420.16785     706.4838     409.5553
   1420.15259     706.3650     408.1274   1420.15259     706.3650     408.1274
   1420.13733     704.7260     406.9991   1420.13733     704.7260     406.9991
   1420.12207     705.1599     406.3531   1420.12207     705.1599     406.3531
   1420.10681     704.2913     405.3410   1420.10681     704.2913     405.3410
   1420.09155     702.1573     404.9835   1420.09155     702.1573     404.9835
   1420.07629     703.2283     403.7393   1420.07629     703.2283     403.7393
   1420.06104     701.5302     402.5931   1420.06104     701.5302     402.5931
   1420.04578     702.0914     401.9007   1420.04578     702.0914     401.9007
   1420.03052     701.2802     401.4241   1420.03052     701.2802     401.4241
   1420.01526     703.9887     402.2406   1420.01526     703.9887     402.2406
   1420.00000     704.3494     402.4469   1420.00000     704.3494     402.4469
   1419.98474     704.7104     402.6531   1419.98474     704.7104     402.6531
   1419.96948     702.6384     399.8633   1419.96948     702.6384     399.8633
   1419.95422     701.6174     397.9706   1419.95422     701.6174     397.9706
   1419.93896     700.3997     397.1667   1419.93896     700.3997     397.1667
   1419.92371     702.0125     396.6977   1419.92371     702.0125     396.6977
   1419.90845     700.6649     395.8106   1419.90845     700.6649     395.8106
   1419.89319     700.6870     395.6615   1419.89319     700.6870     395.6615
   1419.87793     699.7349     395.3700   1419.87793     699.7349     395.3700
   1419.86267     700.5018     395.0270   1419.86267     700.5018     395.0270
   1419.84741     700.6783     394.6440   1419.84741     700.6783     394.6440
   1419.83215     701.6093     394.3759   1419.83215     701.6093     394.3759
   1419.81689     700.6483     393.5011   1419.81689     700.6483     393.5011
   1419.80164     700.9471     392.9954   1419.80164     700.9471     392.9954
   1419.78638     700.7224     392.7503   1419.78638     700.7224     392.7503
   1419.77112     701.4816     392.6123   1419.77112     701.4816     392.6123
   1419.75586     701.7347     391.9089   1419.75586     701.7347     391.9089
   1419.74060     701.8450     391.3832   1419.74060     701.8450     391.3832
   1419.72534     701.9379     391.0143   1419.72534     701.9379     391.0143
   1419.71008     701.3516     391.1321   1419.71008     701.3516     391.1321
   1419.69482     702.0794     390.8650   1419.69482     702.0794     390.8650
   1419.67957     702.8658     390.8975   1419.67957     702.8658     390.8975
   1419.66431     702.7038     390.2711   1419.66431     702.7038     390.2711
   1419.64905     703.4423     389.6220   1419.64905     703.4423     389.6220
   1419.63379     703.1320     389.4242   1419.63379     703.1320     389.4242
   1419.61853     702.9243     389.6712   1419.61853     702.9243     389.6712
   1419.60327     702.5981     389.2088   1419.60327     702.5981     389.2088
   1419.58801     702.5491     388.9210   1419.58801     702.5491     388.9210
   1419.57275     704.3347     388.3657   1419.57275     704.3347     388.3657
   1419.55750     705.3893     388.4707   1419.55750     705.3893     388.4707
   1419.54224     704.0888     388.0877   1419.54224     704.0888     388.0877
   1419.52698     705.6604     387.5608   1419.52698     705.6604     387.5608
   1419.51172     705.3129     388.2383   1419.51172     705.3129     388.2383
   1419.49646     705.0391     388.0471   1419.49646     705.0391     388.0471
   1419.48120     704.6419     387.5082   1419.48120     704.6419     387.5082
   1419.46594     705.5240     387.5216   1419.46594     705.5240     387.5216
   1419.45068     705.7906     387.1515   1419.45068     705.7906     387.1515
   1419.43542     705.9421     386.1952   1419.43542     705.9421     386.1952
   1419.42017     706.1458     386.8734   1419.42017     706.1458     386.8734
   1419.40491     706.8386     386.8102   1419.40491     706.8386     386.8102
   1419.38965     707.2886     386.4539   1419.38965     707.2886     386.4539
   1419.37439     708.1999     386.3922   1419.37439     708.1999     386.3922
   1419.35913     707.4866     386.3614   1419.35913     707.4866     386.3614
   1419.34387     709.2558     386.2136   1419.34387     709.2558     386.2136
   1419.32861     708.3476     385.8582   1419.32861     708.3476     385.8582
   1419.31335     709.4786     386.1033   1419.31335     709.4786     386.1033
   1419.29810     709.8079     386.1650   1419.29810     709.8079     386.1650
   1419.28284     710.1006     386.8099   1419.28284     710.1006     386.8099
   1419.26758     710.0636     386.1246   1419.26758     710.0636     386.1246
   1419.25232     710.4142     386.8130   1419.25232     710.4142     386.8130
   1419.23706     711.4316     386.4807   1419.23706     711.4316     386.4807
   1419.22180     712.1329     385.6477   1419.22180     712.1329     385.6477
   1419.20654     711.0152     386.0237   1419.20654     711.0152     386.0237
   1419.19128     711.7641     385.7724   1419.19128     711.7641     385.7724
   1419.17603     712.1768     385.7814   1419.17603     712.1768     385.7814
   1419.16077     713.7914     386.1046   1419.16077     713.7914     386.1046
   1419.14551     714.0118     387.0609   1419.14551     714.0118     387.0609
   1419.13025     713.1066     386.0804   1419.13025     713.1066     386.0804
   1419.11499     714.3362     386.8929   1419.11499     714.3362     386.8929
   1419.09973     714.8511     386.9792   1419.09973     714.8511     386.9792
   1419.08447     714.1284     386.6412   1419.08447     714.1284     386.6412
   1419.06921     715.9657     386.7533   1419.06921     715.9657     386.7533
   1419.05396     717.6244     387.6905   1419.05396     717.6244     387.6905
   1419.03870     718.0280     386.6602   1419.03870     718.0280     386.6602
   1419.02344     718.6249     387.7625   1419.02344     718.6249     387.7625
   1419.00818     718.3072     387.7532   1419.00818     718.3072     387.7532
   1418.99292     718.4680     387.7094   1418.99292     718.4680     387.7094
   1418.97766     719.5298     388.5588   1418.97766     719.5298     388.5588
   1418.96240     720.2222     387.8466   1418.96240     720.2222     387.8466
   1418.94714     720.7888     388.0537   1418.94714     720.7888     388.0537
   1418.93188     721.3497     389.0458   1418.93188     721.3497     389.0458
   1418.91663     721.0516     389.1534   1418.91663     721.0516     389.1534
   1418.90137     721.7110     389.7438   1418.90137     721.7110     389.7438
   1418.88611     722.0818     389.4930   1418.88611     722.0818     389.4930
   1418.87085     722.6173     390.2723   1418.87085     722.6173     390.2723
   1418.85559     725.1396     389.9890   1418.85559     725.1396     389.9890
   1418.84033     724.4500     390.1790   1418.84033     724.4500     390.1790
   1418.82507     723.9576     390.6513   1418.82507     723.9576     390.6513
   1418.80981     725.1128     390.9930   1418.80981     725.1128     390.9930
   1418.79456     726.6482     390.9279   1418.79456     726.6482     390.9279
   1418.77930     727.3931     391.5564   1418.77930     727.3931     391.5564
   1418.76404     727.0262     391.8475   1418.76404     727.0262     391.8475
   1418.74878     727.8069     392.7189   1418.74878     727.8069     392.7189
   1418.73352     730.2062     393.6188   1418.73352     730.2062     393.6188
   1418.71826     729.9448     393.6642   1418.71826     729.9448     393.6642
   1418.70300     731.4977     393.6802   1418.70300     731.4977     393.6802
   1418.68774     730.4346     393.9085   1418.68774     730.4346     393.9085
   1418.67249     732.1373     394.7933   1418.67249     732.1373     394.7933
   1418.65723     732.2954     395.1249   1418.65723     732.2954     395.1249
   1418.64197     732.7896     395.1429   1418.64197     732.7896     395.1429
   1418.62671     733.8250     396.1367   1418.62671     733.8250     396.1367
   1418.61145     734.6689     396.2892   1418.61145     734.6689     396.2892
   1418.59619     735.8592     396.9919   1418.59619     735.8592     396.9919
   1418.58093     735.1614     397.5932   1418.58093     735.1614     397.5932
   1418.56567     736.2685     397.1261   1418.56567     736.2685     397.1261
   1418.55042     738.4620     398.4471   1418.55042     738.4620     398.4471
   1418.53516     737.4719     399.0290   1418.53516     737.4719     399.0290
   1418.51990     739.7767     399.3583   1418.51990     739.7767     399.3583
   1418.50464     740.5842     399.9603   1418.50464     740.5842     399.9603
   1418.48938     741.3400     400.3637   1418.48938     741.3400     400.3637
   1418.47412     741.2372     401.4077   1418.47412     741.2372     401.4077
   1418.45886     741.1951     401.8358   1418.45886     741.1951     401.8358
   1418.44360     743.6078     402.2196   1418.44360     743.6078     402.2196
   1418.42834     742.6503     402.5270   1418.42834     742.6503     402.5270
   1418.41309     743.5898     403.2632   1418.41309     743.5898     403.2632
   1418.39783     746.0510     403.9517   1418.39783     746.0510     403.9517
   1418.38257     745.6998     404.6857   1418.38257     745.6998     404.6857
   1418.36731     747.6198     406.0155   1418.36731     747.6198     406.0155
   1418.35205     748.0609     406.3680   1418.35205     748.0609     406.3680
   1418.33679     748.5673     406.7361   1418.33679     748.5673     406.7361
   1418.32153     750.4216     407.1266   1418.32153     750.4216     407.1266
   1418.30627     750.7276     408.5273   1418.30627     750.7276     408.5273
   1418.29102     752.1158     409.3099   1418.29102     752.1158     409.3099
   1418.27576     751.8951     408.9716   1418.27576     751.8951     408.9716
   1418.26050     753.4714     410.6239   1418.26050     753.4714     410.6239
   1418.24524     754.1998     411.2464   1418.24524     754.1998     411.2464
   1418.22998     754.0010     412.2418   1418.22998     754.0010     412.2418
   1418.21472     754.8237     412.8421   1418.21472     754.8237     412.8421
   1418.19946     757.3522     413.1800   1418.19946     757.3522     413.1800
   1418.18420     756.1072     413.8247   1418.18420     756.1072     413.8247
   1418.16895     758.0526     415.3080   1418.16895     758.0526     415.3080
   1418.15369     758.9623     415.8302   1418.15369     758.9623     415.8302
   1418.13843     760.2926     415.8922   1418.13843     760.2926     415.8922
   1418.12317     760.8431     417.6674   1418.12317     760.8431     417.6674
   1418.10791     761.5558     417.9424   1418.10791     761.5558     417.9424
   1418.09265     762.8150     418.1015   1418.09265     762.8150     418.1015
   1418.07739     764.5701     419.7333   1418.07739     764.5701     419.7333
   1418.06213     764.5884     420.6644   1418.06213     764.5884     420.6644
   1418.04688     765.4693     421.5941   1418.04688     765.4693     421.5941
   1418.03162     766.1799     422.4387   1418.03162     766.1799     422.4387
   1418.01636     766.3709     423.0362   1418.01636     766.3709     423.0362
   1418.00110     768.1915     424.2124   1418.00110     768.1915     424.2124
   1417.98584     768.8865     424.7675   1417.98584     768.8865     424.7675
   1417.97058     769.8560     425.8876   1417.97058     769.8560     425.8876
   1417.95532     770.4795     427.2463   1417.95532     770.4795     427.2463
   1417.94006     771.4675     427.3744   1417.94006     771.4675     427.3744
   1417.92480     773.6390     429.2577   1417.92480     773.6390     429.2577
   1417.90955     773.9334     429.5969   1417.90955     773.9334     429.5969
   1417.89429     775.6141     430.9799   1417.89429     775.6141     430.9799
   1417.87903     775.9151     432.0294   1417.87903     775.9151     432.0294
   1417.86377     776.8781     433.0747   1417.86377     776.8781     433.0747
   1417.84851     777.7841     433.6566   1417.84851     777.7841     433.6566
   1417.83325     778.5400     434.5647   1417.83325     778.5400     434.5647
   1417.81799     779.0157     435.8472   1417.81799     779.0157     435.8472
   1417.80273     780.5139     436.9322   1417.80273     780.5139     436.9322
   1417.78748     781.4578     437.9155   1417.78748     781.4578     437.9155
   1417.77222     783.3154     438.9052   1417.77222     783.3154     438.9052
   1417.75696     783.0883     440.0582   1417.75696     783.0883     440.0582
   1417.74170     784.0377     441.1783   1417.74170     784.0377     441.1783
   1417.72644     785.6933     442.2097   1417.72644     785.6933     442.2097
   1417.71118     786.1002     443.6147   1417.71118     786.1002     443.6147
   1417.69592     787.6459     444.3102   1417.69592     787.6459     444.3102
   1417.68066     788.2184     445.6371   1417.68066     788.2184     445.6371
   1417.66541     788.7115     445.4496   1417.66541     788.7115     445.4496
   1417.65015     790.6563     447.0287   1417.65015     790.6563     447.0287
   1417.63489     790.5635     448.8372   1417.63489     790.5635     448.8372
   1417.61963     792.6276     449.7578   1417.61963     792.6276     449.7578
   1417.60437     792.6138     450.1234   1417.60437     792.6138     450.1234
   1417.58911     793.7479     452.2204   1417.58911     793.7479     452.2204
   1417.57385     794.1608     452.6087   1417.57385     794.1608     452.6087
   1417.55859     795.6993     454.7534   1417.55859     795.6993     454.7534
   1417.54333     796.4670     455.6293   1417.54333     796.4670     455.6293
   1417.52808     798.1281     455.8197   1417.52808     798.1281     455.8197
   1417.51282     798.6562     458.0224   1417.51282     798.6562     458.0224
   1417.49756     799.6732     459.5195   1417.49756     799.6732     459.5195
   1417.48230     800.6682     460.5706   1417.48230     800.6682     460.5706
   1417.46704     800.4415     461.2612   1417.46704     800.4415     461.2612
   1417.45178     801.6674     461.6917   1417.45178     801.6674     461.6917
   1417.43652     801.2703     463.8343   1417.43652     801.2703     463.8343
   1417.42126     802.1692     465.0177   1417.42126     802.1692     465.0177
   1417.40601     803.7934     466.2812   1417.40601     803.7934     466.2812
   1417.39075     804.2515     467.4933   1417.39075     804.2515     467.4933
   1417.37549     805.9225     468.5305   1417.37549     805.9225     468.5305
   1417.36023     805.7516     469.3975   1417.36023     805.7516     469.3975
   1417.34497     807.1291     470.8660   1417.34497     807.1291     470.8660
   1417.32971     808.7737     471.6938   1417.32971     808.7737     471.6938
   1417.31445     810.1772     473.0053   1417.31445     810.1772     473.0053
   1417.29919     809.0894     473.6369   1417.29919     809.0894     473.6369
   1417.28394     809.5031     475.5896   1417.28394     809.5031     475.5896
   1417.26868     812.1715     476.6853   1417.26868     812.1715     476.6853
   1417.25342     812.2356     477.4288   1417.25342     812.2356     477.4288
   1417.23816     812.5593     479.2980   1417.23816     812.5593     479.2980
   1417.22290     814.1925     479.6999   1417.22290     814.1925     479.6999
   1417.20764     814.7538     480.5730   1417.20764     814.7538     480.5730
   1417.19238     814.6998     482.7375   1417.19238     814.6998     482.7375
   1417.17712     816.7685     484.1184   1417.17712     816.7685     484.1184
   1417.16187     815.9934     484.8968   1417.16187     815.9934     484.8968
   1417.14661     817.7316     485.6701   1417.14661     817.7316     485.6701
   1417.13135     818.0166     488.1132   1417.13135     818.0166     488.1132
   1417.11609     818.4646     488.4067   1417.11609     818.4646     488.4067
   1417.10083     818.3012     488.7735   1417.10083     818.3012     488.7735
   1417.08557     819.8147     490.1518   1417.08557     819.8147     490.1518
   1417.07031     820.1959     492.2172   1417.07031     820.1959     492.2172
   1417.05505     820.2322     493.2227   1417.05505     820.2322     493.2227
   1417.03979     821.3339     493.5966   1417.03979     821.3339     493.5966
   1417.02454     821.7451     494.8297   1417.02454     821.7451     494.8297
   1417.00928     823.4973     496.5446   1417.00928     823.4973     496.5446
   1416.99402     823.6384     498.7099   1416.99402     823.6384     498.7099
   1416.97876     822.5258     499.0304   1416.97876     822.5258     499.0304
   1416.96350     824.2010     500.0549   1416.96350     824.2010     500.0549
   1416.94824     824.6751     500.7835   1416.94824     824.6751     500.7835
   1416.93298     824.9693     502.0589   1416.93298     824.9693     502.0589
   1416.91772     828.1710     504.2499   1416.91772     828.1710     504.2499
   1416.90247     825.5121     504.7768   1416.90247     825.5121     504.7768
   1416.88721     827.6741     505.5478   1416.88721     827.6741     505.5478
   1416.87195     827.2296     506.9031   1416.87195     827.2296     506.9031
   1416.85669     826.6279     507.3599   1416.85669     826.6279     507.3599
   1416.84143     826.6324     509.1976   1416.84143     826.6324     509.1976
   1416.82617     827.5530     510.1217   1416.82617     827.5530     510.1217
   1416.81091     827.4141     510.6190   1416.81091     827.4141     510.6190
   1416.79565     828.8612     511.7706   1416.79565     828.8612     511.7706
   1416.78040     828.6418     511.9278   1416.78040     828.6418     511.9278
   1416.76514     828.6520     513.6349   1416.76514     828.6520     513.6349
   1416.74988     829.5485     514.1930   1416.74988     829.5485     514.1930
   1416.73462     830.2125     514.9910   1416.73462     830.2125     514.9910
   1416.71936     831.3464     516.7004   1416.71936     831.3464     516.7004
   1416.70410     829.9713     517.3097   1416.70410     829.9713     517.3097
   1416.68884     830.1371     517.8590   1416.68884     830.1371     517.8590
   1416.67358     831.0734     519.6731   1416.67358     831.0734     519.6731
   1416.65833     830.8620     520.4835   1416.65833     830.8620     520.4835
   1416.64307     830.2858     521.1694   1416.64307     830.2858     521.1694
   1416.62781     831.7944     521.6934   1416.62781     831.7944     521.6934
   1416.61255     831.1396     522.7839   1416.61255     831.1396     522.7839
   1416.59729     831.7772     523.0880   1416.59729     831.7772     523.0880
   1416.58203     830.1913     524.0854   1416.58203     830.1913     524.0854
   1416.56677     830.8452     525.4092   1416.56677     830.8452     525.4092
   1416.55151     830.8510     525.7966   1416.55151     830.8510     525.7966
   1416.53625     829.4147     526.0276   1416.53625     829.4147     526.0276
   1416.52100     830.5740     527.2294   1416.52100     830.5740     527.2294
   1416.50574     831.2911     527.9174   1416.50574     831.2911     527.9174
   1416.49048     829.5070     527.7298   1416.49048     829.5070     527.7298
   1416.47522     832.0458     529.0665   1416.47522     832.0458     529.0665
   1416.45996     829.7310     530.3183   1416.45996     829.7310     530.3183
   1416.44470     828.9370     529.9437   1416.44470     828.9370     529.9437
   1416.42944     830.0100     531.5139   1416.42944     830.0100     531.5139
   1416.41418     829.8624     531.4396   1416.41418     829.8624     531.4396
   1416.39893     829.1686     532.5223   1416.39893     829.1686     532.5223
   1416.38367     828.6005     532.3332   1416.38367     828.6005     532.3332
   1416.36841     828.3820     532.7776   1416.36841     828.3820     532.7776
   1416.35315     827.2698     533.1772   1416.35315     827.2698     533.1772
   1416.33789     828.5317     533.7917   1416.33789     828.5317     533.7917
   1416.32263     828.8981     534.4355   1416.32263     828.8981     534.4355
   1416.30737     828.1044     534.5421   1416.30737     828.1044     534.5421
   1416.29211     826.5570     534.6497   1416.29211     826.5570     534.6497
   1416.27686     827.5159     535.5380   1416.27686     827.5159     535.5380
   1416.26160     826.7864     535.2334   1416.26160     826.7864     535.2334
   1416.24634     827.3799     536.2017   1416.24634     827.3799     536.2017
   1416.23108     826.2340     536.3474   1416.23108     826.2340     536.3474
   1416.21582     825.3386     537.1334   1416.21582     825.3386     537.1334
   1416.20056     824.5537     537.0073   1416.20056     824.5537     537.0073
   1416.18530     823.8835     537.4118   1416.18530     823.8835     537.4118
   1416.17004     823.9432     536.4556   1416.17004     823.9432     536.4556
   1416.15479     822.5822     537.1218   1416.15479     822.5822     537.1218
   1416.13953     822.2033     536.8995   1416.13953     822.2033     536.8995
   1416.12427     821.6479     538.0052   1416.12427     821.6479     538.0052
   1416.10901     821.8803     537.8955   1416.10901     821.8803     537.8955
   1416.09375     820.7213     537.9233   1416.09375     820.7213     537.9233
   1416.07849     819.1262     538.0596   1416.07849     819.1262     538.0596
   1416.06323     820.6717     538.6441   1416.06323     820.6717     538.6441
   1416.04797     818.5095     538.5585   1416.04797     818.5095     538.5585
   1416.03271     817.7462     537.7350   1416.03271     817.7462     537.7350
   1416.01746     818.4457     536.8992   1416.01746     818.4457     536.8992
   1416.00220     816.5580     537.7169   1416.00220     816.5580     537.7169
   1415.98694     816.4943     538.4281   1415.98694     816.4943     538.4281
   1415.97168     816.2334     538.2450   1415.97168     816.2334     538.2450
   1415.95642     814.4052     537.8870   1415.95642     814.4052     537.8870
   1415.94116     812.7623     538.4451   1415.94116     812.7623     538.4451
   1415.92590     813.5279     538.1541   1415.92590     813.5279     538.1541
   1415.91064     811.2802     537.7791   1415.91064     811.2802     537.7791
   1415.89539     810.3658     537.7704   1415.89539     810.3658     537.7704
   1415.88013     811.7278     537.9625   1415.88013     811.7278     537.9625
   1415.86487     810.1445     538.0541   1415.86487     810.1445     538.0541
   1415.84961     809.5034     536.9794   1415.84961     809.5034     536.9794
   1415.83435     809.1255     537.8602   1415.83435     809.1255     537.8602
   1415.81909     808.6585     538.0842   1415.81909     808.6585     538.0842
   1415.80383     806.3185     536.6957   1415.80383     806.3185     536.6957
   1415.78857     805.8351     537.0981   1415.78857     805.8351     537.0981
   1415.77332     804.7761     536.6288   1415.77332     804.7761     536.6288
   1415.75806     802.7339     536.4150   1415.75806     802.7339     536.4150
   1415.74280     801.7891     536.2545   1415.74280     801.7891     536.2545
   1415.72754     802.5008     535.9716   1415.72754     802.5008     535.9716
   1415.71228     802.2227     536.1571   1415.71228     802.2227     536.1571
   1415.69702     800.3566     535.6593   1415.69702     800.3566     535.6593
   1415.68176     798.1353     535.2126   1415.68176     798.1353     535.2126
   1415.66650     798.2679     534.3554   1415.66650     798.2679     534.3554
   1415.65125     797.7007     535.0726   1415.65125     797.7007     535.0726
   1415.63599     796.4015     534.5425   1415.63599     796.4015     534.5425
   1415.62073     795.8881     534.3743   1415.62073     795.8881     534.3743
   1415.60547     794.1233     533.3426   1415.60547     794.1233     533.3426
   1415.59021     793.5864     533.0499   1415.59021     793.5864     533.0499
   1415.57495     792.3386     533.1671   1415.57495     792.3386     533.1671
   1415.55969     791.9353     533.2739   1415.55969     791.9353     533.2739
   1415.54443     789.8384     532.5077   1415.54443     789.8384     532.5077
   1415.52917     790.1505     531.9467   1415.52917     790.1505     531.9467
   1415.51392     787.7691     531.5660   1415.51392     787.7691     531.5660
   1415.49866     787.0793     531.1267   1415.49866     787.0793     531.1267
   1415.48340     785.7334     531.3351   1415.48340     785.7334     531.3351
   1415.46814     784.9233     531.1698   1415.46814     784.9233     531.1698
   1415.45288     784.1492     530.7023   1415.45288     784.1492     530.7023
   1415.43762     782.6682     529.8037   1415.43762     782.6682     529.8037
   1415.42236     782.6630     529.6561   1415.42236     782.6630     529.6561
   1415.40710     779.1673     528.2432   1415.40710     779.1673     528.2432
   1415.39185     779.1873     528.9925   1415.39185     779.1873     528.9925
   1415.37659     776.1249     527.6087   1415.37659     776.1249     527.6087
   1415.36133     776.3544     527.5975   1415.36133     776.3544     527.5975
   1415.34607     776.2742     526.1850   1415.34607     776.2742     526.1850
   1415.33081     773.9646     526.7704   1415.33081     773.9646     526.7704
   1415.31555     771.6346     525.2969   1415.31555     771.6346     525.2969
   1415.30029     771.5015     525.1713   1415.30029     771.5015     525.1713
   1415.28503     769.8421     523.6775   1415.28503     769.8421     523.6775
   1415.26978     768.3884     523.8970   1415.26978     768.3884     523.8970
   1415.25452     766.0845     523.0010   1415.25452     766.0845     523.0010
   1415.23926     766.2990     523.0183   1415.23926     766.2990     523.0183
   1415.22400     763.5886     522.6682   1415.22400     763.5886     522.6682
   1415.20874     761.9232     521.6774   1415.20874     761.9232     521.6774
   1415.19348     761.5089     520.2212   1415.19348     761.5089     520.2212
   1415.17822     760.2394     521.0822   1415.17822     760.2394     521.0822
   1415.16296     758.4221     519.0586   1415.16296     758.4221     519.0586
   1415.14771     756.7478     520.0011   1415.14771     756.7478     520.0011
   1415.13245     755.7227     518.3779   1415.13245     755.7227     518.3779
   1415.11719     753.8235     518.0143   1415.11719     753.8235     518.0143
   1415.10193     752.5504     517.4029   1415.10193     752.5504     517.4029
   1415.08667     751.2013     515.6005   1415.08667     751.2013     515.6005
   1415.07141     749.1467     516.0298   1415.07141     749.1467     516.0298
   1415.05615     747.0419     516.2678   1415.05615     747.0419     516.2678
   1415.04089     746.4958     515.0994   1415.04089     746.4958     515.0994
   1415.02563     744.0868     513.5920   1415.02563     744.0868     513.5920
   1415.01038     743.1780     512.9203   1415.01038     743.1780     512.9203
   1414.99512     741.4224     511.2012   1414.99512     741.4224     511.2012
   1414.97986     740.3997     511.3915   1414.97986     740.3997     511.3915
   1414.96460     736.5952     510.5659   1414.96460     736.5952     510.5659
   1414.94934     735.7942     508.9731   1414.94934     735.7942     508.9731
   1414.93408     737.2990     509.0324   1414.93408     737.2990     509.0324
   1414.91882     733.4716     508.8010   1414.91882     733.4716     508.8010
   1414.90356     732.1939     506.6411   1414.90356     732.1939     506.6411
   1414.88831     729.6542     505.6476   1414.88831     729.6542     505.6476
   1414.87305     728.1617     505.4977   1414.87305     728.1617     505.4977
   1414.85779     725.7367     505.0582   1414.85779     725.7367     505.0582
   1414.84253     723.9176     503.8102   1414.84253     723.9176     503.8102
   1414.82727     722.3121     503.6000   1414.82727     722.3121     503.6000
   1414.81201     720.0944     501.5070   1414.81201     720.0944     501.5070
   1414.79675     719.2001     500.7328   1414.79675     719.2001     500.7328
   1414.78149     717.5026     500.1916   1414.78149     717.5026     500.1916
   1414.76624     715.0339     498.9165   1414.76624     715.0339     498.9165
   1414.75098     712.8760     498.0622   1414.75098     712.8760     498.0622
   1414.73572     712.3527     496.5059   1414.73572     712.3527     496.5059
   1414.72046     708.2435     496.0934   1414.72046     708.2435     496.0934
   1414.70520     707.6883     495.2357   1414.70520     707.6883     495.2357
   1414.68994     705.3143     493.6529   1414.68994     705.3143     493.6529
   1414.67468     703.9760     493.2372   1414.67468     703.9760     493.2372
   1414.65942     700.5654     491.4827   1414.65942     700.5654     491.4827
   1414.64417     698.2877     490.4292   1414.64417     698.2877     490.4292
   1414.62891     697.1557     489.4900   1414.62891     697.1557     489.4900
   1414.61365     696.1478     488.2159   1414.61365     696.1478     488.2159
   1414.59839     691.9471     487.0067   1414.59839     691.9471     487.0067
   1414.58313     690.7983     485.5611   1414.58313     690.7983     485.5611
   1414.56787     688.1158     484.9459   1414.56787     688.1158     484.9459
   1414.55261     685.9098     482.8844   1414.55261     685.9098     482.8844
   1414.53735     684.7899     481.9050   1414.53735     684.7899     481.9050
   1414.52209     681.8994     481.3239   1414.52209     681.8994     481.3239
   1414.50684     680.7161     479.8439   1414.50684     680.7161     479.8439
   1414.49158     679.7953     478.8405   1414.49158     679.7953     478.8405
   1414.47632     676.2208     477.6944   1414.47632     676.2208     477.6944
   1414.46106     673.1227     476.5879   1414.46106     673.1227     476.5879
   1414.44580     670.7762     474.8819   1414.44580     670.7762     474.8819
   1414.43054     668.8553     473.3250   1414.43054     668.8553     473.3250
   1414.41528     666.6335     472.1092   1414.41528     666.6335     472.1092
   1414.40002     664.9382     471.4622   1414.40002     664.9382     471.4622
   1414.38477     662.4167     468.9926   1414.38477     662.4167     468.9926
   1414.36951     660.4520     467.9324   1414.36951     660.4520     467.9324
   1414.35425     656.6076     466.1208   1414.35425     656.6076     466.1208
   1414.33899     653.2555     465.5268   1414.33899     653.2555     465.5268
   1414.32373     651.4939     464.2986   1414.32373     651.4939     464.2986
   1414.30847     649.9434     461.9595   1414.30847     649.9434     461.9595
   1414.29321     647.4066     460.9689   1414.29321     647.4066     460.9689
   1414.27795     644.9848     459.0384   1414.27795     644.9848     459.0384
   1414.26270     642.0569     457.5449   1414.26270     642.0569     457.5449
   1414.24744     639.7825     456.8305   1414.24744     639.7825     456.8305
   1414.23218     637.1744     454.9087   1414.23218     637.1744     454.9087
   1414.21692     634.9752     453.1704   1414.21692     634.9752     453.1704
   1414.20166     632.0557     451.9398   1414.20166     632.0557     451.9398
   1414.18640     629.3838     451.2350   1414.18640     629.3838     451.2350
   1414.17114     626.1002     448.8783   1414.17114     626.1002     448.8783
   1414.15588     625.0074     447.9932   1414.15588     625.0074     447.9932
   1414.14062     622.1735     446.1401   1414.14062     622.1735     446.1401
   1414.12537     619.0630     444.6106   1414.12537     619.0630     444.6106
   1414.11011     615.9717     443.1446   1414.11011     615.9717     443.1446
   1414.09485     613.9227     441.1030   1414.09485     613.9227     441.1030
   1414.07959     612.2800     439.7505   1414.07959     612.2800     439.7505
   1414.06433     607.5291     437.7123   1414.06433     607.5291     437.7123
   1414.04907     606.7808     436.8377   1414.04907     606.7808     436.8377
   1414.03381     603.6050     434.9221   1414.03381     603.6050     434.9221
   1414.01855     601.0429     433.6346   1414.01855     601.0429     433.6346
   1414.00330     627.7630     440.3383   1414.00330     627.7630     440.3383
   1413.98804     597.6990     430.3919   1413.98804     597.6990     430.3919
   1413.97278     592.8626     428.9379   1413.97278     592.8626     428.9379
   1413.95752     589.0454     426.2859   1413.95752     589.0454     426.2859
   1413.94226     586.5710     424.6217   1413.94226     586.5710     424.6217
   1413.92700     582.7696     422.8089   1413.92700     582.7696     422.8089
   1413.91174     580.3158     421.5733   1413.91174     580.3158     421.5733
   1413.89648     577.6379     419.7859   1413.89648     577.6379     419.7859
   1413.88123     575.3782     418.5313   1413.88123     575.3782     418.5313
   1413.86597     572.6457     416.0773   1413.86597     572.6457     416.0773
   1413.85071     569.4443     414.4859   1413.85071     569.4443     414.4859
   1413.83545     566.9988     413.8272   1413.83545     566.9988     413.8272
   1413.82019     563.4301     410.9807   1413.82019     563.4301     410.9807
   1413.80493     560.9015     409.8620   1413.80493     560.9015     409.8620
   1413.78967     558.0829     407.7005   1413.78967     558.0829     407.7005
   1413.77441     555.2057     405.9923   1413.77441     555.2057     405.9923
   1413.75916     552.0303     403.8983   1413.75916     552.0303     403.8983
   1413.74390     549.8170     402.0627   1413.74390     549.8170     402.0627
   1413.72864     547.0016     400.6059   1413.72864     547.0016     400.6059
   1413.71338     543.6976     399.3414   1413.71338     543.6976     399.3414
   1413.69812     540.8426     397.5207   1413.69812     540.8426     397.5207
   1413.68286     537.8177     395.2055   1413.68286     537.8177     395.2055
   1413.66760     535.5812     393.8469   1413.66760     535.5812     393.8469
   1413.65234     532.6865     392.2729   1413.65234     532.6865     392.2729
   1413.63708     530.2496     390.2420   1413.63708     530.2496     390.2420
   1413.62183     526.6864     388.1365   1413.62183     526.6864     388.1365
   1413.60657     524.0689     386.8154   1413.60657     524.0689     386.8154
   1413.59131     520.3726     385.3818   1413.59131     520.3726     385.3818
   1413.57605     519.6857     383.6633   1413.57605     519.6857     383.6633
   1413.56079     515.5560     381.7944   1413.56079     515.5560     381.7944
   1413.54553     512.9905     380.3903   1413.54553     512.9905     380.3903
   1413.53027     509.7729     378.1102   1413.53027     509.7729     378.1102
   1413.51501     507.6582     377.2279   1413.51501     507.6582     377.2279
   1413.49976     504.1776     375.2162   1413.49976     504.1776     375.2162
   1413.48450     502.1354     373.1678   1413.48450     502.1354     373.1678
   1413.46924     497.7277     372.0064   1413.46924     497.7277     372.0064
   1413.45398     495.6270     369.9406   1413.45398     495.6270     369.9406
   1413.43872     492.9550     368.4498   1413.43872     492.9550     368.4498
   1413.42346     490.3614     366.6133   1413.42346     490.3614     366.6133
   1413.40820     488.2039     365.5099   1413.40820     488.2039     365.5099
   1413.39294     485.1350     363.7227   1413.39294     485.1350     363.7227
   1413.37769     482.6111     362.1712   1413.37769     482.6111     362.1712
   1413.36243     479.4694     360.6347   1413.36243     479.4694     360.6347
   1413.34717     476.7231     359.3604   1413.34717     476.7231     359.3604
   1413.33191     474.6371     356.9115   1413.33191     474.6371     356.9115
   1413.31665     472.1226     355.7590   1413.31665     472.1226     355.7590
   1413.30139     468.9942     353.9575   1413.30139     468.9942     353.9575
   1413.28613     466.7728     353.0839   1413.28613     466.7728     353.0839
   1413.27087     463.5480     351.1750   1413.27087     463.5480     351.1750
   1413.25562     461.3987     349.9334   1413.25562     461.3987     349.9334
   1413.24036     459.5125     348.4962   1413.24036     459.5125     348.4962
   1413.22510     455.9409     347.0817   1413.22510     455.9409     347.0817
   1413.20984     453.7405     345.4389   1413.20984     453.7405     345.4389
   1413.19458     451.4186     343.8182   1413.19458     451.4186     343.8182
   1413.17932     448.7156     342.3815   1413.17932     448.7156     342.3815
   1413.16406     446.9097     341.3221   1413.16406     446.9097     341.3221
   1413.14880     443.8292     340.7065   1413.14880     443.8292     340.7065
   1413.13354     441.6844     339.0436   1413.13354     441.6844     339.0436
   1413.11829     439.8902     338.0688   1413.11829     439.8902     338.0688
   1413.10303     436.7622     336.4423   1413.10303     436.7622     336.4423
   1413.08777     435.1972     336.1098   1413.08777     435.1972     336.1098
   1413.07251     433.5646     334.4593   1413.07251     433.5646     334.4593
   1413.05725     430.9514     333.4468   1413.05725     430.9514     333.4468
   1413.04199     428.3616     331.7439   1413.04199     428.3616     331.7439
   1413.02673     426.3499     331.1273   1413.02673     426.3499     331.1273
   1413.01147     424.3954     329.4776   1413.01147     424.3954     329.4776
   1412.99622     422.3581     328.6046   1412.99622     422.3581     328.6046
   1412.98096     420.6159     327.7674   1412.98096     420.6159     327.7674
   1412.96570     418.6447     327.2362   1412.96570     418.6447     327.2362
   1412.95044     416.1692     325.8069   1412.95044     416.1692     325.8069
   1412.93518     414.9539     325.5628   1412.93518     414.9539     325.5628
   1412.91992     412.3571     324.4147   1412.91992     412.3571     324.4147
   1412.90466     410.9904     323.6885   1412.90466     410.9904     323.6885
   1412.88940     409.6116     323.0963   1412.88940     409.6116     323.0963
   1412.87415     407.3717     321.9220   1412.87415     407.3717     321.9220
   1412.85889     405.6981     321.0145   1412.85889     405.6981     321.0145
   1412.84363     404.0721     320.6224   1412.84363     404.0721     320.6224
   1412.82837     402.5151     320.1677   1412.82837     402.5151     320.1677
   1412.81311     401.2918     319.5261   1412.81311     401.2918     319.5261
   1412.79785     399.7116     319.0039   1412.79785     399.7116     319.0039
   1412.78259     398.4138     318.5132   1412.78259     398.4138     318.5132
   1412.76733     397.0998     317.6157   1412.76733     397.0998     317.6157
   1412.75208     395.0601     318.1700   1412.75208     395.0601     318.1700
   1412.73682     393.7300     317.0230   1412.73682     393.7300     317.0230
   1412.72156     392.8205     316.8138   1412.72156     392.8205     316.8138
   1412.70630     391.2329     316.6648   1412.70630     391.2329     316.6648
   1412.69104     390.2155     316.6159   1412.69104     390.2155     316.6159
   1412.67578     389.5000     316.4008   1412.67578     389.5000     316.4008
   1412.66052     388.0547     315.9082   1412.66052     388.0547     315.9082
   1412.64526     387.1180     315.9478   1412.64526     387.1180     315.9478
   1412.63000     386.3781     316.2012   1412.63000     386.3781     316.2012
   1412.61475     385.1937     316.2293   1412.61475     385.1937     316.2293
   1412.59949     383.8381     315.8705   1412.59949     383.8381     315.8705
   1412.58423     382.9025     315.7646   1412.58423     382.9025     315.7646
   1412.56897     382.8505     316.1667   1412.56897     382.8505     316.1667
   1412.55371     382.0071     317.0179   1412.55371     382.0071     317.0179
   1412.53845     381.1671     316.9380   1412.53845     381.1671     316.9380
   1412.52319     380.2635     317.0446   1412.52319     380.2635     317.0446
   1412.50793     379.7177     317.5994   1412.50793     379.7177     317.5994
   1412.49268     379.2899     317.8386   1412.49268     379.2899     317.8386
   1412.47742     378.9938     318.0927   1412.47742     378.9938     318.0927
   1412.46216     378.6196     318.7127   1412.46216     378.6196     318.7127
   1412.44690     378.5540     318.9724   1412.44690     378.5540     318.9724
   1412.43164     378.7325     319.6244   1412.43164     378.7325     319.6244
   1412.41638     377.7899     319.7899   1412.41638     377.7899     319.7899
   1412.40112     377.7163     320.8164   1412.40112     377.7163     320.8164
   1412.38586     377.0068     321.6145   1412.38586     377.0068     321.6145
   1412.37061     377.1287     322.9253   1412.37061     377.1287     322.9253
   1412.35535     377.9453     322.8926   1412.35535     377.9453     322.8926
   1412.34009     377.2928     323.5500   1412.34009     377.2928     323.5500
   1412.32483     377.2175     324.8305   1412.32483     377.2175     324.8305
   1412.30957     377.4614     326.1172   1412.30957     377.4614     326.1172
   1412.29431     378.3924     326.5757   1412.29431     378.3924     326.5757
   1412.27905     378.8034     327.4894   1412.27905     378.8034     327.4894
   1412.26379     378.6568     328.5262   1412.26379     378.6568     328.5262
   1412.24854     378.7214     329.8574   1412.24854     378.7214     329.8574
   1412.23328     379.2339     330.7981   1412.23328     379.2339     330.7981
   1412.21802     379.1276     331.8450   1412.21802     379.1276     331.8450
   1412.20276     380.9113     333.1624   1412.20276     380.9113     333.1624