#     FILENAME=!Skynet_57528_lach-cc-186_20579_21009.cyb.fits
#     BASENAME=Skynet_57528_lach-cc-186_20579_21009
#     SRC_NAME=lach-cc-186
#     OBSERVER=ccmadison16_9505
#     DATE_OBS=2016-05-20T18:52:16.870
#        OBSID=20579
#      SCANNUM=21009
#          MJD=57528.7874
#          UTC=68026
#     SCANTYPE=track
#     DATAMODE=HIRES
#     TUNEFREQ=1420.0000
# Actual_FREQ1=1420.0000
# Actual_FREQ2=1420.0000
#    LO1Tuning=6870.000
#     RFFILTER=1355_1435
#        OBSBW=-15.6250
#        NCHAN=1024 
#        FOCUS=37.0489
#           RA=05:59:14.23
#          DEC=23:46:20.72
#      RA(hrs)=5.987300
#     DEC(deg)=23.772400
#    AZIM(deg)=152.414
#    ELEV(deg)=73.733
#     IFattens=10.00, 9.00
#      WARNING=None
#    TCAL_XL1=7.9635
#    TCAL_YR1=9.1340
#    TCAL_XL2=7.9635
#    TCAL_YR2=9.1340
#     TRX_XL1=11.7060
#     TRX_YR1=11.7060
#     TRX_XL2=11.7060
#     TRX_YR2=11.7060
#        TAVE=1.0000
#Freq1(MHz)          XL1          YR1  Freq2(MHz)          XL2          YR2 

   1427.81250     378.4799     347.0186   1427.81250     378.4799     347.0186
   1427.79724     379.8291     348.6801   1427.79724     379.8291     348.6801
   1427.78198     379.4620     349.9764   1427.78198     379.4620     349.9764
   1427.76672     381.3108     351.3061   1427.76672     381.3108     351.3061
   1427.75146     382.1164     352.7743   1427.75146     382.1164     352.7743
   1427.73621     382.0735     354.5543   1427.73621     382.0735     354.5543
   1427.72095     383.3957     355.4293   1427.72095     383.3957     355.4293
   1427.70569     384.0031     356.6216   1427.70569     384.0031     356.6216
   1427.69043     385.8015     358.3483   1427.69043     385.8015     358.3483
   1427.67517     386.2683     359.7444   1427.67517     386.2683     359.7444
   1427.65991     387.7950     361.9935   1427.65991     387.7950     361.9935
   1427.64465     388.1931     363.4086   1427.64465     388.1931     363.4086
   1427.62939     389.1529     365.5747   1427.62939     389.1529     365.5747
   1427.61414     391.4798     366.7000   1427.61414     391.4798     366.7000
   1427.59888     392.6099     368.2904   1427.59888     392.6099     368.2904
   1427.58362     394.0619     369.6651   1427.58362     394.0619     369.6651
   1427.56836     395.4271     372.2971   1427.56836     395.4271     372.2971
   1427.55310     396.8821     373.4834   1427.55310     396.8821     373.4834
   1427.53784     397.8798     375.4469   1427.53784     397.8798     375.4469
   1427.52258     399.5403     377.1110   1427.52258     399.5403     377.1110
   1427.50732     401.6200     379.3114   1427.50732     401.6200     379.3114
   1427.49207     402.7425     381.5862   1427.49207     402.7425     381.5862
   1427.47681     404.6260     382.6078   1427.47681     404.6260     382.6078
   1427.46155     406.6081     385.1103   1427.46155     406.6081     385.1103
   1427.44629     408.5057     387.5352   1427.44629     408.5057     387.5352
   1427.43103     410.4590     388.6802   1427.43103     410.4590     388.6802
   1427.41577     413.0592     391.3884   1427.41577     413.0592     391.3884
   1427.40051     413.5546     392.6875   1427.40051     413.5546     392.6875
   1427.38525     415.2667     395.1041   1427.38525     415.2667     395.1041
   1427.37000     417.7402     397.0995   1427.37000     417.7402     397.0995
   1427.35474     419.7372     399.2217   1427.35474     419.7372     399.2217
   1427.33948     421.9918     400.5495   1427.33948     421.9918     400.5495
   1427.32422     423.9922     402.8960   1427.32422     423.9922     402.8960
   1427.30896     426.5272     406.0005   1427.30896     426.5272     406.0005
   1427.29370     428.5193     407.3799   1427.29370     428.5193     407.3799
   1427.27844     431.4973     409.8307   1427.27844     431.4973     409.8307
   1427.26318     433.5239     411.0844   1427.26318     433.5239     411.0844
   1427.24792     434.7968     413.9145   1427.24792     434.7968     413.9145
   1427.23267     437.5802     416.0310   1427.23267     437.5802     416.0310
   1427.21741     440.4505     418.2575   1427.21741     440.4505     418.2575
   1427.20215     442.5872     420.7618   1427.20215     442.5872     420.7618
   1427.18689     443.9692     422.9456   1427.18689     443.9692     422.9456
   1427.17163     447.5276     424.5114   1427.17163     447.5276     424.5114
   1427.15637     450.3487     426.6653   1427.15637     450.3487     426.6653
   1427.14111     451.9759     429.0122   1427.14111     451.9759     429.0122
   1427.12585     455.6728     431.1390   1427.12585     455.6728     431.1390
   1427.11060     457.0637     433.0093   1427.11060     457.0637     433.0093
   1427.09534     460.4485     435.6097   1427.09534     460.4485     435.6097
   1427.08008     462.7362     438.2160   1427.08008     462.7362     438.2160
   1427.06482     465.7157     440.0706   1427.06482     465.7157     440.0706
   1427.04956     469.0580     442.4077   1427.04956     469.0580     442.4077
   1427.03430     471.4334     444.7957   1427.03430     471.4334     444.7957
   1427.01904     474.0522     447.1646   1427.01904     474.0522     447.1646
   1427.00378     476.8772     450.0948   1427.00378     476.8772     450.0948
   1426.98853     479.6763     451.0230   1426.98853     479.6763     451.0230
   1426.97327     482.4964     454.1559   1426.97327     482.4964     454.1559
   1426.95801     486.2570     455.5089   1426.95801     486.2570     455.5089
   1426.94275     489.0016     458.4828   1426.94275     489.0016     458.4828
   1426.92749     490.8226     460.5376   1426.92749     490.8226     460.5376
   1426.91223     494.2830     463.3125   1426.91223     494.2830     463.3125
   1426.89697     497.2866     464.1323   1426.89697     497.2866     464.1323
   1426.88171     499.7222     467.1316   1426.88171     499.7222     467.1316
   1426.86646     502.5713     469.3759   1426.86646     502.5713     469.3759
   1426.85120     506.0459     470.9749   1426.85120     506.0459     470.9749
   1426.83594     509.0472     473.8146   1426.83594     509.0472     473.8146
   1426.82068     511.9269     475.4715   1426.82068     511.9269     475.4715
   1426.80542     515.7990     478.2556   1426.80542     515.7990     478.2556
   1426.79016     518.4278     479.8354   1426.79016     518.4278     479.8354
   1426.77490     521.2336     482.3351   1426.77490     521.2336     482.3351
   1426.75964     524.3804     485.0076   1426.75964     524.3804     485.0076
   1426.74438     527.9382     486.7536   1426.74438     527.9382     486.7536
   1426.72913     530.1465     488.3836   1426.72913     530.1465     488.3836
   1426.71387     533.1922     490.3315   1426.71387     533.1922     490.3315
   1426.69861     536.8013     493.1287   1426.69861     536.8013     493.1287
   1426.68335     540.3172     495.0119   1426.68335     540.3172     495.0119
   1426.66809     542.8134     497.4888   1426.66809     542.8134     497.4888
   1426.65283     547.0937     499.3654   1426.65283     547.0937     499.3654
   1426.63757     549.2906     502.0069   1426.63757     549.2906     502.0069
   1426.62231     553.0527     511.4864   1426.62231     553.0527     511.4864
   1426.60706     555.1013     505.7955   1426.60706     555.1013     505.7955
   1426.59180     558.0712     506.7305   1426.59180     558.0712     506.7305
   1426.57654     560.7743     509.4944   1426.57654     560.7743     509.4944
   1426.56128     564.9256     511.6389   1426.56128     564.9256     511.6389
   1426.54602     567.8442     513.8697   1426.54602     567.8442     513.8697
   1426.53076     571.2486     515.7377   1426.53076     571.2486     515.7377
   1426.51550     574.4932     517.8104   1426.51550     574.4932     517.8104
   1426.50024     576.6148     519.0449   1426.50024     576.6148     519.0449
   1426.48499     580.5954     521.9201   1426.48499     580.5954     521.9201
   1426.46973     583.7832     523.4265   1426.46973     583.7832     523.4265
   1426.45447     586.0652     525.4790   1426.45447     586.0652     525.4790
   1426.43921     589.2991     526.8612   1426.43921     589.2991     526.8612
   1426.42395     593.3114     530.1020   1426.42395     593.3114     530.1020
   1426.40869     596.6042     530.7485   1426.40869     596.6042     530.7485
   1426.39343     598.7570     533.2985   1426.39343     598.7570     533.2985
   1426.37817     602.5818     535.4283   1426.37817     602.5818     535.4283
   1426.36292     604.9916     537.2742   1426.36292     604.9916     537.2742
   1426.34766     608.3330     538.7502   1426.34766     608.3330     538.7502
   1426.33240     610.5476     541.5155   1426.33240     610.5476     541.5155
   1426.31714     613.6846     542.4782   1426.31714     613.6846     542.4782
   1426.30188     617.8868     545.2504   1426.30188     617.8868     545.2504
   1426.28662     620.5609     546.4183   1426.28662     620.5609     546.4183
   1426.27136     623.1500     548.7654   1426.27136     623.1500     548.7654
   1426.25610     626.6949     550.0332   1426.25610     626.6949     550.0332
   1426.24084     628.4309     551.0749   1426.24084     628.4309     551.0749
   1426.22559     631.6134     552.2914   1426.22559     631.6134     552.2914
   1426.21033     634.3986     554.9814   1426.21033     634.3986     554.9814
   1426.19507     637.0578     556.9970   1426.19507     637.0578     556.9970
   1426.17981     639.4910     557.3842   1426.17981     639.4910     557.3842
   1426.16455     642.4749     559.5707   1426.16455     642.4749     559.5707
   1426.14929     646.1693     561.7330   1426.14929     646.1693     561.7330
   1426.13403     648.5269     563.4595   1426.13403     648.5269     563.4595
   1426.11877     651.8176     564.4816   1426.11877     651.8176     564.4816
   1426.10352     653.8866     564.9975   1426.10352     653.8866     564.9975
   1426.08826     657.0718     567.2188   1426.08826     657.0718     567.2188
   1426.07300     659.3271     569.8832   1426.07300     659.3271     569.8832
   1426.05774     662.3955     570.6686   1426.05774     662.3955     570.6686
   1426.04248     664.3099     571.9673   1426.04248     664.3099     571.9673
   1426.02722     668.4919     574.0098   1426.02722     668.4919     574.0098
   1426.01196     669.8829     575.5734   1426.01196     669.8829     575.5734
   1425.99670     671.9460     576.6696   1425.99670     671.9460     576.6696
   1425.98145     674.0711     578.1013   1425.98145     674.0711     578.1013
   1425.96619     678.1967     579.5713   1425.96619     678.1967     579.5713
   1425.95093     680.0919     581.1266   1425.95093     680.0919     581.1266
   1425.93567     681.4907     582.7668   1425.93567     681.4907     582.7668
   1425.92041     685.2327     583.9460   1425.92041     685.2327     583.9460
   1425.90515     685.7489     584.5448   1425.90515     685.7489     584.5448
   1425.88989     689.0362     587.1078   1425.88989     689.0362     587.1078
   1425.87463     691.3329     588.3656   1425.87463     691.3329     588.3656
   1425.85938     693.5540     588.9374   1425.85938     693.5540     588.9374
   1425.84412     697.2031     590.2410   1425.84412     697.2031     590.2410
   1425.82886     699.9522     591.9716   1425.82886     699.9522     591.9716
   1425.81360     701.6142     592.1668   1425.81360     701.6142     592.1668
   1425.79834     702.4222     593.2683   1425.79834     702.4222     593.2683
   1425.78308     705.3304     594.6224   1425.78308     705.3304     594.6224
   1425.76782     707.8541     595.6204   1425.76782     707.8541     595.6204
   1425.75256     709.2340     597.5314   1425.75256     709.2340     597.5314
   1425.73730     711.4520     599.3010   1425.73730     711.4520     599.3010
   1425.72205     712.9541     599.7180   1425.72205     712.9541     599.7180
   1425.70679     714.9365     600.4647   1425.70679     714.9365     600.4647
   1425.69153     717.6020     601.0387   1425.69153     717.6020     601.0387
   1425.67627     719.8666     602.5540   1425.67627     719.8666     602.5540
   1425.66101     721.0656     603.3976   1425.66101     721.0656     603.3976
   1425.64575     721.6457     604.9026   1425.64575     721.6457     604.9026
   1425.63049     723.5425     605.0284   1425.63049     723.5425     605.0284
   1425.61523     726.5797     607.1236   1425.61523     726.5797     607.1236
   1425.59998     727.8409     607.5626   1425.59998     727.8409     607.5626
   1425.58472     729.8470     608.7584   1425.58472     729.8470     608.7584
   1425.56946     731.7221     609.4607   1425.56946     731.7221     609.4607
   1425.55420     732.6555     611.5764   1425.55420     732.6555     611.5764
   1425.53894     734.4954     611.2977   1425.53894     734.4954     611.2977
   1425.52368     735.1707     612.4240   1425.52368     735.1707     612.4240
   1425.50842     737.0005     612.6421   1425.50842     737.0005     612.6421
   1425.49316     738.7022     613.4191   1425.49316     738.7022     613.4191
   1425.47791     739.4684     614.7044   1425.47791     739.4684     614.7044
   1425.46265     741.3651     615.5698   1425.46265     741.3651     615.5698
   1425.44739     743.4698     616.7910   1425.44739     743.4698     616.7910
   1425.43213     744.6837     616.7687   1425.43213     744.6837     616.7687
   1425.41687     746.2917     617.7571   1425.41687     746.2917     617.7571
   1425.40161     746.9816     618.1677   1425.40161     746.9816     618.1677
   1425.38635     748.0150     619.0737   1425.38635     748.0150     619.0737
   1425.37109     748.9598     618.7562   1425.37109     748.9598     618.7562
   1425.35583     750.7527     620.4792   1425.35583     750.7527     620.4792
   1425.34058     752.6309     621.2516   1425.34058     752.6309     621.2516
   1425.32532     753.5488     621.6878   1425.32532     753.5488     621.6878
   1425.31006     754.6472     622.9783   1425.31006     754.6472     622.9783
   1425.29480     755.7342     622.0367   1425.29480     755.7342     622.0367
   1425.27954     754.9871     622.6358   1425.27954     754.9871     622.6358
   1425.26428     756.7399     622.7424   1425.26428     756.7399     622.7424
   1425.24902     756.8514     623.6368   1425.24902     756.8514     623.6368
   1425.23376     759.3776     625.6644   1425.23376     759.3776     625.6644
   1425.21851     761.1105     624.3897   1425.21851     761.1105     624.3897
   1425.20325     761.8289     625.6462   1425.20325     761.8289     625.6462
   1425.18799     763.6694     626.1415   1425.18799     763.6694     626.1415
   1425.17273     762.6712     626.1366   1425.17273     762.6712     626.1366
   1425.15747     763.1079     627.0168   1425.15747     763.1079     627.0168
   1425.14221     763.1168     626.4288   1425.14221     763.1168     626.4288
   1425.12695     765.9454     628.2253   1425.12695     765.9454     628.2253
   1425.11169     766.4261     628.0167   1425.11169     766.4261     628.0167
   1425.09644     766.2865     628.9681   1425.09644     766.2865     628.9681
   1425.08118     766.0728     629.5203   1425.08118     766.0728     629.5203
   1425.06592     767.9183     628.8766   1425.06592     767.9183     628.8766
   1425.05066     768.0878     629.0378   1425.05066     768.0878     629.0378
   1425.03540     768.5269     629.0496   1425.03540     768.5269     629.0496
   1425.02014     770.3049     629.5736   1425.02014     770.3049     629.5736
   1425.00488     769.9194     630.3187   1425.00488     769.9194     630.3187
   1424.98962     770.4783     629.6599   1424.98962     770.4783     629.6599
   1424.97437     771.4211     630.2198   1424.97437     771.4211     630.2198
   1424.95911     772.6163     630.3396   1424.95911     772.6163     630.3396
   1424.94385     772.2126     630.7800   1424.94385     772.2126     630.7800
   1424.92859     771.9764     631.1931   1424.92859     771.9764     631.1931
   1424.91333     772.0361     630.7427   1424.91333     772.0361     630.7427
   1424.89807     773.7284     631.0213   1424.89807     773.7284     631.0213
   1424.88281     772.8457     631.3553   1424.88281     772.8457     631.3553
   1424.86755     773.4350     630.3927   1424.86755     773.4350     630.3927
   1424.85229     774.8217     630.1543   1424.85229     774.8217     630.1543
   1424.83704     773.6913     631.4785   1424.83704     773.6913     631.4785
   1424.82178     774.9958     631.6801   1424.82178     774.9958     631.6801
   1424.80652     775.3488     630.7449   1424.80652     775.3488     630.7449
   1424.79126     773.8860     632.4882   1424.79126     773.8860     632.4882
   1424.77600     775.2010     631.8319   1424.77600     775.2010     631.8319
   1424.76074     774.8427     631.7568   1424.76074     774.8427     631.7568
   1424.74548     775.2584     631.4830   1424.74548     775.2584     631.4830
   1424.73022     774.9926     631.5760   1424.73022     774.9926     631.5760
   1424.71497     773.7371     631.7870   1424.71497     773.7371     631.7870
   1424.69971     775.3071     631.3814   1424.69971     775.3071     631.3814
   1424.68445     774.1926     630.4637   1424.68445     774.1926     630.4637
   1424.66919     775.7967     630.7210   1424.66919     775.7967     630.7210
   1424.65393     776.0904     630.5809   1424.65393     776.0904     630.5809
   1424.63867     774.5083     630.2753   1424.63867     774.5083     630.2753
   1424.62341     775.2086     630.6469   1424.62341     775.2086     630.6469
   1424.60815     775.7529     629.5145   1424.60815     775.7529     629.5145
   1424.59290     775.0999     630.1372   1424.59290     775.0999     630.1372
   1424.57764     774.1835     629.0969   1424.57764     774.1835     629.0969
   1424.56238     774.5847     629.2090   1424.56238     774.5847     629.2090
   1424.54712     774.2371     629.0530   1424.54712     774.2371     629.0530
   1424.53186     774.0792     629.0196   1424.53186     774.0792     629.0196
   1424.51660     773.8289     628.8494   1424.51660     773.8289     628.8494
   1424.50134     773.6918     628.1789   1424.50134     773.6918     628.1789
   1424.48608     772.3949     628.9156   1424.48608     772.3949     628.9156
   1424.47083     772.6071     628.3536   1424.47083     772.6071     628.3536
   1424.45557     773.4306     627.4708   1424.45557     773.4306     627.4708
   1424.44031     772.7481     628.2456   1424.44031     772.7481     628.2456
   1424.42505     773.2243     628.0121   1424.42505     773.2243     628.0121
   1424.40979     772.2335     626.4240   1424.40979     772.2335     626.4240
   1424.39453     772.0879     627.3038   1424.39453     772.0879     627.3038
   1424.37927     772.1342     626.2298   1424.37927     772.1342     626.2298
   1424.36401     772.4142     625.2252   1424.36401     772.4142     625.2252
   1424.34875     772.0630     625.2106   1424.34875     772.0630     625.2106
   1424.33350     770.5967     625.7055   1424.33350     770.5967     625.7055
   1424.31824     769.8984     625.3106   1424.31824     769.8984     625.3106
   1424.30298     770.5391     624.2946   1424.30298     770.5391     624.2946
   1424.28772     770.7573     623.4459   1424.28772     770.7573     623.4459
   1424.27246     769.0004     623.0952   1424.27246     769.0004     623.0952
   1424.25720     768.7906     623.6435   1424.25720     768.7906     623.6435
   1424.24194     768.3794     621.4630   1424.24194     768.3794     621.4630
   1424.22668     769.6506     622.3248   1424.22668     769.6506     622.3248
   1424.21143     768.9954     621.1830   1424.21143     768.9954     621.1830
   1424.19617     768.8963     621.6401   1424.19617     768.8963     621.6401
   1424.18091     766.4495     620.6466   1424.18091     766.4495     620.6466
   1424.16565     766.9655     620.5270   1424.16565     766.9655     620.5270
   1424.15039     765.1639     618.6191   1424.15039     765.1639     618.6191
   1424.13513     765.5995     619.2993   1424.13513     765.5995     619.2993
   1424.11987     766.4625     618.4282   1424.11987     766.4625     618.4282
   1424.10461     765.1415     618.8872   1424.10461     765.1415     618.8872
   1424.08936     763.5975     618.6919   1424.08936     763.5975     618.6919
   1424.07410     764.0817     616.9819   1424.07410     764.0817     616.9819
   1424.05884     762.2548     617.2877   1424.05884     762.2548     617.2877
   1424.04358     763.3136     616.8380   1424.04358     763.3136     616.8380
   1424.02832     762.6448     614.8052   1424.02832     762.6448     614.8052
   1424.01306     763.3981     614.2462   1424.01306     763.3981     614.2462
   1423.99780     762.9499     613.7081   1423.99780     762.9499     613.7081
   1423.98254     760.9792     613.5416   1423.98254     760.9792     613.5416
   1423.96729     760.1016     612.0942   1423.96729     760.1016     612.0942
   1423.95203     760.8005     612.5840   1423.95203     760.8005     612.5840
   1423.93677     759.3057     611.2350   1423.93677     759.3057     611.2350
   1423.92151     759.0171     610.3949   1423.92151     759.0171     610.3949
   1423.90625     757.8931     609.3696   1423.90625     757.8931     609.3696
   1423.89099     758.2098     610.5086   1423.89099     758.2098     610.5086
   1423.87573     758.1816     608.4752   1423.87573     758.1816     608.4752
   1423.86047     756.9960     608.6920   1423.86047     756.9960     608.6920
   1423.84521     756.8260     607.0540   1423.84521     756.8260     607.0540
   1423.82996     756.2090     605.7856   1423.82996     756.2090     605.7856
   1423.81470     755.4913     605.3796   1423.81470     755.4913     605.3796
   1423.79944     754.8619     605.3453   1423.79944     754.8619     605.3453
   1423.78418     754.6343     606.0672   1423.78418     754.6343     606.0672
   1423.76892     756.0023     603.1632   1423.76892     756.0023     603.1632
   1423.75366     753.3162     603.5768   1423.75366     753.3162     603.5768
   1423.73840     753.1954     603.0629   1423.73840     753.1954     603.0629
   1423.72314     752.5526     601.5247   1423.72314     752.5526     601.5247
   1423.70789     752.4457     600.9500   1423.70789     752.4457     600.9500
   1423.69263     751.2496     600.1161   1423.69263     751.2496     600.1161
   1423.67737     750.3478     599.5101   1423.67737     750.3478     599.5101
   1423.66211     751.3939     598.2403   1423.66211     751.3939     598.2403
   1423.64685     749.6930     598.4445   1423.64685     749.6930     598.4445
   1423.63159     749.7916     595.7919   1423.63159     749.7916     595.7919
   1423.61633     750.2409     595.4768   1423.61633     750.2409     595.4768
   1423.60107     747.9229     595.3438   1423.60107     747.9229     595.3438
   1423.58582     748.9219     594.4913   1423.58582     748.9219     594.4913
   1423.57056     747.2610     594.4999   1423.57056     747.2610     594.4999
   1423.55530     746.9933     593.1336   1423.55530     746.9933     593.1336
   1423.54004     746.3522     591.5731   1423.54004     746.3522     591.5731
   1423.52478     745.8340     591.1838   1423.52478     745.8340     591.1838
   1423.50952     744.9675     590.0658   1423.50952     744.9675     590.0658
   1423.49426     746.5347     590.0989   1423.49426     746.5347     590.0989
   1423.47900     744.8949     588.5665   1423.47900     744.8949     588.5665
   1423.46375     743.8588     588.3702   1423.46375     743.8588     588.3702
   1423.44849     743.6527     587.6398   1423.44849     743.6527     587.6398
   1423.43323     742.8630     585.9351   1423.43323     742.8630     585.9351
   1423.41797     742.4861     585.3856   1423.41797     742.4861     585.3856
   1423.40271     741.7126     584.0501   1423.40271     741.7126     584.0501
   1423.38745     741.3136     583.0243   1423.38745     741.3136     583.0243
   1423.37219     740.0308     583.2377   1423.37219     740.0308     583.2377
   1423.35693     742.4723     581.9237   1423.35693     742.4723     581.9237
   1423.34167     741.5473     581.3994   1423.34167     741.5473     581.3994
   1423.32642     739.8230     579.6769   1423.32642     739.8230     579.6769
   1423.31116     739.6304     579.6956   1423.31116     739.6304     579.6956
   1423.29590     738.2185     577.0071   1423.29590     738.2185     577.0071
   1423.28064     738.7419     577.7144   1423.28064     738.7419     577.7144
   1423.26538     738.5568     576.7009   1423.26538     738.5568     576.7009
   1423.25012     737.2236     575.6575   1423.25012     737.2236     575.6575
   1423.23486     736.2704     574.6296   1423.23486     736.2704     574.6296
   1423.21960     736.8809     573.9418   1423.21960     736.8809     573.9418
   1423.20435     736.2469     573.0464   1423.20435     736.2469     573.0464
   1423.18909     735.9572     572.5347   1423.18909     735.9572     572.5347
   1423.17383     735.4459     571.9113   1423.17383     735.4459     571.9113
   1423.15857     734.5030     569.2330   1423.15857     734.5030     569.2330
   1423.14331     734.9671     568.5977   1423.14331     734.9671     568.5977
   1423.12805     735.5502     567.4962   1423.12805     735.5502     567.4962
   1423.11279     734.7396     568.0450   1423.11279     734.7396     568.0450
   1423.09753     733.4026     567.3447   1423.09753     733.4026     567.3447
   1423.08228     734.0131     565.9543   1423.08228     734.0131     565.9543
   1423.06702     734.2830     563.8190   1423.06702     734.2830     563.8190
   1423.05176     732.2876     563.5576   1423.05176     732.2876     563.5576
   1423.03650     732.8376     562.2722   1423.03650     732.8376     562.2722
   1423.02124     733.0912     562.4065   1423.02124     733.0912     562.4065
   1423.00598     732.1090     560.9310   1423.00598     732.1090     560.9310
   1422.99072     732.0623     560.4051   1422.99072     732.0623     560.4051
   1422.97546     730.3408     559.2247   1422.97546     730.3408     559.2247
   1422.96021     731.8702     557.6052   1422.96021     731.8702     557.6052
   1422.94495     730.5306     557.1021   1422.94495     730.5306     557.1021
   1422.92969     730.5122     555.7578   1422.92969     730.5122     555.7578
   1422.91443     731.2036     555.6282   1422.91443     731.2036     555.6282
   1422.89917     729.9183     554.2866   1422.89917     729.9183     554.2866
   1422.88391     729.2990     553.9120   1422.88391     729.2990     553.9120
   1422.86865     730.1464     552.5865   1422.86865     730.1464     552.5865
   1422.85339     729.8760     552.5681   1422.85339     729.8760     552.5681
   1422.83813     728.8788     550.8963   1422.83813     728.8788     550.8963
   1422.82288     728.5914     549.7891   1422.82288     728.5914     549.7891
   1422.80762     728.3636     549.4348   1422.80762     728.3636     549.4348
   1422.79236     727.2554     547.6193   1422.79236     727.2554     547.6193
   1422.77710     727.2466     547.1956   1422.77710     727.2466     547.1956
   1422.76184     727.3397     545.3659   1422.76184     727.3397     545.3659
   1422.74658     727.7589     545.4593   1422.74658     727.7589     545.4593
   1422.73132     727.5124     544.3099   1422.73132     727.5124     544.3099
   1422.71606     726.3140     542.7925   1422.71606     726.3140     542.7925
   1422.70081     726.5367     541.4963   1422.70081     726.5367     541.4963
   1422.68555     726.0006     540.8480   1422.68555     726.0006     540.8480
   1422.67029     724.8503     540.4869   1422.67029     724.8503     540.4869
   1422.65503     725.9352     539.7348   1422.65503     725.9352     539.7348
   1422.63977     725.8229     537.8591   1422.63977     725.8229     537.8591
   1422.62451     725.6453     536.6539   1422.62451     725.6453     536.6539
   1422.60925     725.7455     537.1616   1422.60925     725.7455     537.1616
   1422.59399     724.9265     535.3746   1422.59399     724.9265     535.3746
   1422.57874     723.3599     534.6500   1422.57874     723.3599     534.6500
   1422.56348     723.9641     534.0488   1422.56348     723.9641     534.0488
   1422.54822     724.7018     532.6528   1422.54822     724.7018     532.6528
   1422.53296     724.1229     532.2202   1422.53296     724.1229     532.2202
   1422.51770     723.6672     530.7433   1422.51770     723.6672     530.7433
   1422.50244     724.8942     529.8618   1422.50244     724.8942     529.8618
   1422.48718     723.8564     529.6245   1422.48718     723.8564     529.6245
   1422.47192     723.2764     528.3890   1422.47192     723.2764     528.3890
   1422.45667     722.8500     527.2427   1422.45667     722.8500     527.2427
   1422.44141     723.5887     526.4138   1422.44141     723.5887     526.4138
   1422.42615     723.0841     525.5749   1422.42615     723.0841     525.5749
   1422.41089     723.9083     525.3186   1422.41089     723.9083     525.3186
   1422.39563     721.5380     523.7593   1422.39563     721.5380     523.7593
   1422.38037     722.1186     521.9539   1422.38037     722.1186     521.9539
   1422.36511     722.2036     521.2952   1422.36511     722.2036     521.2952
   1422.34985     721.3798     521.1032   1422.34985     721.3798     521.1032
   1422.33459     721.3663     520.2895   1422.33459     721.3663     520.2895
   1422.31934     721.2617     518.5474   1422.31934     721.2617     518.5474
   1422.30408     721.4455     518.0042   1422.30408     721.4455     518.0042
   1422.28882     721.0198     517.5775   1422.28882     721.0198     517.5775
   1422.27356     720.4329     516.9426   1422.27356     720.4329     516.9426
   1422.25830     721.4986     515.2696   1422.25830     721.4986     515.2696
   1422.24304     720.4295     514.9548   1422.24304     720.4295     514.9548
   1422.22778     721.5883     513.7604   1422.22778     721.5883     513.7604
   1422.21252     720.6140     512.6703   1422.21252     720.6140     512.6703
   1422.19727     720.7977     511.3242   1422.19727     720.7977     511.3242
   1422.18201     721.7013     510.8528   1422.18201     721.7013     510.8528
   1422.16675     720.0905     509.4995   1422.16675     720.0905     509.4995
   1422.15149     719.7785     509.3116   1422.15149     719.7785     509.3116
   1422.13623     719.6769     507.8798   1422.13623     719.6769     507.8798
   1422.12097     719.4237     507.1160   1422.12097     719.4237     507.1160
   1422.10571     719.9111     506.2141   1422.10571     719.9111     506.2141
   1422.09045     720.1732     505.5286   1422.09045     720.1732     505.5286
   1422.07520     720.7489     505.0852   1422.07520     720.7489     505.0852
   1422.05994     719.0214     504.1158   1422.05994     719.0214     504.1158
   1422.04468     718.6533     502.8698   1422.04468     718.6533     502.8698
   1422.02942     718.7180     502.1041   1422.02942     718.7180     502.1041
   1422.01416     718.7269     501.1292   1422.01416     718.7269     501.1292
   1421.99890     719.2471     500.9457   1421.99890     719.2471     500.9457
   1421.98364     719.5022     499.2613   1421.98364     719.5022     499.2613
   1421.96838     719.8179     498.9331   1421.96838     719.8179     498.9331
   1421.95312     720.0485     497.8522   1421.95312     720.0485     497.8522
   1421.93787     718.6565     497.3814   1421.93787     718.6565     497.3814
   1421.92261     718.3214     497.0403   1421.92261     718.3214     497.0403
   1421.90735     718.3306     495.0244   1421.90735     718.3306     495.0244
   1421.89209     718.0646     494.7008   1421.89209     718.0646     494.7008
   1421.87683     719.4185     493.4805   1421.87683     719.4185     493.4805
   1421.86157     718.5993     492.5624   1421.86157     718.5993     492.5624
   1421.84631     719.0046     491.1692   1421.84631     719.0046     491.1692
   1421.83105     719.0052     491.6160   1421.83105     719.0052     491.6160
   1421.81580     718.5709     489.3755   1421.81580     718.5709     489.3755
   1421.80054     717.1289     488.9155   1421.80054     717.1289     488.9155
   1421.78528     717.4023     487.5746   1421.78528     717.4023     487.5746
   1421.77002     717.5475     487.1021   1421.77002     717.5475     487.1021
   1421.75476     717.4872     486.1697   1421.75476     717.4872     486.1697
   1421.73950     716.1647     486.0493   1421.73950     716.1647     486.0493
   1421.72424     717.5406     484.2702   1421.72424     717.5406     484.2702
   1421.70898     716.5513     484.0463   1421.70898     716.5513     484.0463
   1421.69373     716.7374     483.5936   1421.69373     716.7374     483.5936
   1421.67847     717.9532     481.9455   1421.67847     717.9532     481.9455
   1421.66321     716.5741     481.3233   1421.66321     716.5741     481.3233
   1421.64795     715.8257     480.4192   1421.64795     715.8257     480.4192
   1421.63269     718.8146     479.4997   1421.63269     718.8146     479.4997
   1421.61743     716.1292     478.9844   1421.61743     716.1292     478.9844
   1421.60217     717.7340     477.6842   1421.60217     717.7340     477.6842
   1421.58691     714.8267     477.4692   1421.58691     714.8267     477.4692
   1421.57166     714.8071     476.7229   1421.57166     714.8071     476.7229
   1421.55640     715.2488     474.7940   1421.55640     715.2488     474.7940
   1421.54114     715.9504     474.6832   1421.54114     715.9504     474.6832
   1421.52588     715.6586     473.9379   1421.52588     715.6586     473.9379
   1421.51062     714.7018     473.1673   1421.51062     714.7018     473.1673
   1421.49536     716.2572     472.0756   1421.49536     716.2572     472.0756
   1421.48010     715.0978     471.4199   1421.48010     715.0978     471.4199
   1421.46484     714.7297     470.0037   1421.46484     714.7297     470.0037
   1421.44958     714.4994     470.1443   1421.44958     714.4994     470.1443
   1421.43433     715.2632     469.1896   1421.43433     715.2632     469.1896
   1421.41907     714.4180     468.0486   1421.41907     714.4180     468.0486
   1421.40381     713.7803     467.1374   1421.40381     713.7803     467.1374
   1421.38855     713.7277     466.0301   1421.38855     713.7277     466.0301
   1421.37329     714.2864     466.0232   1421.37329     714.2864     466.0232
   1421.35803     713.0737     464.1528   1421.35803     713.0737     464.1528
   1421.34277     713.3546     464.2858   1421.34277     713.3546     464.2858
   1421.32751     713.0571     463.2234   1421.32751     713.0571     463.2234
   1421.31226     715.6190     462.2519   1421.31226     715.6190     462.2519
   1421.29700     712.2106     461.8871   1421.29700     712.2106     461.8871
   1421.28174     713.0015     461.1192   1421.28174     713.0015     461.1192
   1421.26648     713.8855     459.8220   1421.26648     713.8855     459.8220
   1421.25122     711.9714     459.0551   1421.25122     711.9714     459.0551
   1421.23596     712.9635     458.6474   1421.23596     712.9635     458.6474
   1421.22070     712.4724     458.6756   1421.22070     712.4724     458.6756
   1421.20544     712.5253     457.3293   1421.20544     712.5253     457.3293
   1421.19019     711.4036     456.4519   1421.19019     711.4036     456.4519
   1421.17493     710.5765     455.7306   1421.17493     710.5765     455.7306
   1421.15967     710.4984     454.9954   1421.15967     710.4984     454.9954
   1421.14441     711.8321     453.9792   1421.14441     711.8321     453.9792
   1421.12915     710.5393     452.6662   1421.12915     710.5393     452.6662
   1421.11389     710.6620     452.9933   1421.11389     710.6620     452.9933
   1421.09863     710.1690     451.3015   1421.09863     710.1690     451.3015
   1421.08337     710.5312     450.6278   1421.08337     710.5312     450.6278
   1421.06812     709.3521     450.2610   1421.06812     709.3521     450.2610
   1421.05286     710.8979     449.6533   1421.05286     710.8979     449.6533
   1421.03760     709.8649     449.3133   1421.03760     709.8649     449.3133
   1421.02234     709.6787     447.5473   1421.02234     709.6787     447.5473
   1421.00708     709.9484     447.2662   1421.00708     709.9484     447.2662
   1420.99182     708.4017     446.7499   1420.99182     708.4017     446.7499
   1420.97656     709.5153     445.7408   1420.97656     709.5153     445.7408
   1420.96130     708.3310     444.1313   1420.96130     708.3310     444.1313
   1420.94604     708.5504     444.2600   1420.94604     708.5504     444.2600
   1420.93079     708.6592     444.0221   1420.93079     708.6592     444.0221
   1420.91553     708.8777     443.3541   1420.91553     708.8777     443.3541
   1420.90027     707.5598     442.3021   1420.90027     707.5598     442.3021
   1420.88501     708.1923     441.3056   1420.88501     708.1923     441.3056
   1420.86975     708.2114     440.2396   1420.86975     708.2114     440.2396
   1420.85449     708.0511     440.0862   1420.85449     708.0511     440.0862
   1420.83923     707.3966     440.4218   1420.83923     707.3966     440.4218
   1420.82397     707.9979     438.9438   1420.82397     707.9979     438.9438
   1420.80872     707.8777     438.7437   1420.80872     707.8777     438.7437
   1420.79346     707.1871     438.0485   1420.79346     707.1871     438.0485
   1420.77820     707.5306     437.3952   1420.77820     707.5306     437.3952
   1420.76294     706.9901     436.6744   1420.76294     706.9901     436.6744
   1420.74768     708.5549     436.4144   1420.74768     708.5549     436.4144
   1420.73242     708.4193     435.9037   1420.73242     708.4193     435.9037
   1420.71716     708.4720     435.2854   1420.71716     708.4720     435.2854
   1420.70190     707.9817     435.2931   1420.70190     707.9817     435.2931
   1420.68665     707.7435     434.2094   1420.68665     707.7435     434.2094
   1420.67139     707.4954     433.9820   1420.67139     707.4954     433.9820
   1420.65613     707.5043     433.1745   1420.65613     707.5043     433.1745
   1420.64087     709.4368     433.2139   1420.64087     709.4368     433.2139
   1420.62561     708.6900     433.1096   1420.62561     708.6900     433.1096
   1420.61035     708.7497     431.9528   1420.61035     708.7497     431.9528
   1420.59509     708.8336     430.8462   1420.59509     708.8336     430.8462
   1420.57983     710.1648     431.7918   1420.57983     710.1648     431.7918
   1420.56458     711.9117     432.1744   1420.56458     711.9117     432.1744
   1420.54932     711.9529     431.7136   1420.54932     711.9529     431.7136
   1420.53406     714.1657     431.4782   1420.53406     714.1657     431.4782
   1420.51880     714.5695     432.5720   1420.51880     714.5695     432.5720
   1420.50354     716.4373     432.7640   1420.50354     716.4373     432.7640
   1420.48828     717.7928     432.8734   1420.48828     717.7928     432.8734
   1420.47302     719.7964     433.7074   1420.47302     719.7964     433.7074
   1420.45776     722.8612     435.7887   1420.45776     722.8612     435.7887
   1420.44250     727.1740     438.2180   1420.44250     727.1740     438.2180
   1420.42725     736.2025     441.7684   1420.42725     736.2025     441.7684
   1420.41199     748.0433     447.5133   1420.41199     748.0433     447.5133
   1420.39673     763.5300     457.1134   1420.39673     763.5300     457.1134
   1420.38147     786.5115     469.2384   1420.38147     786.5115     469.2384
   1420.36621     820.5895     488.0993   1420.36621     820.5895     488.0993
   1420.35095     873.5682     519.3673   1420.35095     873.5682     519.3673
   1420.33569     967.5430     572.0235   1420.33569     967.5430     572.0235
   1420.32043    1163.8545     685.4973   1420.32043    1163.8545     685.4973
   1420.30518    1668.5273     974.0244   1420.30518    1668.5273     974.0244
   1420.28992    2365.1819    1374.3954   1420.28992    2365.1819    1374.3954
   1420.27466    2724.6885    1578.6338   1420.27466    2724.6885    1578.6338
   1420.25940    2881.4551    1667.5739   1420.25940    2881.4551    1667.5739
   1420.24414    2733.5674    1581.2322   1420.24414    2733.5674    1581.2322
   1420.22888    2319.1521    1345.5065   1420.22888    2319.1521    1345.5065
   1420.21362    1951.0704    1130.5117   1420.21362    1951.0704    1130.5117
   1420.19836    1534.9823     891.6280   1420.19836    1534.9823     891.6280
   1420.18311    1055.6705     618.4969   1420.18311    1055.6705     618.4969
   1420.16785     842.2418     496.0234   1420.16785     842.2418     496.0234
   1420.15259     769.9122     454.5699   1420.15259     769.9122     454.5699
   1420.13733     739.1015     436.4226   1420.13733     739.1015     436.4226
   1420.12207     723.7314     425.8285   1420.12207     723.7314     425.8285
   1420.10681     714.4604     420.2425   1420.10681     714.4604     420.2425
   1420.09155     708.4614     417.6467   1420.09155     708.4614     417.6467
   1420.07629     705.8879     415.0377   1420.07629     705.8879     415.0377
   1420.06104     702.8230     413.2751   1420.06104     702.8230     413.2751
   1420.04578     701.1876     411.9695   1420.04578     701.1876     411.9695
   1420.03052     700.7880     411.5157   1420.03052     700.7880     411.5157
   1420.01526     700.6459     410.2819   1420.01526     700.6459     410.2819
   1420.00000     700.6971     411.0008   1420.00000     700.6971     411.0008
   1419.98474     700.7485     411.7198   1419.98474     700.7485     411.7198
   1419.96948     698.7277     409.9276   1419.96948     698.7277     409.9276
   1419.95422     697.1589     407.3877   1419.95422     697.1589     407.3877
   1419.93896     696.8199     407.4618   1419.93896     696.8199     407.4618
   1419.92371     696.8404     407.3099   1419.92371     696.8404     407.3099
   1419.90845     696.3140     406.3821   1419.90845     696.3140     406.3821
   1419.89319     696.1689     405.3932   1419.89319     696.1689     405.3932
   1419.87793     697.8399     405.7398   1419.87793     697.8399     405.7398
   1419.86267     695.3597     405.2921   1419.86267     695.3597     405.2921
   1419.84741     695.7430     404.3334   1419.84741     695.7430     404.3334
   1419.83215     695.4958     405.0319   1419.83215     695.4958     405.0319
   1419.81689     695.7246     403.6649   1419.81689     695.7246     403.6649
   1419.80164     694.4612     403.8420   1419.80164     694.4612     403.8420
   1419.78638     694.8799     402.7707   1419.78638     694.8799     402.7707
   1419.77112     695.5948     403.2542   1419.77112     695.5948     403.2542
   1419.75586     695.1078     402.1870   1419.75586     695.1078     402.1870
   1419.74060     696.0380     402.4849   1419.74060     696.0380     402.4849
   1419.72534     694.5428     401.6747   1419.72534     694.5428     401.6747
   1419.71008     694.7132     402.3235   1419.71008     694.7132     402.3235
   1419.69482     695.1090     401.9992   1419.69482     695.1090     401.9992
   1419.67957     695.3893     401.6936   1419.67957     695.3893     401.6936
   1419.66431     695.6166     401.3944   1419.66431     695.6166     401.3944
   1419.64905     696.0649     401.0935   1419.64905     696.0649     401.0935
   1419.63379     696.0262     401.6115   1419.63379     696.0262     401.6115
   1419.61853     695.6671     400.6624   1419.61853     695.6671     400.6624
   1419.60327     695.1447     400.8988   1419.60327     695.1447     400.8988
   1419.58801     695.8522     401.6098   1419.58801     695.8522     401.6098
   1419.57275     695.3965     400.0898   1419.57275     695.3965     400.0898
   1419.55750     696.4810     400.5079   1419.55750     696.4810     400.5079
   1419.54224     696.9833     400.1054   1419.54224     696.9833     400.1054
   1419.52698     696.7628     400.4443   1419.52698     696.7628     400.4443
   1419.51172     695.9136     400.8008   1419.51172     695.9136     400.8008
   1419.49646     697.0707     400.0784   1419.49646     697.0707     400.0784
   1419.48120     697.5461     400.7248   1419.48120     697.5461     400.7248
   1419.46594     698.2385     400.9480   1419.46594     698.2385     400.9480
   1419.45068     698.4034     400.5428   1419.45068     698.4034     400.5428
   1419.43542     698.3309     400.0743   1419.43542     698.3309     400.0743
   1419.42017     699.0458     400.1091   1419.42017     699.0458     400.1091
   1419.40491     699.4075     400.4112   1419.40491     699.4075     400.4112
   1419.38965     699.8180     400.1043   1419.38965     699.8180     400.1043
   1419.37439     699.4729     400.2582   1419.37439     699.4729     400.2582
   1419.35913     698.5615     400.1479   1419.35913     698.5615     400.1479
   1419.34387     699.9377     401.0027   1419.34387     699.9377     401.0027
   1419.32861     700.9286     400.8383   1419.32861     700.9286     400.8383
   1419.31335     699.7462     400.2199   1419.31335     699.7462     400.2199
   1419.29810     700.6042     400.8397   1419.29810     700.6042     400.8397
   1419.28284     701.4882     400.9492   1419.28284     701.4882     400.9492
   1419.26758     701.8813     400.9058   1419.26758     701.8813     400.9058
   1419.25232     701.1268     401.3410   1419.25232     701.1268     401.3410
   1419.23706     702.5751     401.3761   1419.23706     702.5751     401.3761
   1419.22180     702.2754     401.5245   1419.22180     702.2754     401.5245
   1419.20654     703.6251     401.3945   1419.20654     703.6251     401.3945
   1419.19128     703.9482     401.6756   1419.19128     703.9482     401.6756
   1419.17603     704.0614     401.8949   1419.17603     704.0614     401.8949
   1419.16077     704.4587     401.4728   1419.16077     704.4587     401.4728
   1419.14551     704.7752     402.3000   1419.14551     704.7752     402.3000
   1419.13025     705.4567     402.4655   1419.13025     705.4567     402.4655
   1419.11499     705.5673     402.7126   1419.11499     705.5673     402.7126
   1419.09973     705.9645     403.0287   1419.09973     705.9645     403.0287
   1419.08447     706.4480     403.2842   1419.08447     706.4480     403.2842
   1419.06921     707.3297     403.0038   1419.06921     707.3297     403.0038
   1419.05396     706.0600     403.3874   1419.05396     706.0600     403.3874
   1419.03870     707.7945     403.9871   1419.03870     707.7945     403.9871
   1419.02344     708.9457     404.3606   1419.02344     708.9457     404.3606
   1419.00818     708.9915     404.6701   1419.00818     708.9915     404.6701
   1418.99292     709.3111     405.2405   1418.99292     709.3111     405.2405
   1418.97766     709.9355     404.5994   1418.97766     709.9355     404.5994
   1418.96240     710.2734     405.2345   1418.96240     710.2734     405.2345
   1418.94714     709.6411     405.4550   1418.94714     709.6411     405.4550
   1418.93188     710.8589     405.3946   1418.93188     710.8589     405.3946
   1418.91663     712.1372     405.6865   1418.91663     712.1372     405.6865
   1418.90137     712.2874     406.3629   1418.90137     712.2874     406.3629
   1418.88611     712.4706     406.9742   1418.88611     712.4706     406.9742
   1418.87085     714.0598     407.3701   1418.87085     714.0598     407.3701
   1418.85559     713.9437     407.3933   1418.85559     713.9437     407.3933
   1418.84033     714.9176     408.1017   1418.84033     714.9176     408.1017
   1418.82507     714.3644     408.4615   1418.82507     714.3644     408.4615
   1418.80981     715.2766     409.0572   1418.80981     715.2766     409.0572
   1418.79456     715.4830     409.4413   1418.79456     715.4830     409.4413
   1418.77930     717.0316     410.2448   1418.77930     717.0316     410.2448
   1418.76404     717.2039     409.6821   1418.76404     717.2039     409.6821
   1418.74878     717.8942     411.0000   1418.74878     717.8942     411.0000
   1418.73352     718.5858     411.3783   1418.73352     718.5858     411.3783
   1418.71826     719.1116     411.0552   1418.71826     719.1116     411.0552
   1418.70300     720.4232     411.5269   1418.70300     720.4232     411.5269
   1418.68774     721.5865     412.6961   1418.68774     721.5865     412.6961
   1418.67249     721.1953     414.2744   1418.67249     721.1953     414.2744
   1418.65723     722.5519     414.0064   1418.65723     722.5519     414.0064
   1418.64197     723.5986     414.1562   1418.64197     723.5986     414.1562
   1418.62671     723.5435     415.1090   1418.62671     723.5435     415.1090
   1418.61145     725.1677     415.7347   1418.61145     725.1677     415.7347
   1418.59619     724.7181     416.3962   1418.59619     724.7181     416.3962
   1418.58093     727.0526     416.1284   1418.58093     727.0526     416.1284
   1418.56567     726.2836     416.8653   1418.56567     726.2836     416.8653
   1418.55042     728.2368     417.5733   1418.55042     728.2368     417.5733
   1418.53516     727.7702     418.1008   1418.53516     727.7702     418.1008
   1418.51990     728.3801     419.4441   1418.51990     728.3801     419.4441
   1418.50464     728.3872     419.3577   1418.50464     728.3872     419.3577
   1418.48938     729.5629     420.2604   1418.48938     729.5629     420.2604
   1418.47412     730.7623     420.4412   1418.47412     730.7623     420.4412
   1418.45886     731.8089     421.7125   1418.45886     731.8089     421.7125
   1418.44360     731.6265     422.6218   1418.44360     731.6265     422.6218
   1418.42834     734.0081     422.8304   1418.42834     734.0081     422.8304
   1418.41309     734.5474     423.4720   1418.41309     734.5474     423.4720
   1418.39783     734.9681     423.8419   1418.39783     734.9681     423.8419
   1418.38257     734.9932     424.6057   1418.38257     734.9932     424.6057
   1418.36731     736.3787     425.8119   1418.36731     736.3787     425.8119
   1418.35205     737.8894     426.3278   1418.35205     737.8894     426.3278
   1418.33679     738.9000     426.9183   1418.33679     738.9000     426.9183
   1418.32153     739.5281     427.6866   1418.32153     739.5281     427.6866
   1418.30627     739.3474     428.4438   1418.30627     739.3474     428.4438
   1418.29102     741.6858     429.4703   1418.29102     741.6858     429.4703
   1418.27576     741.7214     429.6435   1418.27576     741.7214     429.6435
   1418.26050     742.9517     430.9579   1418.26050     742.9517     430.9579
   1418.24524     743.3630     431.5694   1418.24524     743.3630     431.5694
   1418.22998     743.9492     432.7497   1418.22998     743.9492     432.7497
   1418.21472     744.7798     434.2955   1418.21472     744.7798     434.2955
   1418.19946     745.2979     433.5939   1418.19946     745.2979     433.5939
   1418.18420     746.0769     435.0895   1418.18420     746.0769     435.0895
   1418.16895     747.4926     435.7165   1418.16895     747.4926     435.7165
   1418.15369     748.1843     435.6346   1418.15369     748.1843     435.6346
   1418.13843     749.4462     437.2208   1418.13843     749.4462     437.2208
   1418.12317     749.8653     437.7668   1418.12317     749.8653     437.7668
   1418.10791     751.4797     438.8073   1418.10791     751.4797     438.8073
   1418.09265     750.7135     439.7879   1418.09265     750.7135     439.7879
   1418.07739     751.6984     440.6987   1418.07739     751.6984     440.6987
   1418.06213     754.5688     441.1319   1418.06213     754.5688     441.1319
   1418.04688     753.9736     442.2572   1418.04688     753.9736     442.2572
   1418.03162     756.5899     443.2032   1418.03162     756.5899     443.2032
   1418.01636     756.3065     444.0874   1418.01636     756.3065     444.0874
   1418.00110     757.4071     444.9041   1418.00110     757.4071     444.9041
   1417.98584     758.4902     446.0011   1417.98584     758.4902     446.0011
   1417.97058     759.0312     446.6628   1417.97058     759.0312     446.6628
   1417.95532     760.1962     447.8343   1417.95532     760.1962     447.8343
   1417.94006     760.4874     448.1951   1417.94006     760.4874     448.1951
   1417.92480     761.7169     449.9770   1417.92480     761.7169     449.9770
   1417.90955     762.1794     450.7462   1417.90955     762.1794     450.7462
   1417.89429     764.1010     451.0237   1417.89429     764.1010     451.0237
   1417.87903     765.0086     452.0211   1417.87903     765.0086     452.0211
   1417.86377     765.5106     453.2184   1417.86377     765.5106     453.2184
   1417.84851     764.6385     454.0379   1417.84851     764.6385     454.0379
   1417.83325     767.7629     455.8746   1417.83325     767.7629     455.8746
   1417.81799     767.5372     456.3694   1417.81799     767.5372     456.3694
   1417.80273     769.0508     457.4854   1417.80273     769.0508     457.4854
   1417.78748     769.4500     458.7203   1417.78748     769.4500     458.7203
   1417.77222     770.9200     458.8855   1417.77222     770.9200     458.8855
   1417.75696     772.0417     460.9688   1417.75696     772.0417     460.9688
   1417.74170     771.7252     461.4355   1417.74170     771.7252     461.4355
   1417.72644     773.2740     462.5608   1417.72644     773.2740     462.5608
   1417.71118     775.3418     463.3668   1417.71118     775.3418     463.3668
   1417.69592     775.6239     464.1135   1417.69592     775.6239     464.1135
   1417.68066     775.6414     465.9897   1417.68066     775.6414     465.9897
   1417.66541     777.6003     465.9183   1417.66541     777.6003     465.9183
   1417.65015     777.4757     468.0605   1417.65015     777.4757     468.0605
   1417.63489     779.1387     468.5862   1417.63489     779.1387     468.5862
   1417.61963     779.6104     469.6527   1417.61963     779.6104     469.6527
   1417.60437     780.5108     470.8421   1417.60437     780.5108     470.8421
   1417.58911     780.1017     471.4820   1417.58911     780.1017     471.4820
   1417.57385     782.6011     472.2091   1417.57385     782.6011     472.2091
   1417.55859     783.0529     474.3888   1417.55859     783.0529     474.3888
   1417.54333     783.5331     475.2669   1417.54333     783.5331     475.2669
   1417.52808     785.0652     475.4189   1417.52808     785.0652     475.4189
   1417.51282     785.8275     477.4190   1417.51282     785.8275     477.4190
   1417.49756     785.5460     478.1519   1417.49756     785.5460     478.1519
   1417.48230     785.9379     479.1615   1417.48230     785.9379     479.1615
   1417.46704     787.9814     480.9193   1417.46704     787.9814     480.9193
   1417.45178     789.6014     481.6467   1417.45178     789.6014     481.6467
   1417.43652     788.7339     482.3987   1417.43652     788.7339     482.3987
   1417.42126     790.2234     483.6659   1417.42126     790.2234     483.6659
   1417.40601     790.5963     484.7098   1417.40601     790.5963     484.7098
   1417.39075     792.2033     485.1728   1417.39075     792.2033     485.1728
   1417.37549     791.8026     486.4394   1417.37549     791.8026     486.4394
   1417.36023     793.4438     487.9771   1417.36023     793.4438     487.9771
   1417.34497     793.2803     488.4196   1417.34497     793.2803     488.4196
   1417.32971     794.3877     489.4645   1417.32971     794.3877     489.4645
   1417.31445     793.4401     489.9120   1417.31445     793.4401     489.9120
   1417.29919     794.9316     491.0416   1417.29919     794.9316     491.0416
   1417.28394     796.7753     492.9037   1417.28394     796.7753     492.9037
   1417.26868     795.4280     493.7813   1417.26868     795.4280     493.7813
   1417.25342     798.2787     494.7982   1417.25342     798.2787     494.7982
   1417.23816     798.9020     496.5076   1417.23816     798.9020     496.5076
   1417.22290     798.2941     496.3094   1417.22290     798.2941     496.3094
   1417.20764     799.5474     498.3491   1417.20764     799.5474     498.3491
   1417.19238     800.0845     499.7996   1417.19238     800.0845     499.7996
   1417.17712     800.1567     499.8073   1417.17712     800.1567     499.8073
   1417.16187     800.5237     501.5311   1417.16187     800.5237     501.5311
   1417.14661     800.7477     502.4680   1417.14661     800.7477     502.4680
   1417.13135     802.5070     502.5371   1417.13135     802.5070     502.5371
   1417.11609     802.1840     503.3000   1417.11609     802.1840     503.3000
   1417.10083     802.1404     504.0930   1417.10083     802.1404     504.0930
   1417.08557     803.7272     505.0254   1417.08557     803.7272     505.0254
   1417.07031     803.9319     506.4788   1417.07031     803.9319     506.4788
   1417.05505     804.4801     507.5986   1417.05505     804.4801     507.5986
   1417.03979     805.2709     508.5925   1417.03979     805.2709     508.5925
   1417.02454     806.5903     509.9445   1417.02454     806.5903     509.9445
   1417.00928     804.3951     510.0304   1417.00928     804.3951     510.0304
   1416.99402     805.6925     511.8422   1416.99402     805.6925     511.8422
   1416.97876     805.2531     511.9116   1416.97876     805.2531     511.9116
   1416.96350     806.0467     513.1770   1416.96350     806.0467     513.1770
   1416.94824     806.6011     514.0184   1416.94824     806.6011     514.0184
   1416.93298     807.0974     514.7172   1416.93298     807.0974     514.7172
   1416.91772     808.0679     515.9888   1416.91772     808.0679     515.9888
   1416.90247     807.4136     516.3574   1416.90247     807.4136     516.3574
   1416.88721     808.1469     517.4698   1416.88721     808.1469     517.4698
   1416.87195     809.4341     518.5179   1416.87195     809.4341     518.5179
   1416.85669     808.7350     518.4412   1416.85669     808.7350     518.4412
   1416.84143     808.3450     519.5562   1416.84143     808.3450     519.5562
   1416.82617     808.5225     520.2052   1416.82617     808.5225     520.2052
   1416.81091     808.6411     520.3800   1416.81091     808.6411     520.3800
   1416.79565     809.3645     522.0905   1416.79565     809.3645     522.0905
   1416.78040     809.2091     522.7808   1416.78040     809.2091     522.7808
   1416.76514     808.7869     522.8490   1416.76514     808.7869     522.8490
   1416.74988     809.3914     524.1714   1416.74988     809.3914     524.1714
   1416.73462     809.7086     525.0302   1416.73462     809.7086     525.0302
   1416.71936     809.9608     525.4065   1416.71936     809.9608     525.4065
   1416.70410     809.3716     525.8210   1416.70410     809.3716     525.8210
   1416.68884     808.7352     526.8965   1416.68884     808.7352     526.8965
   1416.67358     809.4279     527.0280   1416.67358     809.4279     527.0280
   1416.65833     810.4503     528.1696   1416.65833     810.4503     528.1696
   1416.64307     809.3598     527.6195   1416.64307     809.3598     527.6195
   1416.62781     809.5125     528.2291   1416.62781     809.5125     528.2291
   1416.61255     808.8710     528.6844   1416.61255     808.8710     528.6844
   1416.59729     810.3677     530.7197   1416.59729     810.3677     530.7197
   1416.58203     810.0557     529.8035   1416.58203     810.0557     529.8035
   1416.56677     808.6266     530.6920   1416.56677     808.6266     530.6920
   1416.55151     809.0382     530.6573   1416.55151     809.0382     530.6573
   1416.53625     808.4986     530.8414   1416.53625     808.4986     530.8414
   1416.52100     808.3290     531.4752   1416.52100     808.3290     531.4752
   1416.50574     809.2087     531.4536   1416.50574     809.2087     531.4536
   1416.49048     807.5911     531.6870   1416.49048     807.5911     531.6870
   1416.47522     808.0808     531.9156   1416.47522     808.0808     531.9156
   1416.45996     807.8461     532.9179   1416.45996     807.8461     532.9179
   1416.44470     807.4067     532.9213   1416.44470     807.4067     532.9213
   1416.42944     806.4860     533.1055   1416.42944     806.4860     533.1055
   1416.41418     806.0610     533.4434   1416.41418     806.0610     533.4434
   1416.39893     805.0223     533.4602   1416.39893     805.0223     533.4602
   1416.38367     806.1895     534.1287   1416.38367     806.1895     534.1287
   1416.36841     803.9320     533.0059   1416.36841     803.9320     533.0059
   1416.35315     804.7832     534.6771   1416.35315     804.7832     534.6771
   1416.33789     804.2386     534.0861   1416.33789     804.2386     534.0861
   1416.32263     804.9260     534.5165   1416.32263     804.9260     534.5165
   1416.30737     804.8539     534.6331   1416.30737     804.8539     534.6331
   1416.29211     802.6402     535.2178   1416.29211     802.6402     535.2178
   1416.27686     801.1381     534.7247   1416.27686     801.1381     534.7247
   1416.26160     803.5369     534.7391   1416.26160     803.5369     534.7391
   1416.24634     801.2870     535.2615   1416.24634     801.2870     535.2615
   1416.23108     800.8156     535.5251   1416.23108     800.8156     535.5251
   1416.21582     801.2547     536.0741   1416.21582     801.2547     536.0741
   1416.20056     799.5323     535.2035   1416.20056     799.5323     535.2035
   1416.18530     799.8438     534.8651   1416.18530     799.8438     534.8651
   1416.17004     799.7952     534.9510   1416.17004     799.7952     534.9510
   1416.15479     798.3387     536.0397   1416.15479     798.3387     536.0397
   1416.13953     798.1413     535.5820   1416.13953     798.1413     535.5820
   1416.12427     796.7756     535.1169   1416.12427     796.7756     535.1169
   1416.10901     797.0431     534.5149   1416.10901     797.0431     534.5149
   1416.09375     795.2386     535.0678   1416.09375     795.2386     535.0678
   1416.07849     794.9340     535.2330   1416.07849     794.9340     535.2330
   1416.06323     794.4772     533.9564   1416.06323     794.4772     533.9564
   1416.04797     794.6590     535.8658   1416.04797     794.6590     535.8658
   1416.03271     792.1511     535.2480   1416.03271     792.1511     535.2480
   1416.01746     792.2454     535.0144   1416.01746     792.2454     535.0144
   1416.00220     790.7534     534.2095   1416.00220     790.7534     534.2095
   1415.98694     791.0080     535.2355   1415.98694     791.0080     535.2355
   1415.97168     790.0836     533.8094   1415.97168     790.0836     533.8094
   1415.95642     788.7183     533.5556   1415.95642     788.7183     533.5556
   1415.94116     788.2948     534.4919   1415.94116     788.2948     534.4919
   1415.92590     788.8148     533.0228   1415.92590     788.8148     533.0228
   1415.91064     786.8363     532.8456   1415.91064     786.8363     532.8456
   1415.89539     787.3649     533.0964   1415.89539     787.3649     533.0964
   1415.88013     785.1647     532.5863   1415.88013     785.1647     532.5863
   1415.86487     785.4787     533.2518   1415.86487     785.4787     533.2518
   1415.84961     785.1248     531.9601   1415.84961     785.1248     531.9601
   1415.83435     783.8476     532.4567   1415.83435     783.8476     532.4567
   1415.81909     782.1816     532.6193   1415.81909     782.1816     532.6193
   1415.80383     782.6258     530.8932   1415.80383     782.6258     530.8932
   1415.78857     782.7017     531.1781   1415.78857     782.7017     531.1781
   1415.77332     779.9217     531.7643   1415.77332     779.9217     531.7643
   1415.75806     777.9428     531.5012   1415.75806     777.9428     531.5012
   1415.74280     778.7243     530.6067   1415.74280     778.7243     530.6067
   1415.72754     778.0711     531.4205   1415.72754     778.0711     531.4205
   1415.71228     777.8756     530.6141   1415.71228     777.8756     530.6141
   1415.69702     775.4120     529.6680   1415.69702     775.4120     529.6680
   1415.68176     774.0684     528.6871   1415.68176     774.0684     528.6871
   1415.66650     774.5178     528.4587   1415.66650     774.5178     528.4587
   1415.65125     772.6041     528.8061   1415.65125     772.6041     528.8061
   1415.63599     773.9716     528.7716   1415.63599     773.9716     528.7716
   1415.62073     770.6727     527.4901   1415.62073     770.6727     527.4901
   1415.60547     770.4776     528.0260   1415.60547     770.4776     528.0260
   1415.59021     769.8866     527.3610   1415.59021     769.8866     527.3610
   1415.57495     767.9019     527.0405   1415.57495     767.9019     527.0405
   1415.55969     766.5551     527.8665   1415.55969     766.5551     527.8665
   1415.54443     766.1459     526.4038   1415.54443     766.1459     526.4038
   1415.52917     764.4814     525.7065   1415.52917     764.4814     525.7065
   1415.51392     764.9297     525.2700   1415.51392     764.9297     525.2700
   1415.49866     763.2836     525.0769   1415.49866     763.2836     525.0769
   1415.48340     761.4883     524.3655   1415.48340     761.4883     524.3655
   1415.46814     760.6961     524.3585   1415.46814     760.6961     524.3585
   1415.45288     759.3651     524.1879   1415.45288     759.3651     524.1879
   1415.43762     757.6073     523.3683   1415.43762     757.6073     523.3683
   1415.42236     756.9637     522.9979   1415.42236     756.9637     522.9979
   1415.40710     756.5757     522.7432   1415.40710     756.5757     522.7432
   1415.39185     755.2552     522.2278   1415.39185     755.2552     522.2278
   1415.37659     754.1980     522.9192   1415.37659     754.1980     522.9192
   1415.36133     754.3068     520.8311   1415.36133     754.3068     520.8311
   1415.34607     750.3589     520.9211   1415.34607     750.3589     520.9211
   1415.33081     751.4513     520.3150   1415.33081     751.4513     520.3150
   1415.31555     749.7293     520.1970   1415.31555     749.7293     520.1970
   1415.30029     748.7399     520.4963   1415.30029     748.7399     520.4963
   1415.28503     747.8621     519.0816   1415.28503     747.8621     519.0816
   1415.26978     746.2065     519.8210   1415.26978     746.2065     519.8210
   1415.25452     745.6883     518.7030   1415.25452     745.6883     518.7030
   1415.23926     743.6733     518.0682   1415.23926     743.6733     518.0682
   1415.22400     741.8362     517.8276   1415.22400     741.8362     517.8276
   1415.20874     740.5712     516.7303   1415.20874     740.5712     516.7303
   1415.19348     740.2798     516.2899   1415.19348     740.2798     516.2899
   1415.17822     738.6459     516.2628   1415.17822     738.6459     516.2628
   1415.16296     737.0334     516.1348   1415.16296     737.0334     516.1348
   1415.14771     735.5359     515.0543   1415.14771     735.5359     515.0543
   1415.13245     734.4293     514.3246   1415.13245     734.4293     514.3246
   1415.11719     732.4358     513.0994   1415.11719     732.4358     513.0994
   1415.10193     731.5244     512.7283   1415.10193     731.5244     512.7283
   1415.08667     730.6411     512.1843   1415.08667     730.6411     512.1843
   1415.07141     728.7491     511.5471   1415.07141     728.7491     511.5471
   1415.05615     727.1187     510.8017   1415.05615     727.1187     510.8017
   1415.04089     725.6641     509.6085   1415.04089     725.6641     509.6085
   1415.02563     724.9356     510.2461   1415.02563     724.9356     510.2461
   1415.01038     722.8678     509.1364   1415.01038     722.8678     509.1364
   1414.99512     722.6563     509.1763   1414.99512     722.6563     509.1763
   1414.97986     717.7943     507.0616   1414.97986     717.7943     507.0616
   1414.96460     718.4855     506.1988   1414.96460     718.4855     506.1988
   1414.94934     717.0648     505.6133   1414.94934     717.0648     505.6133
   1414.93408     715.7462     504.9496   1414.93408     715.7462     504.9496
   1414.91882     713.6417     504.5919   1414.91882     713.6417     504.5919
   1414.90356     712.8557     504.2200   1414.90356     712.8557     504.2200
   1414.88831     710.6733     503.2497   1414.88831     710.6733     503.2497
   1414.87305     708.0028     502.4250   1414.87305     708.0028     502.4250
   1414.85779     706.8751     501.1807   1414.85779     706.8751     501.1807
   1414.84253     706.5956     500.1206   1414.84253     706.5956     500.1206
   1414.82727     703.7426     499.2859   1414.82727     703.7426     499.2859
   1414.81201     701.8781     499.0157   1414.81201     701.8781     499.0157
   1414.79675     701.0414     498.5630   1414.79675     701.0414     498.5630
   1414.78149     699.1782     497.0009   1414.78149     699.1782     497.0009
   1414.76624     697.9503     496.4492   1414.76624     697.9503     496.4492
   1414.75098     694.9927     495.4143   1414.75098     694.9927     495.4143
   1414.73572     694.0599     495.3018   1414.73572     694.0599     495.3018
   1414.72046     692.0319     493.1910   1414.72046     692.0319     493.1910
   1414.70520     689.3736     493.3063   1414.70520     689.3736     493.3063
   1414.68994     688.0201     491.5732   1414.68994     688.0201     491.5732
   1414.67468     686.6124     490.4545   1414.67468     686.6124     490.4545
   1414.65942     683.8496     489.5682   1414.65942     683.8496     489.5682
   1414.64417     683.0006     488.4778   1414.64417     683.0006     488.4778
   1414.62891     680.9277     488.6698   1414.62891     680.9277     488.6698
   1414.61365     678.3667     486.7286   1414.61365     678.3667     486.7286
   1414.59839     675.4158     485.9485   1414.59839     675.4158     485.9485
   1414.58313     674.6116     485.2393   1414.58313     674.6116     485.2393
   1414.56787     673.2505     483.6822   1414.56787     673.2505     483.6822
   1414.55261     671.8433     482.5010   1414.55261     671.8433     482.5010
   1414.53735     669.4440     482.1188   1414.53735     669.4440     482.1188
   1414.52209     667.1526     479.9249   1414.52209     667.1526     479.9249
   1414.50684     664.3029     478.9460   1414.50684     664.3029     478.9460
   1414.49158     662.1982     478.2927   1414.49158     662.1982     478.2927
   1414.47632     660.5775     476.8170   1414.47632     660.5775     476.8170
   1414.46106     658.8098     476.6839   1414.46106     658.8098     476.6839
   1414.44580     655.2899     474.6364   1414.44580     655.2899     474.6364
   1414.43054     653.9824     473.4421   1414.43054     653.9824     473.4421
   1414.41528     651.7020     472.4842   1414.41528     651.7020     472.4842
   1414.40002     650.9092     471.3438   1414.40002     650.9092     471.3438
   1414.38477     647.6900     470.7916   1414.38477     647.6900     470.7916
   1414.36951     645.6437     468.6912   1414.36951     645.6437     468.6912
   1414.35425     644.0458     467.3884   1414.35425     644.0458     467.3884
   1414.33899     642.1472     465.7599   1414.33899     642.1472     465.7599
   1414.32373     638.4441     464.9249   1414.32373     638.4441     464.9249
   1414.30847     636.1439     463.6211   1414.30847     636.1439     463.6211
   1414.29321     634.1091     462.4546   1414.29321     634.1091     462.4546
   1414.27795     631.6799     460.8857   1414.27795     631.6799     460.8857
   1414.26270     629.0734     460.0813   1414.26270     629.0734     460.0813
   1414.24744     627.4687     457.8752   1414.24744     627.4687     457.8752
   1414.23218     624.3306     456.2800   1414.23218     624.3306     456.2800
   1414.21692     622.2827     455.6953   1414.21692     622.2827     455.6953
   1414.20166     620.4204     454.0073   1414.20166     620.4204     454.0073
   1414.18640     616.7498     452.7631   1414.18640     616.7498     452.7631
   1414.17114     615.9371     451.9785   1414.17114     615.9371     451.9785
   1414.15588     613.2780     450.0374   1414.15588     613.2780     450.0374
   1414.14062     611.3528     448.1328   1414.14062     611.3528     448.1328
   1414.12537     608.0111     447.1446   1414.12537     608.0111     447.1446
   1414.11011     605.4215     444.9511   1414.11011     605.4215     444.9511
   1414.09485     603.8672     443.7568   1414.09485     603.8672     443.7568
   1414.07959     600.2183     442.6881   1414.07959     600.2183     442.6881
   1414.06433     596.9019     441.3533   1414.06433     596.9019     441.3533
   1414.04907     594.1129     439.2078   1414.04907     594.1129     439.2078
   1414.03381     592.5538     438.4219   1414.03381     592.5538     438.4219
   1414.01855     591.1438     437.6200   1414.01855     591.1438     437.6200
   1414.00330     601.5483     440.3980   1414.00330     601.5483     440.3980
   1413.98804     584.5200     433.4543   1413.98804     584.5200     433.4543
   1413.97278     581.8342     432.1484   1413.97278     581.8342     432.1484
   1413.95752     580.6013     430.3807   1413.95752     580.6013     430.3807
   1413.94226     577.4211     428.3876   1413.94226     577.4211     428.3876
   1413.92700     573.9371     427.6447   1413.92700     573.9371     427.6447
   1413.91174     571.8484     426.2799   1413.91174     571.8484     426.2799
   1413.89648     569.2905     424.2509   1413.89648     569.2905     424.2509
   1413.88123     566.5474     422.7737   1413.88123     566.5474     422.7737
   1413.86597     562.2808     421.2890   1413.86597     562.2808     421.2890
   1413.85071     561.0620     419.4933   1413.85071     561.0620     419.4933
   1413.83545     557.1442     418.0698   1413.83545     557.1442     418.0698
   1413.82019     555.5314     415.7393   1413.82019     555.5314     415.7393
   1413.80493     553.4011     415.0959   1413.80493     553.4011     415.0959
   1413.78967     549.9778     413.0973   1413.78967     549.9778     413.0973
   1413.77441     547.8578     411.2699   1413.77441     547.8578     411.2699
   1413.75916     544.5291     409.7102   1413.75916     544.5291     409.7102
   1413.74390     542.4892     407.8895   1413.74390     542.4892     407.8895
   1413.72864     538.7479     406.1037   1413.72864     538.7479     406.1037
   1413.71338     536.2801     404.7178   1413.71338     536.2801     404.7178
   1413.69812     533.6470     404.0416   1413.69812     533.6470     404.0416
   1413.68286     531.4632     401.5732   1413.68286     531.4632     401.5732
   1413.66760     528.5024     400.1853   1413.66760     528.5024     400.1853
   1413.65234     526.0715     398.8429   1413.65234     526.0715     398.8429
   1413.63708     523.0747     396.6710   1413.63708     523.0747     396.6710
   1413.62183     519.4953     394.9409   1413.62183     519.4953     394.9409
   1413.60657     517.5546     393.3538   1413.60657     517.5546     393.3538
   1413.59131     514.2863     391.6884   1413.59131     514.2863     391.6884
   1413.57605     512.1884     391.0434   1413.57605     512.1884     391.0434
   1413.56079     508.8897     388.8555   1413.56079     508.8897     388.8555
   1413.54553     507.2725     387.3586   1413.54553     507.2725     387.3586
   1413.53027     504.0293     386.0915   1413.53027     504.0293     386.0915
   1413.51501     501.8254     383.4655   1413.51501     501.8254     383.4655
   1413.49976     499.0491     382.0345   1413.49976     499.0491     382.0345
   1413.48450     496.0658     380.5838   1413.48450     496.0658     380.5838
   1413.46924     494.1130     378.7502   1413.46924     494.1130     378.7502
   1413.45398     491.1339     378.2043   1413.45398     491.1339     378.2043
   1413.43872     488.0487     376.3485   1413.43872     488.0487     376.3485
   1413.42346     484.8155     375.5424   1413.42346     484.8155     375.5424
   1413.40820     483.2344     373.2130   1413.40820     483.2344     373.2130
   1413.39294     479.8280     371.5887   1413.39294     479.8280     371.5887
   1413.37769     477.5879     370.1051   1413.37769     477.5879     370.1051
   1413.36243     475.3437     369.3981   1413.36243     475.3437     369.3981
   1413.34717     472.6353     367.3416   1413.34717     472.6353     367.3416
   1413.33191     469.9032     365.4688   1413.33191     469.9032     365.4688
   1413.31665     467.8295     365.0786   1413.31665     467.8295     365.0786
   1413.30139     464.4026     362.7593   1413.30139     464.4026     362.7593
   1413.28613     461.9168     361.4282   1413.28613     461.9168     361.4282
   1413.27087     459.7419     360.0754   1413.27087     459.7419     360.0754
   1413.25562     458.2607     358.3876   1413.25562     458.2607     358.3876
   1413.24036     455.2375     357.4716   1413.24036     455.2375     357.4716
   1413.22510     453.2207     356.8773   1413.22510     453.2207     356.8773
   1413.20984     450.6292     355.0038   1413.20984     450.6292     355.0038
   1413.19458     447.8259     353.4764   1413.19458     447.8259     353.4764
   1413.17932     445.7576     352.1679   1413.17932     445.7576     352.1679
   1413.16406     442.5655     351.3515   1413.16406     442.5655     351.3515
   1413.14880     441.0796     349.6993   1413.14880     441.0796     349.6993
   1413.13354     438.8599     348.8503   1413.13354     438.8599     348.8503
   1413.11829     436.1797     347.0956   1413.11829     436.1797     347.0956
   1413.10303     434.2487     346.2085   1413.10303     434.2487     346.2085
   1413.08777     431.4011     345.7094   1413.08777     431.4011     345.7094
   1413.07251     429.1666     344.2178   1413.07251     429.1666     344.2178
   1413.05725     428.9281     342.8738   1413.05725     428.9281     342.8738
   1413.04199     425.7078     341.8652   1413.04199     425.7078     341.8652
   1413.02673     423.7212     341.1171   1413.02673     423.7212     341.1171
   1413.01147     420.7981     340.3697   1413.01147     420.7981     340.3697
   1412.99622     419.9312     339.5169   1412.99622     419.9312     339.5169
   1412.98096     417.6882     338.0038   1412.98096     417.6882     338.0038
   1412.96570     416.0574     337.4839   1412.96570     416.0574     337.4839
   1412.95044     414.0729     336.7318   1412.95044     414.0729     336.7318
   1412.93518     412.1375     336.0942   1412.93518     412.1375     336.0942
   1412.91992     410.9887     335.3391   1412.91992     410.9887     335.3391
   1412.90466     408.8108     334.7297   1412.90466     408.8108     334.7297
   1412.88940     407.3680     334.0733   1412.88940     407.3680     334.0733
   1412.87415     405.7734     333.1908   1412.87415     405.7734     333.1908
   1412.85889     403.7417     332.7216   1412.85889     403.7417     332.7216
   1412.84363     401.7351     331.6681   1412.84363     401.7351     331.6681
   1412.82837     400.4228     331.1713   1412.82837     400.4228     331.1713
   1412.81311     398.6457     331.0171   1412.81311     398.6457     331.0171
   1412.79785     396.6712     330.2213   1412.79785     396.6712     330.2213
   1412.78259     396.4744     329.9292   1412.78259     396.4744     329.9292
   1412.76733     394.5318     330.0358   1412.76733     394.5318     330.0358
   1412.75208     392.5086     329.2548   1412.75208     392.5086     329.2548
   1412.73682     391.9140     328.7490   1412.73682     391.9140     328.7490
   1412.72156     390.9543     328.8012   1412.72156     390.9543     328.8012
   1412.70630     389.5254     328.0926   1412.70630     389.5254     328.0926
   1412.69104     388.3609     328.1785   1412.69104     388.3609     328.1785
   1412.67578     387.1878     328.1039   1412.67578     387.1878     328.1039
   1412.66052     386.2104     327.9934   1412.66052     386.2104     327.9934
   1412.64526     385.7731     328.3539   1412.64526     385.7731     328.3539
   1412.63000     383.8671     328.4509   1412.63000     383.8671     328.4509
   1412.61475     382.8936     327.8551   1412.61475     382.8936     327.8551
   1412.59949     382.6431     327.5003   1412.59949     382.6431     327.5003
   1412.58423     382.0448     328.0435   1412.58423     382.0448     328.0435
   1412.56897     380.8203     328.3755   1412.56897     380.8203     328.3755
   1412.55371     379.9773     329.0652   1412.55371     379.9773     329.0652
   1412.53845     379.1122     329.2950   1412.53845     379.1122     329.2950
   1412.52319     378.5486     329.5872   1412.52319     378.5486     329.5872
   1412.50793     378.1248     329.4022   1412.50793     378.1248     329.4022
   1412.49268     377.6161     330.4427   1412.49268     377.6161     330.4427
   1412.47742     377.4518     330.2482   1412.47742     377.4518     330.2482
   1412.46216     376.9264     331.2393   1412.46216     376.9264     331.2393
   1412.44690     376.1726     331.4580   1412.44690     376.1726     331.4580
   1412.43164     376.1618     332.1001   1412.43164     376.1618     332.1001
   1412.41638     376.1123     333.4818   1412.41638     376.1123     333.4818
   1412.40112     375.8007     333.7707   1412.40112     375.8007     333.7707
   1412.38586     375.7793     334.3994   1412.38586     375.7793     334.3994
   1412.37061     375.8089     335.1401   1412.37061     375.8089     335.1401
   1412.35535     375.7148     336.3246   1412.35535     375.7148     336.3246
   1412.34009     376.0656     337.0050   1412.34009     376.0656     337.0050
   1412.32483     375.6202     337.5386   1412.32483     375.6202     337.5386
   1412.30957     375.6941     338.1181   1412.30957     375.6941     338.1181
   1412.29431     375.6515     338.8618   1412.29431     375.6515     338.8618
   1412.27905     376.5129     340.4378   1412.27905     376.5129     340.4378
   1412.26379     376.5865     341.9482   1412.26379     376.5865     341.9482
   1412.24854     377.3351     342.3420   1412.24854     377.3351     342.3420
   1412.23328     377.4236     343.1957   1412.23328     377.4236     343.1957
   1412.21802     378.2903     345.0702   1412.21802     378.2903     345.0702
   1412.20276     377.9787     345.7039   1412.20276     377.9787     345.7039