#     FILENAME=!Skynet_57528_lach-cc-207_20614_21052.cyb.fits
#     BASENAME=Skynet_57528_lach-cc-207_20614_21052
#     SRC_NAME=lach-cc-207
#     OBSERVER=ccmadison16_9505
#     DATE_OBS=2016-05-20T20:20:51.500
#        OBSID=20614
#      SCANNUM=21052
#          MJD=57528.8489
#          UTC=73341
#     SCANTYPE=track
#     DATAMODE=HIRES
#     TUNEFREQ=1420.0000
# Actual_FREQ1=1420.0000
# Actual_FREQ2=1420.0000
#    LO1Tuning=6870.000
#     RFFILTER=1355_1435
#        OBSBW=-15.6250
#        NCHAN=1024 
#        FOCUS=37.0709
#           RA=06:40:33.59
#          DEC=05:16:39.27
#      RA(hrs)=6.676000
#     DEC(deg)=5.277600
#    AZIM(deg)=186.618
#    ELEV(deg)=56.499
#     IFattens=10.00, 9.00
#      WARNING=None
#    TCAL_XL1=7.9635
#    TCAL_YR1=9.1340
#    TCAL_XL2=7.9635
#    TCAL_YR2=9.1340
#     TRX_XL1=11.7060
#     TRX_YR1=11.7060
#     TRX_XL2=11.7060
#     TRX_YR2=11.7060
#        TAVE=1.0000
#Freq1(MHz)          XL1          YR1  Freq2(MHz)          XL2          YR2 

   1427.81250     358.7056     265.2578   1427.81250     358.7056     265.2578
   1427.79724     359.6310     266.1004   1427.79724     359.6310     266.1004
   1427.78198     360.3556     266.9388   1427.78198     360.3556     266.9388
   1427.76672     361.7121     267.1846   1427.76672     361.7121     267.1846
   1427.75146     362.0697     268.2076   1427.75146     362.0697     268.2076
   1427.73621     362.2379     269.1637   1427.73621     362.2379     269.1637
   1427.72095     363.8152     270.6742   1427.72095     363.8152     270.6742
   1427.70569     363.9274     271.1340   1427.70569     363.9274     271.1340
   1427.69043     365.4879     272.2265   1427.69043     365.4879     272.2265
   1427.67517     366.2276     273.2960   1427.67517     366.2276     273.2960
   1427.65991     367.2029     274.3507   1427.65991     367.2029     274.3507
   1427.64465     367.8485     275.2579   1427.64465     367.8485     275.2579
   1427.62939     369.6184     276.1744   1427.62939     369.6184     276.1744
   1427.61414     370.5432     277.3662   1427.61414     370.5432     277.3662
   1427.59888     372.3654     278.8781   1427.59888     372.3654     278.8781
   1427.58362     373.4100     279.7879   1427.58362     373.4100     279.7879
   1427.56836     374.5329     280.8906   1427.56836     374.5329     280.8906
   1427.55310     375.2936     282.4859   1427.55310     375.2936     282.4859
   1427.53784     377.8676     283.6227   1427.53784     377.8676     283.6227
   1427.52258     378.5642     285.2343   1427.52258     378.5642     285.2343
   1427.50732     381.2979     286.2449   1427.50732     381.2979     286.2449
   1427.49207     381.9741     288.0693   1427.49207     381.9741     288.0693
   1427.47681     383.5073     289.3719   1427.47681     383.5073     289.3719
   1427.46155     385.5920     290.9621   1427.46155     385.5920     290.9621
   1427.44629     386.7586     292.4228   1427.44629     386.7586     292.4228
   1427.43103     388.8523     293.6688   1427.43103     388.8523     293.6688
   1427.41577     390.6798     295.9260   1427.41577     390.6798     295.9260
   1427.40051     393.2159     297.6843   1427.40051     393.2159     297.6843
   1427.38525     394.3449     299.0677   1427.38525     394.3449     299.0677
   1427.37000     395.9101     300.7454   1427.37000     395.9101     300.7454
   1427.35474     398.2583     302.2633   1427.35474     398.2583     302.2633
   1427.33948     400.5877     304.2186   1427.33948     400.5877     304.2186
   1427.32422     402.6099     305.6666   1427.32422     402.6099     305.6666
   1427.30896     404.6271     308.1667   1427.30896     404.6271     308.1667
   1427.29370     406.4362     309.9749   1427.29370     406.4362     309.9749
   1427.27844     408.8425     311.2304   1427.27844     408.8425     311.2304
   1427.26318     411.2045     313.9167   1427.26318     411.2045     313.9167
   1427.24792     412.4126     315.7932   1427.24792     412.4126     315.7932
   1427.23267     415.1761     317.5795   1427.23267     415.1761     317.5795
   1427.21741     417.8147     319.8889   1427.21741     417.8147     319.8889
   1427.20215     419.9478     321.9043   1427.20215     419.9478     321.9043
   1427.18689     422.2917     323.9505   1427.18689     422.2917     323.9505
   1427.17163     425.3741     325.6666   1427.17163     425.3741     325.6666
   1427.15637     427.1663     327.5163   1427.15637     427.1663     327.5163
   1427.14111     429.4724     330.6191   1427.14111     429.4724     330.6191
   1427.12585     432.1902     332.2520   1427.12585     432.1902     332.2520
   1427.11060     434.8309     334.6781   1427.11060     434.8309     334.6781
   1427.09534     436.8907     336.8654   1427.09534     436.8907     336.8654
   1427.08008     440.2869     338.8742   1427.08008     440.2869     338.8742
   1427.06482     442.0704     340.7609   1427.06482     442.0704     340.7609
   1427.04956     445.3276     343.5737   1427.04956     445.3276     343.5737
   1427.03430     448.2784     346.0706   1427.03430     448.2784     346.0706
   1427.01904     450.5678     347.7008   1427.01904     450.5678     347.7008
   1427.00378     453.2596     350.1812   1427.00378     453.2596     350.1812
   1426.98853     455.9608     352.2691   1426.98853     455.9608     352.2691
   1426.97327     458.8316     354.7641   1426.97327     458.8316     354.7641
   1426.95801     461.6786     357.1996   1426.95801     461.6786     357.1996
   1426.94275     463.8606     359.2751   1426.94275     463.8606     359.2751
   1426.92749     466.3987     361.9478   1426.92749     466.3987     361.9478
   1426.91223     470.4216     364.6647   1426.91223     470.4216     364.6647
   1426.89697     472.6574     366.5197   1426.89697     472.6574     366.5197
   1426.88171     475.3559     369.1924   1426.88171     475.3559     369.1924
   1426.86646     478.3549     371.5913   1426.86646     478.3549     371.5913
   1426.85120     481.3410     374.3316   1426.85120     481.3410     374.3316
   1426.83594     484.1026     376.6030   1426.83594     484.1026     376.6030
   1426.82068     486.5306     379.3878   1426.82068     486.5306     379.3878
   1426.80542     489.4231     381.1421   1426.80542     489.4231     381.1421
   1426.79016     493.1273     384.0271   1426.79016     493.1273     384.0271
   1426.77490     496.0186     386.4633   1426.77490     496.0186     386.4633
   1426.75964     499.9065     389.4270   1426.75964     499.9065     389.4270
   1426.74438     502.0728     391.4448   1426.74438     502.0728     391.4448
   1426.72913     504.4961     394.3054   1426.72913     504.4961     394.3054
   1426.71387     507.0225     395.7780   1426.71387     507.0225     395.7780
   1426.69861     510.5199     398.1594   1426.69861     510.5199     398.1594
   1426.68335     513.0940     401.7262   1426.68335     513.0940     401.7262
   1426.66809     516.7081     403.7306   1426.66809     516.7081     403.7306
   1426.65283     518.8765     406.8040   1426.65283     518.8765     406.8040
   1426.63757     521.9488     408.7976   1426.63757     521.9488     408.7976
   1426.62231     525.5222     413.0807   1426.62231     525.5222     413.0807
   1426.60706     527.6789     414.0705   1426.60706     527.6789     414.0705
   1426.59180     531.0957     416.7581   1426.59180     531.0957     416.7581
   1426.57654     534.1093     419.1650   1426.57654     534.1093     419.1650
   1426.56128     537.0905     421.2990   1426.56128     537.0905     421.2990
   1426.54602     540.2605     423.8696   1426.54602     540.2605     423.8696
   1426.53076     542.3566     426.4504   1426.53076     542.3566     426.4504
   1426.51550     546.3469     428.6829   1426.51550     546.3469     428.6829
   1426.50024     549.1644     431.4081   1426.50024     549.1644     431.4081
   1426.48499     550.9896     433.8471   1426.48499     550.9896     433.8471
   1426.46973     553.8500     436.0964   1426.46973     553.8500     436.0964
   1426.45447     556.6519     438.5054   1426.45447     556.6519     438.5054
   1426.43921     559.3344     441.0573   1426.43921     559.3344     441.0573
   1426.42395     561.8030     444.5311   1426.42395     561.8030     444.5311
   1426.40869     565.6443     446.6937   1426.40869     565.6443     446.6937
   1426.39343     567.6203     448.4805   1426.39343     567.6203     448.4805
   1426.37817     571.4960     451.5161   1426.37817     571.4960     451.5161
   1426.36292     573.6523     454.3449   1426.36292     573.6523     454.3449
   1426.34766     576.3561     455.9933   1426.34766     576.3561     455.9933
   1426.33240     579.4359     459.2810   1426.33240     579.4359     459.2810
   1426.31714     582.5916     461.0839   1426.31714     582.5916     461.0839
   1426.30188     584.3710     464.5191   1426.30188     584.3710     464.5191
   1426.28662     587.5878     465.7072   1426.28662     587.5878     465.7072
   1426.27136     589.5458     467.8260   1426.27136     589.5458     467.8260
   1426.25610     593.2386     470.0193   1426.25610     593.2386     470.0193
   1426.24084     595.5972     472.9488   1426.24084     595.5972     472.9488
   1426.22559     597.5062     474.8846   1426.22559     597.5062     474.8846
   1426.21033     600.2379     477.2724   1426.21033     600.2379     477.2724
   1426.19507     602.8686     479.6240   1426.19507     602.8686     479.6240
   1426.17981     605.3820     481.9336   1426.17981     605.3820     481.9336
   1426.16455     607.8420     483.5410   1426.16455     607.8420     483.5410
   1426.14929     611.0220     486.9776   1426.14929     611.0220     486.9776
   1426.13403     613.1563     488.4401   1426.13403     613.1563     488.4401
   1426.11877     616.0217     490.7267   1426.11877     616.0217     490.7267
   1426.10352     617.7927     493.4044   1426.10352     617.7927     493.4044
   1426.08826     620.0066     495.0134   1426.08826     620.0066     495.0134
   1426.07300     622.6912     497.4741   1426.07300     622.6912     497.4741
   1426.05774     625.1479     499.8235   1426.05774     625.1479     499.8235
   1426.04248     628.0331     502.2658   1426.04248     628.0331     502.2658
   1426.02722     629.5907     504.4671   1426.02722     629.5907     504.4671
   1426.01196     632.5679     506.0378   1426.01196     632.5679     506.0378
   1425.99670     633.8949     507.9872   1425.99670     633.8949     507.9872
   1425.98145     636.8257     510.5382   1425.98145     636.8257     510.5382
   1425.96619     639.8839     512.3305   1425.96619     639.8839     512.3305
   1425.95093     642.0966     514.4566   1425.95093     642.0966     514.4566
   1425.93567     643.1940     516.3452   1425.93567     643.1940     516.3452
   1425.92041     645.6572     518.8111   1425.92041     645.6572     518.8111
   1425.90515     648.0765     520.6601   1425.90515     648.0765     520.6601
   1425.88989     650.2394     521.6973   1425.88989     650.2394     521.6973
   1425.87463     651.7028     525.0757   1425.87463     651.7028     525.0757
   1425.85938     654.0358     526.1049   1425.85938     654.0358     526.1049
   1425.84412     655.6812     527.4136   1425.84412     655.6812     527.4136
   1425.82886     658.8729     530.2070   1425.82886     658.8729     530.2070
   1425.81360     659.3484     532.8856   1425.81360     659.3484     532.8856
   1425.79834     661.0992     534.0443   1425.79834     661.0992     534.0443
   1425.78308     662.6650     536.4868   1425.78308     662.6650     536.4868
   1425.76782     664.9987     537.4993   1425.76782     664.9987     537.4993
   1425.75256     666.4979     539.5867   1425.75256     666.4979     539.5867
   1425.73730     669.4342     541.4376   1425.73730     669.4342     541.4376
   1425.72205     670.1945     543.5450   1425.72205     670.1945     543.5450
   1425.70679     671.8234     544.6377   1425.70679     671.8234     544.6377
   1425.69153     673.6585     547.2777   1425.69153     673.6585     547.2777
   1425.67627     675.3370     548.8121   1425.67627     675.3370     548.8121
   1425.66101     676.7778     550.6169   1425.66101     676.7778     550.6169
   1425.64575     679.5638     552.4012   1425.64575     679.5638     552.4012
   1425.63049     680.9581     552.9956   1425.63049     680.9581     552.9956
   1425.61523     681.5477     555.5052   1425.61523     681.5477     555.5052
   1425.59998     684.7025     555.9449   1425.59998     684.7025     555.9449
   1425.58472     685.5577     557.3695   1425.58472     685.5577     557.3695
   1425.56946     686.1251     559.6102   1425.56946     686.1251     559.6102
   1425.55420     687.3793     560.7696   1425.55420     687.3793     560.7696
   1425.53894     688.8761     562.8168   1425.53894     688.8761     562.8168
   1425.52368     690.7881     565.0417   1425.52368     690.7881     565.0417
   1425.50842     691.6257     566.0217   1425.50842     691.6257     566.0217
   1425.49316     692.0818     567.7480   1425.49316     692.0818     567.7480
   1425.47791     695.0461     569.0375   1425.47791     695.0461     569.0375
   1425.46265     695.4963     570.4860   1425.46265     695.4963     570.4860
   1425.44739     697.3435     571.5538   1425.44739     697.3435     571.5538
   1425.43213     698.6370     573.0844   1425.43213     698.6370     573.0844
   1425.41687     700.4940     575.7291   1425.41687     700.4940     575.7291
   1425.40161     700.4871     576.1075   1425.40161     700.4871     576.1075
   1425.38635     701.8486     575.7335   1425.38635     701.8486     575.7335
   1425.37109     702.8340     577.8457   1425.37109     702.8340     577.8457
   1425.35583     703.1915     578.7595   1425.35583     703.1915     578.7595
   1425.34058     704.2465     580.8710   1425.34058     704.2465     580.8710
   1425.32532     705.1320     581.9335   1425.32532     705.1320     581.9335
   1425.31006     706.3558     582.7397   1425.31006     706.3558     582.7397
   1425.29480     706.0769     584.2266   1425.29480     706.0769     584.2266
   1425.27954     708.6932     585.3017   1425.27954     708.6932     585.3017
   1425.26428     709.1513     587.0388   1425.26428     709.1513     587.0388
   1425.24902     710.1257     587.5117   1425.24902     710.1257     587.5117
   1425.23376     711.2532     588.4828   1425.23376     711.2532     588.4828
   1425.21851     711.8130     590.0680   1425.21851     711.8130     590.0680
   1425.20325     712.2169     590.7346   1425.20325     712.2169     590.7346
   1425.18799     712.7009     592.4432   1425.18799     712.7009     592.4432
   1425.17273     713.0469     593.1812   1425.17273     713.0469     593.1812
   1425.15747     713.3492     593.9718   1425.15747     713.3492     593.9718
   1425.14221     715.9069     595.4430   1425.14221     715.9069     595.4430
   1425.12695     715.7274     596.7057   1425.12695     715.7274     596.7057
   1425.11169     716.6573     597.7274   1425.11169     716.6573     597.7274
   1425.09644     716.9545     598.1769   1425.09644     716.9545     598.1769
   1425.08118     717.2682     599.0359   1425.08118     717.2682     599.0359
   1425.06592     718.3463     599.7408   1425.06592     718.3463     599.7408
   1425.05066     718.4210     601.1103   1425.05066     718.4210     601.1103
   1425.03540     719.4279     602.1641   1425.03540     719.4279     602.1641
   1425.02014     719.5630     602.6478   1425.02014     719.5630     602.6478
   1425.00488     719.6504     603.7786   1425.00488     719.6504     603.7786
   1424.98962     722.0302     603.6125   1424.98962     722.0302     603.6125
   1424.97437     719.7507     604.8406   1424.97437     719.7507     604.8406
   1424.95911     721.1559     606.6907   1424.95911     721.1559     606.6907
   1424.94385     722.8218     607.0060   1424.94385     722.8218     607.0060
   1424.92859     722.9172     607.5862   1424.92859     722.9172     607.5862
   1424.91333     723.5936     607.6268   1424.91333     723.5936     607.6268
   1424.89807     722.5321     608.2880   1424.89807     722.5321     608.2880
   1424.88281     722.8574     609.4886   1424.88281     722.8574     609.4886
   1424.86755     723.0847     609.7551   1424.86755     723.0847     609.7551
   1424.85229     722.6328     609.7260   1424.85229     722.6328     609.7260
   1424.83704     722.7405     610.2187   1424.83704     722.7405     610.2187
   1424.82178     724.0410     611.1801   1424.82178     724.0410     611.1801
   1424.80652     724.3017     613.5688   1424.80652     724.3017     613.5688
   1424.79126     724.1596     612.8881   1424.79126     724.1596     612.8881
   1424.77600     724.1008     614.1312   1424.77600     724.1008     614.1312
   1424.76074     724.5684     613.2670   1424.76074     724.5684     613.2670
   1424.74548     724.5390     615.3430   1424.74548     724.5390     615.3430
   1424.73022     724.9562     614.8364   1424.73022     724.9562     614.8364
   1424.71497     726.1983     615.7303   1424.71497     726.1983     615.7303
   1424.69971     724.8543     615.8478   1424.69971     724.8543     615.8478
   1424.68445     725.5143     615.6985   1424.68445     725.5143     615.6985
   1424.66919     725.0804     618.2756   1424.66919     725.0804     618.2756
   1424.65393     726.2751     617.5230   1424.65393     726.2751     617.5230
   1424.63867     724.8090     618.4830   1424.63867     724.8090     618.4830
   1424.62341     725.2534     618.4492   1424.62341     725.2534     618.4492
   1424.60815     725.9611     620.4573   1424.60815     725.9611     620.4573
   1424.59290     724.6113     619.9471   1424.59290     724.6113     619.9471
   1424.57764     724.1045     619.9915   1424.57764     724.1045     619.9915
   1424.56238     724.1132     619.1473   1424.56238     724.1132     619.1473
   1424.54712     725.1109     620.5030   1424.54712     725.1109     620.5030
   1424.53186     724.7301     620.7003   1424.53186     724.7301     620.7003
   1424.51660     725.5147     620.9277   1424.51660     725.5147     620.9277
   1424.50134     724.0341     621.5060   1424.50134     724.0341     621.5060
   1424.48608     725.1038     621.2199   1424.48608     725.1038     621.2199
   1424.47083     723.3220     622.0764   1424.47083     723.3220     622.0764
   1424.45557     724.8668     621.3523   1424.45557     724.8668     621.3523
   1424.44031     724.6115     622.8314   1424.44031     724.6115     622.8314
   1424.42505     723.8273     622.4671   1424.42505     723.8273     622.4671
   1424.40979     723.2230     622.9759   1424.40979     723.2230     622.9759
   1424.39453     723.4616     622.3961   1424.39453     723.4616     622.3961
   1424.37927     722.9445     622.6528   1424.37927     722.9445     622.6528
   1424.36401     723.4318     623.5021   1424.36401     723.4318     623.5021
   1424.34875     722.2820     623.7265   1424.34875     722.2820     623.7265
   1424.33350     722.9910     623.3768   1424.33350     722.9910     623.3768
   1424.31824     722.1047     623.6353   1424.31824     722.1047     623.6353
   1424.30298     721.8897     622.8806   1424.30298     721.8897     622.8806
   1424.28772     722.3000     624.3723   1424.28772     722.3000     624.3723
   1424.27246     722.1921     623.6408   1424.27246     722.1921     623.6408
   1424.25720     721.4933     624.7721   1424.25720     721.4933     624.7721
   1424.24194     722.0069     623.9052   1424.24194     722.0069     623.9052
   1424.22668     721.8605     624.3671   1424.22668     721.8605     624.3671
   1424.21143     720.9921     624.4638   1424.21143     720.9921     624.4638
   1424.19617     720.5215     624.4094   1424.19617     720.5215     624.4094
   1424.18091     720.3199     624.4841   1424.18091     720.3199     624.4841
   1424.16565     719.8427     624.2936   1424.16565     719.8427     624.2936
   1424.15039     719.9160     623.6999   1424.15039     719.9160     623.6999
   1424.13513     720.5621     623.5771   1424.13513     720.5621     623.5771
   1424.11987     719.1585     624.9722   1424.11987     719.1585     624.9722
   1424.10461     718.9992     623.5538   1424.10461     718.9992     623.5538
   1424.08936     719.1436     624.3218   1424.08936     719.1436     624.3218
   1424.07410     719.5472     623.3585   1424.07410     719.5472     623.3585
   1424.05884     716.8237     625.0244   1424.05884     716.8237     625.0244
   1424.04358     717.1578     623.8654   1424.04358     717.1578     623.8654
   1424.02832     716.5973     623.7614   1424.02832     716.5973     623.7614
   1424.01306     717.1091     624.2502   1424.01306     717.1091     624.2502
   1423.99780     716.5872     624.3607   1423.99780     716.5872     624.3607
   1423.98254     716.2007     624.2874   1423.98254     716.2007     624.2874
   1423.96729     716.0754     623.6685   1423.96729     716.0754     623.6685
   1423.95203     716.3480     622.8487   1423.95203     716.3480     622.8487
   1423.93677     714.7062     622.6744   1423.93677     714.7062     622.6744
   1423.92151     716.6422     622.4503   1423.92151     716.6422     622.4503
   1423.90625     714.6478     622.7128   1423.90625     714.6478     622.7128
   1423.89099     714.6251     622.3893   1423.89099     714.6251     622.3893
   1423.87573     713.9923     621.7621   1423.87573     713.9923     621.7621
   1423.86047     714.1597     622.5986   1423.86047     714.1597     622.5986
   1423.84521     713.3051     622.0643   1423.84521     713.3051     622.0643
   1423.82996     714.1450     623.0236   1423.82996     714.1450     623.0236
   1423.81470     711.3710     621.7111   1423.81470     711.3710     621.7111
   1423.79944     712.6792     621.9846   1423.79944     712.6792     621.9846
   1423.78418     712.2957     620.7268   1423.78418     712.2957     620.7268
   1423.76892     712.0690     620.7609   1423.76892     712.0690     620.7609
   1423.75366     711.5482     620.3665   1423.75366     711.5482     620.3665
   1423.73840     711.0325     620.1413   1423.73840     711.0325     620.1413
   1423.72314     710.8851     620.5675   1423.72314     710.8851     620.5675
   1423.70789     710.2565     619.6079   1423.70789     710.2565     619.6079
   1423.69263     710.0849     619.4869   1423.69263     710.0849     619.4869
   1423.67737     710.7332     618.2809   1423.67737     710.7332     618.2809
   1423.66211     710.1293     618.8848   1423.66211     710.1293     618.8848
   1423.64685     708.9410     618.0933   1423.64685     708.9410     618.0933
   1423.63159     707.8038     617.9013   1423.63159     707.8038     617.9013
   1423.61633     708.2433     617.7728   1423.61633     708.2433     617.7728
   1423.60107     708.4595     617.6453   1423.60107     708.4595     617.6453
   1423.58582     707.4200     617.1661   1423.58582     707.4200     617.1661
   1423.57056     706.4998     616.5156   1423.57056     706.4998     616.5156
   1423.55530     706.8423     616.2292   1423.55530     706.8423     616.2292
   1423.54004     707.2280     614.2647   1423.54004     707.2280     614.2647
   1423.52478     706.8843     614.9027   1423.52478     706.8843     614.9027
   1423.50952     705.9917     615.1622   1423.50952     705.9917     615.1622
   1423.49426     705.0900     614.1126   1423.49426     705.0900     614.1126
   1423.47900     704.9488     613.5861   1423.47900     704.9488     613.5861
   1423.46375     703.9780     612.9702   1423.46375     703.9780     612.9702
   1423.44849     703.6074     613.1494   1423.44849     703.6074     613.1494
   1423.43323     703.2936     612.3646   1423.43323     703.2936     612.3646
   1423.41797     703.6838     611.5084   1423.41797     703.6838     611.5084
   1423.40271     702.6391     611.0869   1423.40271     702.6391     611.0869
   1423.38745     702.1992     611.7465   1423.38745     702.1992     611.7465
   1423.37219     702.2191     611.5269   1423.37219     702.2191     611.5269
   1423.35693     702.8986     610.0142   1423.35693     702.8986     610.0142
   1423.34167     703.3853     609.4349   1423.34167     703.3853     609.4349
   1423.32642     701.6880     608.9438   1423.32642     701.6880     608.9438
   1423.31116     701.8030     607.3911   1423.31116     701.8030     607.3911
   1423.29590     700.5735     607.1484   1423.29590     700.5735     607.1484
   1423.28064     701.1121     607.5076   1423.28064     701.1121     607.5076
   1423.26538     700.0424     606.7156   1423.26538     700.0424     606.7156
   1423.25012     699.8718     605.5195   1423.25012     699.8718     605.5195
   1423.23486     699.6147     605.2700   1423.23486     699.6147     605.2700
   1423.21960     699.8447     603.5521   1423.21960     699.8447     603.5521
   1423.20435     699.5919     603.7667   1423.20435     699.5919     603.7667
   1423.18909     699.1980     604.0357   1423.18909     699.1980     604.0357
   1423.17383     698.9109     603.5684   1423.17383     698.9109     603.5684
   1423.15857     698.1136     602.8848   1423.15857     698.1136     602.8848
   1423.14331     697.7402     601.5083   1423.14331     697.7402     601.5083
   1423.12805     697.4764     600.9116   1423.12805     697.4764     600.9116
   1423.11279     696.9278     601.0294   1423.11279     696.9278     601.0294
   1423.09753     697.7591     600.1915   1423.09753     697.7591     600.1915
   1423.08228     696.1324     599.0948   1423.08228     696.1324     599.0948
   1423.06702     696.3580     597.8155   1423.06702     696.3580     597.8155
   1423.05176     696.0610     597.3884   1423.05176     696.0610     597.3884
   1423.03650     696.2449     596.4505   1423.03650     696.2449     596.4505
   1423.02124     695.1491     596.7575   1423.02124     695.1491     596.7575
   1423.00598     695.3813     596.1590   1423.00598     695.3813     596.1590
   1422.99072     695.2769     595.4023   1422.99072     695.2769     595.4023
   1422.97546     694.8890     594.2783   1422.97546     694.8890     594.2783
   1422.96021     693.8137     593.5919   1422.96021     693.8137     593.5919
   1422.94495     694.1176     592.7213   1422.94495     694.1176     592.7213
   1422.92969     693.5411     592.2767   1422.92969     693.5411     592.2767
   1422.91443     693.8784     590.9973   1422.91443     693.8784     590.9973
   1422.89917     693.0624     590.9687   1422.89917     693.0624     590.9687
   1422.88391     693.5455     589.3465   1422.88391     693.5455     589.3465
   1422.86865     692.5101     588.0202   1422.86865     692.5101     588.0202
   1422.85339     691.9476     587.4400   1422.85339     691.9476     587.4400
   1422.83813     691.1475     586.3912   1422.83813     691.1475     586.3912
   1422.82288     692.0984     587.2435   1422.82288     692.0984     587.2435
   1422.80762     691.4381     586.1113   1422.80762     691.4381     586.1113
   1422.79236     691.0016     586.0745   1422.79236     691.0016     586.0745
   1422.77710     691.2719     584.7408   1422.77710     691.2719     584.7408
   1422.76184     691.1401     582.9781   1422.76184     691.1401     582.9781
   1422.74658     690.5348     582.7621   1422.74658     690.5348     582.7621
   1422.73132     690.5664     581.9147   1422.73132     690.5664     581.9147
   1422.71606     689.7332     580.9573   1422.71606     689.7332     580.9573
   1422.70081     689.6799     580.1762   1422.70081     689.6799     580.1762
   1422.68555     691.1011     579.4915   1422.68555     691.1011     579.4915
   1422.67029     690.1174     579.0556   1422.67029     690.1174     579.0556
   1422.65503     688.9380     577.9823   1422.65503     688.9380     577.9823
   1422.63977     689.6569     577.4058   1422.63977     689.6569     577.4058
   1422.62451     686.7704     576.1102   1422.62451     686.7704     576.1102
   1422.60925     688.4124     575.7740   1422.60925     688.4124     575.7740
   1422.59399     688.4189     574.7455   1422.59399     688.4189     574.7455
   1422.57874     687.9397     573.8194   1422.57874     687.9397     573.8194
   1422.56348     686.8871     573.0437   1422.56348     686.8871     573.0437
   1422.54822     688.1695     570.7981   1422.54822     688.1695     570.7981
   1422.53296     686.8495     571.5016   1422.53296     686.8495     571.5016
   1422.51770     687.9437     570.8120   1422.51770     687.9437     570.8120
   1422.50244     686.1152     568.9280   1422.50244     686.1152     568.9280
   1422.48718     687.5485     567.4785   1422.48718     687.5485     567.4785
   1422.47192     685.5162     567.3615   1422.47192     685.5162     567.3615
   1422.45667     685.5873     566.3169   1422.45667     685.5873     566.3169
   1422.44141     686.6020     565.8004   1422.44141     686.6020     565.8004
   1422.42615     686.0368     564.9305   1422.42615     686.0368     564.9305
   1422.41089     685.1340     564.4906   1422.41089     685.1340     564.4906
   1422.39563     685.2131     562.8497   1422.39563     685.2131     562.8497
   1422.38037     685.0827     561.4477   1422.38037     685.0827     561.4477
   1422.36511     684.8505     560.7644   1422.36511     684.8505     560.7644
   1422.34985     684.4630     560.0381   1422.34985     684.4630     560.0381
   1422.33459     684.3257     558.6640   1422.33459     684.3257     558.6640
   1422.31934     684.4694     557.2800   1422.31934     684.4694     557.2800
   1422.30408     684.5386     557.2288   1422.30408     684.5386     557.2288
   1422.28882     684.0297     556.3780   1422.28882     684.0297     556.3780
   1422.27356     683.3034     554.1687   1422.27356     683.3034     554.1687
   1422.25830     682.5359     553.7640   1422.25830     682.5359     553.7640
   1422.24304     682.3214     553.4769   1422.24304     682.3214     553.4769
   1422.22778     683.2919     552.1043   1422.22778     683.2919     552.1043
   1422.21252     682.6490     550.8121   1422.21252     682.6490     550.8121
   1422.19727     682.4554     549.8444   1422.19727     682.4554     549.8444
   1422.18201     682.7942     549.9415   1422.18201     682.7942     549.9415
   1422.16675     683.1057     548.6371   1422.16675     683.1057     548.6371
   1422.15149     681.8506     547.9468   1422.15149     681.8506     547.9468
   1422.13623     681.8397     546.7620   1422.13623     681.8397     546.7620
   1422.12097     680.7523     544.8248   1422.12097     680.7523     544.8248
   1422.10571     681.8362     544.0471   1422.10571     681.8362     544.0471
   1422.09045     680.8926     543.4697   1422.09045     680.8926     543.4697
   1422.07520     680.4916     542.0187   1422.07520     680.4916     542.0187
   1422.05994     680.6968     541.1050   1422.05994     680.6968     541.1050
   1422.04468     680.3069     541.1844   1422.04468     680.3069     541.1844
   1422.02942     680.2281     539.2805   1422.02942     680.2281     539.2805
   1422.01416     679.5363     539.6169   1422.01416     679.5363     539.6169
   1421.99890     679.4713     536.9118   1421.99890     679.4713     536.9118
   1421.98364     678.8696     536.5964   1421.98364     678.8696     536.5964
   1421.96838     678.3865     535.2585   1421.96838     678.3865     535.2585
   1421.95312     679.1910     534.0815   1421.95312     679.1910     534.0815
   1421.93787     679.5978     533.8162   1421.93787     679.5978     533.8162
   1421.92261     678.2761     531.9763   1421.92261     678.2761     531.9763
   1421.90735     678.1738     530.7690   1421.90735     678.1738     530.7690
   1421.89209     677.3097     529.6332   1421.89209     677.3097     529.6332
   1421.87683     677.8412     529.2353   1421.87683     677.8412     529.2353
   1421.86157     677.9348     528.0267   1421.86157     677.9348     528.0267
   1421.84631     676.9525     527.1657   1421.84631     676.9525     527.1657
   1421.83105     676.9327     526.0844   1421.83105     676.9327     526.0844
   1421.81580     677.4923     524.5231   1421.81580     677.4923     524.5231
   1421.80054     676.4474     524.2757   1421.80054     676.4474     524.2757
   1421.78528     676.0502     523.0814   1421.78528     676.0502     523.0814
   1421.77002     676.4792     522.0329   1421.77002     676.4792     522.0329
   1421.75476     676.6949     520.7947   1421.75476     676.6949     520.7947
   1421.73950     675.4301     520.6284   1421.73950     675.4301     520.6284
   1421.72424     675.5708     518.8175   1421.72424     675.5708     518.8175
   1421.70898     676.0044     517.5726   1421.70898     676.0044     517.5726
   1421.69373     674.4815     517.8906   1421.69373     674.4815     517.8906
   1421.67847     674.9929     515.9528   1421.67847     674.9929     515.9528
   1421.66321     674.2911     515.9996   1421.66321     674.2911     515.9996
   1421.64795     673.4430     513.6042   1421.64795     673.4430     513.6042
   1421.63269     674.5898     512.4862   1421.63269     674.5898     512.4862
   1421.61743     674.9119     511.6274   1421.61743     674.9119     511.6274
   1421.60217     673.3208     511.2471   1421.60217     673.3208     511.2471
   1421.58691     674.1592     508.8703   1421.58691     674.1592     508.8703
   1421.57166     672.7225     508.1653   1421.57166     672.7225     508.1653
   1421.55640     673.7332     507.2674   1421.55640     673.7332     507.2674
   1421.54114     672.4935     506.0756   1421.54114     672.4935     506.0756
   1421.52588     672.2095     505.0838   1421.52588     672.2095     505.0838
   1421.51062     673.0811     504.8482   1421.51062     673.0811     504.8482
   1421.49536     672.7185     503.7169   1421.49536     672.7185     503.7169
   1421.48010     672.3981     502.3198   1421.48010     672.3981     502.3198
   1421.46484     671.9139     501.7844   1421.46484     671.9139     501.7844
   1421.44958     671.3522     499.3656   1421.44958     671.3522     499.3656
   1421.43433     671.9216     498.4758   1421.43433     671.9216     498.4758
   1421.41907     670.5680     498.1896   1421.41907     670.5680     498.1896
   1421.40381     670.0832     497.1104   1421.40381     670.0832     497.1104
   1421.38855     669.7017     496.9373   1421.38855     669.7017     496.9373
   1421.37329     669.3817     494.4113   1421.37329     669.3817     494.4113
   1421.35803     670.4091     493.9819   1421.35803     670.4091     493.9819
   1421.34277     669.5912     492.8983   1421.34277     669.5912     492.8983
   1421.32751     669.3626     491.6479   1421.32751     669.3626     491.6479
   1421.31226     669.2106     490.8084   1421.31226     669.2106     490.8084
   1421.29700     668.8413     488.8096   1421.29700     668.8413     488.8096
   1421.28174     669.0982     488.4567   1421.28174     669.0982     488.4567
   1421.26648     667.1666     488.9272   1421.26648     667.1666     488.9272
   1421.25122     667.2519     486.1731   1421.25122     667.2519     486.1731
   1421.23596     668.7959     485.2015   1421.23596     668.7959     485.2015
   1421.22070     666.8174     484.0291   1421.22070     666.8174     484.0291
   1421.20544     667.4819     483.1147   1421.20544     667.4819     483.1147
   1421.19019     667.3441     481.8787   1421.19019     667.3441     481.8787
   1421.17493     667.0505     481.2443   1421.17493     667.0505     481.2443
   1421.15967     666.5593     480.0122   1421.15967     666.5593     480.0122
   1421.14441     666.5956     478.9661   1421.14441     666.5956     478.9661
   1421.12915     665.3062     477.5844   1421.12915     665.3062     477.5844
   1421.11389     665.7222     478.2873   1421.11389     665.7222     478.2873
   1421.09863     666.1546     477.0468   1421.09863     666.1546     477.0468
   1421.08337     665.4149     474.9676   1421.08337     665.4149     474.9676
   1421.06812     664.6395     474.8734   1421.06812     664.6395     474.8734
   1421.05286     664.7552     473.2401   1421.05286     664.7552     473.2401
   1421.03760     665.0173     472.4661   1421.03760     665.0173     472.4661
   1421.02234     663.8097     471.0373   1421.02234     663.8097     471.0373
   1421.00708     664.0581     470.9041   1421.00708     664.0581     470.9041
   1420.99182     663.5850     469.2994   1420.99182     663.5850     469.2994
   1420.97656     664.3781     468.7263   1420.97656     664.3781     468.7263
   1420.96130     662.8271     467.7793   1420.96130     662.8271     467.7793
   1420.94604     662.4340     466.3687   1420.94604     662.4340     466.3687
   1420.93079     663.9383     465.2702   1420.93079     663.9383     465.2702
   1420.91553     662.5139     465.5018   1420.91553     662.5139     465.5018
   1420.90027     662.4216     463.6655   1420.90027     662.4216     463.6655
   1420.88501     663.4194     461.9909   1420.88501     663.4194     461.9909
   1420.86975     662.6688     461.6188   1420.86975     662.6688     461.6188
   1420.85449     663.4550     460.8180   1420.85449     663.4550     460.8180
   1420.83923     662.0604     460.3384   1420.83923     662.0604     460.3384
   1420.82397     662.0157     459.4826   1420.82397     662.0157     459.4826
   1420.80872     661.7004     457.9842   1420.80872     661.7004     457.9842
   1420.79346     661.6868     457.8441   1420.79346     661.6868     457.8441
   1420.77820     662.3314     456.2123   1420.77820     662.3314     456.2123
   1420.76294     661.3976     455.9477   1420.76294     661.3976     455.9477
   1420.74768     661.6495     455.2407   1420.74768     661.6495     455.2407
   1420.73242     661.0989     454.5549   1420.73242     661.0989     454.5549
   1420.71716     662.1433     453.8615   1420.71716     662.1433     453.8615
   1420.70190     661.2802     452.5382   1420.70190     661.2802     452.5382
   1420.68665     660.7347     452.1826   1420.68665     660.7347     452.1826
   1420.67139     662.1579     451.0311   1420.67139     662.1579     451.0311
   1420.65613     661.7722     449.7195   1420.65613     661.7722     449.7195
   1420.64087     661.3925     449.6137   1420.64087     661.3925     449.6137
   1420.62561     660.9456     448.9151   1420.62561     660.9456     448.9151
   1420.61035     660.7684     448.2576   1420.61035     660.7684     448.2576
   1420.59509     661.6353     448.3261   1420.59509     661.6353     448.3261
   1420.57983     661.3922     448.1191   1420.57983     661.3922     448.1191
   1420.56458     662.5775     446.6849   1420.56458     662.5775     446.6849
   1420.54932     664.2698     447.4779   1420.54932     664.2698     447.4779
   1420.53406     664.2618     447.2570   1420.53406     664.2618     447.2570
   1420.51880     665.3820     446.6533   1420.51880     665.3820     446.6533
   1420.50354     665.3124     445.5552   1420.50354     665.3124     445.5552
   1420.48828     664.5122     445.0916   1420.48828     664.5122     445.0916
   1420.47302     663.6772     443.5672   1420.47302     663.6772     443.5672
   1420.45776     663.1571     442.7449   1420.45776     663.1571     442.7449
   1420.44250     663.3282     442.4520   1420.44250     663.3282     442.4520
   1420.42725     663.4830     441.8326   1420.42725     663.4830     441.8326
   1420.41199     663.8625     441.0847   1420.41199     663.8625     441.0847
   1420.39673     665.6304     441.7861   1420.39673     665.6304     441.7861
   1420.38147     665.2174     441.1688   1420.38147     665.2174     441.1688
   1420.36621     667.3259     441.9577   1420.36621     667.3259     441.9577
   1420.35095     670.9194     443.1854   1420.35095     670.9194     443.1854
   1420.33569     677.0381     446.7710   1420.33569     677.0381     446.7710
   1420.32043     686.1567     452.0477   1420.32043     686.1567     452.0477
   1420.30518     701.5552     460.3054   1420.30518     701.5552     460.3054
   1420.28992     725.4059     474.3561   1420.28992     725.4059     474.3561
   1420.27466     774.5357     503.3931   1420.27466     774.5357     503.3931
   1420.25940     895.0745     580.2425   1420.25940     895.0745     580.2425
   1420.24414    1175.4772     755.5923   1420.24414    1175.4772     755.5923
   1420.22888    1422.7175     911.3547   1420.22888    1422.7175     911.3547
   1420.21362    1523.6475     973.4225   1420.21362    1523.6475     973.4225
   1420.19836    1669.6859    1065.5262   1420.19836    1669.6859    1065.5262
   1420.18311    1789.0404    1137.4359   1420.18311    1789.0404    1137.4359
   1420.16785    1720.2491    1091.2975   1420.16785    1720.2491    1091.2975
   1420.15259    1770.7548    1120.3297   1420.15259    1770.7548    1120.3297
   1420.13733    1874.0802    1183.3954   1420.13733    1874.0802    1183.3954
   1420.12207    1817.8430    1149.5088   1420.12207    1817.8430    1149.5088
   1420.10681    1841.8265    1161.8622   1420.10681    1841.8265    1161.8622
   1420.09155    1862.7141    1174.6063   1420.09155    1862.7141    1174.6063
   1420.07629    2103.2981    1318.8083   1420.07629    2103.2981    1318.8083
   1420.06104    2267.5042    1424.6482   1420.06104    2267.5042    1424.6482
   1420.04578    2237.7759    1404.5210   1420.04578    2237.7759    1404.5210
   1420.03052    1863.7981    1167.5095   1420.03052    1863.7981    1167.5095
   1420.01526    1270.4069     800.9400   1420.01526    1270.4069     800.9400
   1420.00000    1049.9313     665.3331   1420.00000    1049.9313     665.3331
   1419.98474     829.4555     529.7261   1419.98474     829.4555     529.7261
   1419.96948     757.0795     482.5154   1419.96948     757.0795     482.5154
   1419.95422     715.8379     456.5573   1419.95422     715.8379     456.5573
   1419.93896     692.7814     441.9868   1419.93896     692.7814     441.9868
   1419.92371     679.4235     432.2621   1419.92371     679.4235     432.2621
   1419.90845     669.6776     426.7058   1419.90845     669.6776     426.7058
   1419.89319     665.1102     423.2005   1419.89319     665.1102     423.2005
   1419.87793     661.7271     420.6578   1419.87793     661.7271     420.6578
   1419.86267     660.5750     419.1382   1419.86267     660.5750     419.1382
   1419.84741     658.0123     417.2729   1419.84741     658.0123     417.2729
   1419.83215     656.8785     416.5376   1419.83215     656.8785     416.5376
   1419.81689     656.3688     416.0932   1419.81689     656.3688     416.0932
   1419.80164     656.2823     415.3617   1419.80164     656.2823     415.3617
   1419.78638     655.9932     414.2716   1419.78638     655.9932     414.2716
   1419.77112     655.7922     414.4362   1419.77112     655.7922     414.4362
   1419.75586     654.7126     413.1533   1419.75586     654.7126     413.1533
   1419.74060     655.1752     413.2511   1419.74060     655.1752     413.2511
   1419.72534     653.7614     412.1199   1419.72534     653.7614     412.1199
   1419.71008     653.9891     412.0652   1419.71008     653.9891     412.0652
   1419.69482     653.9464     411.8749   1419.69482     653.9464     411.8749
   1419.67957     654.6522     411.2483   1419.67957     654.6522     411.2483
   1419.66431     654.4556     410.4774   1419.66431     654.4556     410.4774
   1419.64905     654.1885     410.6518   1419.64905     654.1885     410.6518
   1419.63379     654.3398     411.2054   1419.63379     654.3398     411.2054
   1419.61853     654.2285     409.8953   1419.61853     654.2285     409.8953
   1419.60327     653.7082     410.4043   1419.60327     653.7082     410.4043
   1419.58801     654.3589     409.7723   1419.58801     654.3589     409.7723
   1419.57275     653.6381     410.3372   1419.57275     653.6381     410.3372
   1419.55750     655.6711     408.7548   1419.55750     655.6711     408.7548
   1419.54224     655.7580     409.2106   1419.54224     655.7580     409.2106
   1419.52698     655.6124     409.3147   1419.52698     655.6124     409.3147
   1419.51172     655.5083     408.9148   1419.51172     655.5083     408.9148
   1419.49646     655.6292     409.1848   1419.49646     655.6292     409.1848
   1419.48120     656.9713     408.7828   1419.48120     656.9713     408.7828
   1419.46594     656.6365     408.8495   1419.46594     656.6365     408.8495
   1419.45068     656.5871     408.2051   1419.45068     656.5871     408.2051
   1419.43542     657.4077     408.3271   1419.43542     657.4077     408.3271
   1419.42017     657.3956     408.0829   1419.42017     657.3956     408.0829
   1419.40491     657.5751     408.2509   1419.40491     657.5751     408.2509
   1419.38965     658.2217     408.3219   1419.38965     658.2217     408.3219
   1419.37439     658.6271     408.4655   1419.37439     658.6271     408.4655
   1419.35913     658.4899     407.9463   1419.35913     658.4899     407.9463
   1419.34387     658.6503     408.6095   1419.34387     658.6503     408.6095
   1419.32861     659.5896     408.4916   1419.32861     659.5896     408.4916
   1419.31335     659.5104     408.2546   1419.31335     659.5104     408.2546
   1419.29810     660.7369     409.1257   1419.29810     660.7369     409.1257
   1419.28284     659.5673     408.8539   1419.28284     659.5673     408.8539
   1419.26758     661.9876     408.8544   1419.26758     661.9876     408.8544
   1419.25232     660.7737     408.7322   1419.25232     660.7737     408.7322
   1419.23706     661.3918     409.4154   1419.23706     661.3918     409.4154
   1419.22180     661.3678     409.0933   1419.22180     661.3678     409.0933
   1419.20654     662.1385     408.5777   1419.20654     662.1385     408.5777
   1419.19128     661.4373     409.1354   1419.19128     661.4373     409.1354
   1419.17603     663.1817     409.4390   1419.17603     663.1817     409.4390
   1419.16077     662.3417     409.0085   1419.16077     662.3417     409.0085
   1419.14551     663.5750     409.4779   1419.14551     663.5750     409.4779
   1419.13025     664.4727     410.0334   1419.13025     664.4727     410.0334
   1419.11499     664.6889     410.1647   1419.11499     664.6889     410.1647
   1419.09973     664.5690     410.1794   1419.09973     664.5690     410.1794
   1419.08447     665.4622     410.6525   1419.08447     665.4622     410.6525
   1419.06921     666.2831     410.0971   1419.06921     666.2831     410.0971
   1419.05396     666.6847     410.9467   1419.05396     666.6847     410.9467
   1419.03870     667.5197     411.7292   1419.03870     667.5197     411.7292
   1419.02344     668.1948     410.9626   1419.02344     668.1948     410.9626
   1419.00818     666.6851     411.1760   1419.00818     666.6851     411.1760
   1418.99292     668.7962     412.1825   1418.99292     668.7962     412.1825
   1418.97766     668.8531     412.0143   1418.97766     668.8531     412.0143
   1418.96240     668.3505     412.8126   1418.96240     668.3505     412.8126
   1418.94714     669.8383     412.4060   1418.94714     669.8383     412.4060
   1418.93188     670.9965     413.3363   1418.93188     670.9965     413.3363
   1418.91663     671.7042     413.4890   1418.91663     671.7042     413.4890
   1418.90137     671.6977     413.7479   1418.90137     671.6977     413.7479
   1418.88611     671.7908     414.8696   1418.88611     671.7908     414.8696
   1418.87085     672.5963     414.2242   1418.87085     672.5963     414.2242
   1418.85559     673.9648     414.8039   1418.85559     673.9648     414.8039
   1418.84033     673.9118     414.8398   1418.84033     673.9118     414.8398
   1418.82507     673.6045     415.6236   1418.82507     673.6045     415.6236
   1418.80981     674.9698     416.3551   1418.80981     674.9698     416.3551
   1418.79456     676.6747     416.4849   1418.79456     676.6747     416.4849
   1418.77930     677.4741     417.1755   1418.77930     677.4741     417.1755
   1418.76404     676.5385     417.5451   1418.76404     676.5385     417.5451
   1418.74878     677.8055     418.2687   1418.74878     677.8055     418.2687
   1418.73352     678.7019     418.3658   1418.73352     678.7019     418.3658
   1418.71826     679.7777     419.1470   1418.71826     679.7777     419.1470
   1418.70300     680.2526     419.5750   1418.70300     680.2526     419.5750
   1418.68774     680.1724     419.8863   1418.68774     680.1724     419.8863
   1418.67249     680.2723     420.4452   1418.67249     680.2723     420.4452
   1418.65723     681.6968     420.4065   1418.65723     681.6968     420.4065
   1418.64197     683.4193     421.2725   1418.64197     683.4193     421.2725
   1418.62671     683.2411     421.2459   1418.62671     683.2411     421.2459
   1418.61145     683.1229     422.8286   1418.61145     683.1229     422.8286
   1418.59619     683.4705     423.7840   1418.59619     683.4705     423.7840
   1418.58093     684.8445     423.3038   1418.58093     684.8445     423.3038
   1418.56567     686.2001     424.2993   1418.56567     686.2001     424.2993
   1418.55042     686.4091     425.0571   1418.55042     686.4091     425.0571
   1418.53516     687.2324     425.5651   1418.53516     687.2324     425.5651
   1418.51990     688.3727     426.1556   1418.51990     688.3727     426.1556
   1418.50464     688.6722     426.9124   1418.50464     688.6722     426.9124
   1418.48938     688.3182     427.0659   1418.48938     688.3182     427.0659
   1418.47412     690.3975     427.3787   1418.47412     690.3975     427.3787
   1418.45886     690.4902     428.5065   1418.45886     690.4902     428.5065
   1418.44360     692.0378     429.1492   1418.44360     692.0378     429.1492
   1418.42834     692.6261     430.0126   1418.42834     692.6261     430.0126
   1418.41309     693.7052     430.6564   1418.41309     693.7052     430.6564
   1418.39783     694.1183     431.8767   1418.39783     694.1183     431.8767
   1418.38257     694.6099     431.8792   1418.38257     694.6099     431.8792
   1418.36731     695.1320     433.1179   1418.36731     695.1320     433.1179
   1418.35205     696.1263     434.0616   1418.35205     696.1263     434.0616
   1418.33679     696.7860     434.1837   1418.33679     696.7860     434.1837
   1418.32153     697.5974     435.2851   1418.32153     697.5974     435.2851
   1418.30627     698.9471     435.4873   1418.30627     698.9471     435.4873
   1418.29102     699.7484     437.5212   1418.29102     699.7484     437.5212
   1418.27576     700.6685     437.1240   1418.27576     700.6685     437.1240
   1418.26050     701.7332     438.2655   1418.26050     701.7332     438.2655
   1418.24524     701.3952     438.4332   1418.24524     701.3952     438.4332
   1418.22998     702.9001     439.4736   1418.22998     702.9001     439.4736
   1418.21472     704.0059     440.6799   1418.21472     704.0059     440.6799
   1418.19946     703.9921     441.3430   1418.19946     703.9921     441.3430
   1418.18420     704.7109     442.0480   1418.18420     704.7109     442.0480
   1418.16895     707.0587     443.0713   1418.16895     707.0587     443.0713
   1418.15369     707.0243     443.3017   1418.15369     707.0243     443.3017
   1418.13843     708.0425     444.7614   1418.13843     708.0425     444.7614
   1418.12317     709.6497     444.7461   1418.12317     709.6497     444.7461
   1418.10791     709.8515     447.0250   1418.10791     709.8515     447.0250
   1418.09265     711.0427     448.0086   1418.09265     711.0427     448.0086
   1418.07739     712.2831     448.4995   1418.07739     712.2831     448.4995
   1418.06213     712.8724     448.6439   1418.06213     712.8724     448.6439
   1418.04688     713.2465     449.5148   1418.04688     713.2465     449.5148
   1418.03162     714.0724     451.2204   1418.03162     714.0724     451.2204
   1418.01636     715.9643     451.1593   1418.01636     715.9643     451.1593
   1418.00110     716.3859     452.1029   1418.00110     716.3859     452.1029
   1417.98584     717.5691     453.1416   1417.98584     717.5691     453.1416
   1417.97058     717.6303     454.1657   1417.97058     717.6303     454.1657
   1417.95532     718.4279     454.7465   1417.95532     718.4279     454.7465
   1417.94006     720.7215     455.9815   1417.94006     720.7215     455.9815
   1417.92480     720.6199     456.6275   1417.92480     720.6199     456.6275
   1417.90955     721.2722     457.1250   1417.90955     721.2722     457.1250
   1417.89429     723.1891     458.9706   1417.89429     723.1891     458.9706
   1417.87903     722.6375     459.6707   1417.87903     722.6375     459.6707
   1417.86377     723.3227     461.4414   1417.86377     723.3227     461.4414
   1417.84851     725.3575     461.9098   1417.84851     725.3575     461.9098
   1417.83325     726.2508     462.9472   1417.83325     726.2508     462.9472
   1417.81799     726.9671     463.6505   1417.81799     726.9671     463.6505
   1417.80273     728.6440     465.2744   1417.80273     728.6440     465.2744
   1417.78748     728.4367     464.8723   1417.78748     728.4367     464.8723
   1417.77222     730.5311     466.3067   1417.77222     730.5311     466.3067
   1417.75696     730.6489     467.9065   1417.75696     730.6489     467.9065
   1417.74170     731.7876     468.8717   1417.74170     731.7876     468.8717
   1417.72644     732.2957     469.5013   1417.72644     732.2957     469.5013
   1417.71118     734.4774     470.5494   1417.71118     734.4774     470.5494
   1417.69592     733.9832     471.5267   1417.69592     733.9832     471.5267
   1417.68066     735.6546     472.1600   1417.68066     735.6546     472.1600
   1417.66541     736.6285     474.2065   1417.66541     736.6285     474.2065
   1417.65015     738.5471     474.9837   1417.65015     738.5471     474.9837
   1417.63489     738.7709     476.2212   1417.63489     738.7709     476.2212
   1417.61963     737.6382     476.1399   1417.61963     737.6382     476.1399
   1417.60437     739.7061     477.8516   1417.60437     739.7061     477.8516
   1417.58911     741.1266     478.2925   1417.58911     741.1266     478.2925
   1417.57385     742.0665     479.7465   1417.57385     742.0665     479.7465
   1417.55859     743.1929     480.7498   1417.55859     743.1929     480.7498
   1417.54333     743.4323     481.4948   1417.54333     743.4323     481.4948
   1417.52808     744.0438     483.4287   1417.52808     744.0438     483.4287
   1417.51282     745.6630     483.9967   1417.51282     745.6630     483.9967
   1417.49756     746.0507     484.3807   1417.49756     746.0507     484.3807
   1417.48230     747.2692     484.9655   1417.48230     747.2692     484.9655
   1417.46704     748.5095     486.5669   1417.46704     748.5095     486.5669
   1417.45178     748.8725     487.7126   1417.45178     748.8725     487.7126
   1417.43652     748.7967     488.3737   1417.43652     748.7967     488.3737
   1417.42126     750.9726     489.9580   1417.42126     750.9726     489.9580
   1417.40601     751.3492     490.2070   1417.40601     751.3492     490.2070
   1417.39075     750.6169     492.0863   1417.39075     750.6169     492.0863
   1417.37549     753.6224     493.7206   1417.37549     753.6224     493.7206
   1417.36023     753.5656     492.8120   1417.36023     753.5656     492.8120
   1417.34497     756.1512     494.4773   1417.34497     756.1512     494.4773
   1417.32971     754.5673     495.7543   1417.32971     754.5673     495.7543
   1417.31445     754.9814     496.1407   1417.31445     754.9814     496.1407
   1417.29919     757.0150     498.3937   1417.29919     757.0150     498.3937
   1417.28394     757.4798     497.9065   1417.28394     757.4798     497.9065
   1417.26868     757.7621     498.9514   1417.26868     757.7621     498.9514
   1417.25342     758.3497     500.6288   1417.25342     758.3497     500.6288
   1417.23816     758.7267     500.5556   1417.23816     758.7267     500.5556
   1417.22290     760.1215     502.0145   1417.22290     760.1215     502.0145
   1417.20764     761.8551     503.2586   1417.20764     761.8551     503.2586
   1417.19238     760.9283     503.4204   1417.19238     760.9283     503.4204
   1417.17712     762.7652     505.1498   1417.17712     762.7652     505.1498
   1417.16187     763.8909     504.9208   1417.16187     763.8909     504.9208
   1417.14661     764.2394     505.6414   1417.14661     764.2394     505.6414
   1417.13135     764.9105     507.7256   1417.13135     764.9105     507.7256
   1417.11609     766.2348     508.1774   1417.11609     766.2348     508.1774
   1417.10083     766.4196     508.6236   1417.10083     766.4196     508.6236
   1417.08557     766.7790     509.9184   1417.08557     766.7790     509.9184
   1417.07031     766.2095     509.9539   1417.07031     766.2095     509.9539
   1417.05505     767.5967     511.9448   1417.05505     767.5967     511.9448
   1417.03979     768.6210     511.3560   1417.03979     768.6210     511.3560
   1417.02454     769.4649     512.9230   1417.02454     769.4649     512.9230
   1417.00928     769.9717     513.7096   1417.00928     769.9717     513.7096
   1416.99402     769.5712     515.0030   1416.99402     769.5712     515.0030
   1416.97876     771.3023     515.1055   1416.97876     771.3023     515.1055
   1416.96350     771.0229     515.7663   1416.96350     771.0229     515.7663
   1416.94824     772.2110     516.6002   1416.94824     772.2110     516.6002
   1416.93298     772.6843     517.0933   1416.93298     772.6843     517.0933
   1416.91772     773.0781     518.0355   1416.91772     773.0781     518.0355
   1416.90247     771.4156     518.4781   1416.90247     771.4156     518.4781
   1416.88721     773.8543     519.1765   1416.88721     773.8543     519.1765
   1416.87195     774.5511     519.1246   1416.87195     774.5511     519.1246
   1416.85669     773.8539     519.3984   1416.85669     773.8539     519.3984
   1416.84143     774.2255     520.9610   1416.84143     774.2255     520.9610
   1416.82617     774.5321     521.4487   1416.82617     774.5321     521.4487
   1416.81091     774.5211     521.6451   1416.81091     774.5211     521.6451
   1416.79565     775.4882     522.4761   1416.79565     775.4882     522.4761
   1416.78040     775.4677     522.5116   1416.78040     775.4677     522.5116
   1416.76514     775.8900     522.6183   1416.76514     775.8900     522.6183
   1416.74988     776.7263     523.5534   1416.74988     776.7263     523.5534
   1416.73462     776.2388     524.0286   1416.73462     776.2388     524.0286
   1416.71936     778.0836     524.8905   1416.71936     778.0836     524.8905
   1416.70410     777.7768     524.7709   1416.70410     777.7768     524.7709
   1416.68884     777.3176     525.6123   1416.68884     777.3176     525.6123
   1416.67358     778.0049     525.2654   1416.67358     778.0049     525.2654
   1416.65833     777.4238     525.9703   1416.65833     777.4238     525.9703
   1416.64307     778.7626     525.9090   1416.64307     778.7626     525.9090
   1416.62781     778.5555     525.9628   1416.62781     778.5555     525.9628
   1416.61255     780.1993     526.3729   1416.61255     780.1993     526.3729
   1416.59729     778.8055     526.7576   1416.59729     778.8055     526.7576
   1416.58203     779.5057     526.6208   1416.58203     779.5057     526.6208
   1416.56677     779.6237     527.2974   1416.56677     779.6237     527.2974
   1416.55151     779.8488     527.1050   1416.55151     779.8488     527.1050
   1416.53625     778.7578     527.5645   1416.53625     778.7578     527.5645
   1416.52100     777.8792     527.2076   1416.52100     777.8792     527.2076
   1416.50574     778.7460     528.0460   1416.50574     778.7460     528.0460
   1416.49048     780.3005     527.4594   1416.49048     780.3005     527.4594
   1416.47522     778.2614     526.3196   1416.47522     778.2614     526.3196
   1416.45996     778.7052     527.3044   1416.45996     778.7052     527.3044
   1416.44470     778.9918     527.9302   1416.44470     778.9918     527.9302
   1416.42944     778.0503     527.5078   1416.42944     778.0503     527.5078
   1416.41418     778.4385     527.3514   1416.41418     778.4385     527.3514
   1416.39893     780.0576     527.4540   1416.39893     780.0576     527.4540
   1416.38367     778.2155     527.4407   1416.38367     778.2155     527.4407
   1416.36841     778.6255     527.7551   1416.36841     778.6255     527.7551
   1416.35315     777.4149     526.5577   1416.35315     777.4149     526.5577
   1416.33789     777.6991     527.6020   1416.33789     777.6991     527.6020
   1416.32263     777.6873     527.2238   1416.32263     777.6873     527.2238
   1416.30737     778.4238     526.9614   1416.30737     778.4238     526.9614
   1416.29211     777.2715     526.7750   1416.29211     777.2715     526.7750
   1416.27686     777.1637     526.0212   1416.27686     777.1637     526.0212
   1416.26160     776.6724     525.0958   1416.26160     776.6724     525.0958
   1416.24634     777.5297     525.9647   1416.24634     777.5297     525.9647
   1416.23108     776.2827     525.7566   1416.23108     776.2827     525.7566
   1416.21582     775.6582     525.3069   1416.21582     775.6582     525.3069
   1416.20056     774.1512     524.9176   1416.20056     774.1512     524.9176
   1416.18530     775.7956     524.2472   1416.18530     775.7956     524.2472
   1416.17004     774.4850     524.0264   1416.17004     774.4850     524.0264
   1416.15479     775.2064     524.2265   1416.15479     775.2064     524.2265
   1416.13953     774.8664     524.3090   1416.13953     774.8664     524.3090
   1416.12427     774.1573     522.4777   1416.12427     774.1573     522.4777
   1416.10901     773.5634     522.5960   1416.10901     773.5634     522.5960
   1416.09375     773.8230     522.5234   1416.09375     773.8230     522.5234
   1416.07849     772.8157     522.8445   1416.07849     772.8157     522.8445
   1416.06323     773.4162     522.2722   1416.06323     773.4162     522.2722
   1416.04797     772.0513     521.2536   1416.04797     772.0513     521.2536
   1416.03271     772.8154     521.1186   1416.03271     772.8154     521.1186
   1416.01746     770.9240     521.1883   1416.01746     770.9240     521.1883
   1416.00220     770.5356     519.9755   1416.00220     770.5356     519.9755
   1415.98694     769.9929     519.0347   1415.98694     769.9929     519.0347
   1415.97168     770.4734     518.6656   1415.97168     770.4734     518.6656
   1415.95642     769.6360     518.4247   1415.95642     769.6360     518.4247
   1415.94116     770.0060     517.0752   1415.94116     770.0060     517.0752
   1415.92590     768.5276     518.4579   1415.92590     768.5276     518.4579
   1415.91064     768.9441     517.5743   1415.91064     768.9441     517.5743
   1415.89539     767.2592     516.6821   1415.89539     767.2592     516.6821
   1415.88013     766.5883     515.7018   1415.88013     766.5883     515.7018
   1415.86487     765.7164     515.7205   1415.86487     765.7164     515.7205
   1415.84961     766.4675     515.8036   1415.84961     766.4675     515.8036
   1415.83435     765.5034     514.7159   1415.83435     765.5034     514.7159
   1415.81909     764.4364     514.2386   1415.81909     764.4364     514.2386
   1415.80383     763.3782     513.2284   1415.80383     763.3782     513.2284
   1415.78857     762.7050     513.4189   1415.78857     762.7050     513.4189
   1415.77332     762.6201     513.4100   1415.77332     762.6201     513.4100
   1415.75806     763.0063     511.8223   1415.75806     763.0063     511.8223
   1415.74280     760.4094     511.2285   1415.74280     760.4094     511.2285
   1415.72754     760.2595     510.5103   1415.72754     760.2595     510.5103
   1415.71228     760.3986     511.2419   1415.71228     760.3986     511.2419
   1415.69702     758.8699     508.7541   1415.69702     758.8699     508.7541
   1415.68176     758.2297     509.0815   1415.68176     758.2297     509.0815
   1415.66650     757.7565     508.2686   1415.66650     757.7565     508.2686
   1415.65125     755.8608     508.0349   1415.65125     755.8608     508.0349
   1415.63599     756.2288     507.4562   1415.63599     756.2288     507.4562
   1415.62073     754.9749     505.9836   1415.62073     754.9749     505.9836
   1415.60547     755.4200     505.3896   1415.60547     755.4200     505.3896
   1415.59021     753.4533     505.8102   1415.59021     753.4533     505.8102
   1415.57495     753.5492     504.1939   1415.57495     753.5492     504.1939
   1415.55969     752.5137     503.5465   1415.55969     752.5137     503.5465
   1415.54443     751.1812     503.4668   1415.54443     751.1812     503.4668
   1415.52917     749.8642     501.8385   1415.52917     749.8642     501.8385
   1415.51392     750.3918     501.5358   1415.51392     750.3918     501.5358
   1415.49866     748.7542     500.5634   1415.49866     748.7542     500.5634
   1415.48340     748.4075     499.5074   1415.48340     748.4075     499.5074
   1415.46814     746.0802     498.7700   1415.46814     746.0802     498.7700
   1415.45288     746.2585     498.9629   1415.45288     746.2585     498.9629
   1415.43762     744.4824     498.7770   1415.43762     744.4824     498.7770
   1415.42236     744.8904     497.2174   1415.42236     744.8904     497.2174
   1415.40710     743.1884     495.8100   1415.40710     743.1884     495.8100
   1415.39185     742.8700     496.1208   1415.39185     742.8700     496.1208
   1415.37659     741.0836     495.0440   1415.37659     741.0836     495.0440
   1415.36133     740.2937     494.5277   1415.36133     740.2937     494.5277
   1415.34607     739.6847     493.3395   1415.34607     739.6847     493.3395
   1415.33081     738.4243     493.2825   1415.33081     738.4243     493.2825
   1415.31555     736.2580     491.8071   1415.31555     736.2580     491.8071
   1415.30029     736.4091     490.4928   1415.30029     736.4091     490.4928
   1415.28503     734.8439     489.6765   1415.28503     734.8439     489.6765
   1415.26978     733.2107     489.6556   1415.26978     733.2107     489.6556
   1415.25452     732.6494     488.8759   1415.25452     732.6494     488.8759
   1415.23926     731.3624     487.5413   1415.23926     731.3624     487.5413
   1415.22400     730.2667     486.7439   1415.22400     730.2667     486.7439
   1415.20874     728.9257     485.2352   1415.20874     728.9257     485.2352
   1415.19348     728.3195     485.4533   1415.19348     728.3195     485.4533
   1415.17822     727.2882     484.4829   1415.17822     727.2882     484.4829
   1415.16296     725.4225     482.7692   1415.16296     725.4225     482.7692
   1415.14771     724.7489     482.4208   1415.14771     724.7489     482.4208
   1415.13245     723.1429     481.7827   1415.13245     723.1429     481.7827
   1415.11719     722.5254     480.1300   1415.11719     722.5254     480.1300
   1415.10193     719.6639     479.6503   1415.10193     719.6639     479.6503
   1415.08667     719.6903     478.9476   1415.08667     719.6903     478.9476
   1415.07141     717.2805     477.4710   1415.07141     717.2805     477.4710
   1415.05615     715.8848     476.8174   1415.05615     715.8848     476.8174
   1415.04089     713.8677     475.5866   1415.04089     713.8677     475.5866
   1415.02563     713.4765     474.8509   1415.02563     713.4765     474.8509
   1415.01038     711.3625     474.3212   1415.01038     711.3625     474.3212
   1414.99512     710.5941     472.9752   1414.99512     710.5941     472.9752
   1414.97986     709.4625     471.2423   1414.97986     709.4625     471.2423
   1414.96460     707.2415     470.5667   1414.96460     707.2415     470.5667
   1414.94934     706.8552     469.5974   1414.94934     706.8552     469.5974
   1414.93408     705.1783     467.6339   1414.93408     705.1783     467.6339
   1414.91882     702.8147     467.7707   1414.91882     702.8147     467.7707
   1414.90356     702.0726     466.4637   1414.90356     702.0726     466.4637
   1414.88831     699.8015     465.2063   1414.88831     699.8015     465.2063
   1414.87305     698.0070     464.7985   1414.87305     698.0070     464.7985
   1414.85779     696.2910     463.9557   1414.85779     696.2910     463.9557
   1414.84253     695.8022     462.1602   1414.84253     695.8022     462.1602
   1414.82727     694.0360     460.9611   1414.82727     694.0360     460.9611
   1414.81201     691.0671     460.0000   1414.81201     691.0671     460.0000
   1414.79675     689.5251     458.8840   1414.79675     689.5251     458.8840
   1414.78149     687.8687     457.3660   1414.78149     687.8687     457.3660
   1414.76624     686.9105     456.3282   1414.76624     686.9105     456.3282
   1414.75098     684.1113     455.1201   1414.75098     684.1113     455.1201
   1414.73572     682.9395     453.6853   1414.73572     682.9395     453.6853
   1414.72046     681.3926     452.4354   1414.72046     681.3926     452.4354
   1414.70520     679.2499     451.1967   1414.70520     679.2499     451.1967
   1414.68994     676.7385     450.0507   1414.68994     676.7385     450.0507
   1414.67468     675.6304     448.4705   1414.67468     675.6304     448.4705
   1414.65942     672.3286     448.0822   1414.65942     672.3286     448.0822
   1414.64417     670.5540     446.3762   1414.64417     670.5540     446.3762
   1414.62891     669.1272     444.9549   1414.62891     669.1272     444.9549
   1414.61365     666.8615     444.0078   1414.61365     666.8615     444.0078
   1414.59839     664.9343     443.1322   1414.59839     664.9343     443.1322
   1414.58313     663.5914     440.8743   1414.58313     663.5914     440.8743
   1414.56787     661.0510     439.2972   1414.56787     661.0510     439.2972
   1414.55261     659.9691     438.5642   1414.55261     659.9691     438.5642
   1414.53735     657.5385     437.2343   1414.53735     657.5385     437.2343
   1414.52209     654.3649     436.1765   1414.52209     654.3649     436.1765
   1414.50684     653.0658     434.7132   1414.50684     653.0658     434.7132
   1414.49158     651.2738     432.9346   1414.49158     651.2738     432.9346
   1414.47632     649.8825     431.5581   1414.47632     649.8825     431.5581
   1414.46106     645.8011     430.0327   1414.46106     645.8011     430.0327
   1414.44580     644.3028     428.8336   1414.44580     644.3028     428.8336
   1414.43054     641.7338     427.0779   1414.43054     641.7338     427.0779
   1414.41528     639.9700     426.0764   1414.41528     639.9700     426.0764
   1414.40002     638.2535     424.5682   1414.40002     638.2535     424.5682
   1414.38477     635.1148     422.9159   1414.38477     635.1148     422.9159
   1414.36951     632.8939     421.8070   1414.36951     632.8939     421.8070
   1414.35425     629.7100     419.9630   1414.35425     629.7100     419.9630
   1414.33899     628.5984     418.7974   1414.33899     628.5984     418.7974
   1414.32373     625.7399     417.4450   1414.32373     625.7399     417.4450
   1414.30847     623.8849     416.1567   1414.30847     623.8849     416.1567
   1414.29321     621.3034     414.1902   1414.29321     621.3034     414.1902
   1414.27795     618.4924     412.7314   1414.27795     618.4924     412.7314
   1414.26270     618.6911     411.2327   1414.26270     618.6911     411.2327
   1414.24744     613.9225     409.6392   1414.24744     613.9225     409.6392
   1414.23218     611.7753     408.5775   1414.23218     611.7753     408.5775
   1414.21692     609.0965     406.6535   1414.21692     609.0965     406.6535
   1414.20166     605.7995     405.0353   1414.20166     605.7995     405.0353
   1414.18640     605.4201     403.3039   1414.18640     605.4201     403.3039
   1414.17114     601.6611     401.7615   1414.17114     601.6611     401.7615
   1414.15588     598.8389     400.3413   1414.15588     598.8389     400.3413
   1414.14062     595.5808     398.6743   1414.14062     595.5808     398.6743
   1414.12537     593.7791     396.8077   1414.12537     593.7791     396.8077
   1414.11011     591.2672     395.5411   1414.11011     591.2672     395.5411
   1414.09485     589.0693     394.0091   1414.09485     589.0693     394.0091
   1414.07959     585.4808     391.4012   1414.07959     585.4808     391.4012
   1414.06433     583.5792     390.7322   1414.06433     583.5792     390.7322
   1414.04907     580.3567     389.2089   1414.04907     580.3567     389.2089
   1414.03381     579.3136     386.9893   1414.03381     579.3136     386.9893
   1414.01855     576.3970     385.4615   1414.01855     576.3970     385.4615
   1414.00330     597.4053     390.3145   1414.00330     597.4053     390.3145
   1413.98804     572.7009     382.6418   1413.98804     572.7009     382.6418
   1413.97278     568.0283     380.8810   1413.97278     568.0283     380.8810
   1413.95752     564.8730     379.0994   1413.95752     564.8730     379.0994
   1413.94226     561.4537     377.1385   1413.94226     561.4537     377.1385
   1413.92700     559.5696     375.3845   1413.92700     559.5696     375.3845
   1413.91174     556.6604     374.4135   1413.91174     556.6604     374.4135
   1413.89648     552.6038     372.5539   1413.89648     552.6038     372.5539
   1413.88123     551.0995     370.6126   1413.88123     551.0995     370.6126
   1413.86597     548.7328     368.5905   1413.86597     548.7328     368.5905
   1413.85071     545.6682     367.0584   1413.85071     545.6682     367.0584
   1413.83545     542.5217     365.1908   1413.83545     542.5217     365.1908
   1413.82019     539.1000     363.8745   1413.82019     539.1000     363.8745
   1413.80493     537.2159     362.5935   1413.80493     537.2159     362.5935
   1413.78967     534.6472     360.0629   1413.78967     534.6472     360.0629
   1413.77441     532.1559     358.4996   1413.77441     532.1559     358.4996
   1413.75916     528.7745     357.3594   1413.75916     528.7745     357.3594
   1413.74390     527.0455     354.8155   1413.74390     527.0455     354.8155
   1413.72864     523.9448     353.5180   1413.72864     523.9448     353.5180
   1413.71338     520.8651     351.8635   1413.71338     520.8651     351.8635
   1413.69812     517.8873     350.3496   1413.69812     517.8873     350.3496
   1413.68286     514.9312     348.3257   1413.68286     514.9312     348.3257
   1413.66760     512.4435     346.6280   1413.66760     512.4435     346.6280
   1413.65234     509.4745     345.3008   1413.65234     509.4745     345.3008
   1413.63708     506.5660     343.1802   1413.63708     506.5660     343.1802
   1413.62183     504.2114     342.4384   1413.62183     504.2114     342.4384
   1413.60657     500.6332     339.5808   1413.60657     500.6332     339.5808
   1413.59131     498.8253     338.7682   1413.59131     498.8253     338.7682
   1413.57605     495.6418     336.9792   1413.57605     495.6418     336.9792
   1413.56079     492.2243     334.9153   1413.56079     492.2243     334.9153
   1413.54553     490.1942     333.4434   1413.54553     490.1942     333.4434
   1413.53027     487.3839     331.2022   1413.53027     487.3839     331.2022
   1413.51501     484.7131     330.0539   1413.51501     484.7131     330.0539
   1413.49976     481.5126     328.4161   1413.49976     481.5126     328.4161
   1413.48450     479.2340     326.5729   1413.48450     479.2340     326.5729
   1413.46924     475.6520     325.4762   1413.46924     475.6520     325.4762
   1413.45398     473.7296     323.8457   1413.45398     473.7296     323.8457
   1413.43872     470.2033     322.1103   1413.43872     470.2033     322.1103
   1413.42346     467.3236     320.3879   1413.42346     467.3236     320.3879
   1413.40820     466.4122     319.0481   1413.40820     466.4122     319.0481
   1413.39294     462.5458     316.6361   1413.39294     462.5458     316.6361
   1413.37769     460.3781     315.7237   1413.37769     460.3781     315.7237
   1413.36243     457.4130     313.9224   1413.36243     457.4130     313.9224
   1413.34717     455.6765     312.2792   1413.34717     455.6765     312.2792
   1413.33191     452.4361     311.3523   1413.33191     452.4361     311.3523
   1413.31665     450.2051     309.3062   1413.31665     450.2051     309.3062
   1413.30139     446.9179     308.0458   1413.30139     446.9179     308.0458
   1413.28613     444.6193     306.4997   1413.28613     444.6193     306.4997
   1413.27087     442.4495     304.4741   1413.27087     442.4495     304.4741
   1413.25562     439.9567     303.8521   1413.25562     439.9567     303.8521
   1413.24036     437.3419     302.3585   1413.24036     437.3419     302.3585
   1413.22510     434.6756     300.5853   1413.22510     434.6756     300.5853
   1413.20984     432.2476     299.7175   1413.20984     432.2476     299.7175
   1413.19458     429.8722     297.8683   1413.19458     429.8722     297.8683
   1413.17932     427.7325     296.0621   1413.17932     427.7325     296.0621
   1413.16406     425.8416     295.0669   1413.16406     425.8416     295.0669
   1413.14880     422.9409     294.0747   1413.14880     422.9409     294.0747
   1413.13354     421.3477     292.5769   1413.13354     421.3477     292.5769
   1413.11829     418.4432     290.9131   1413.11829     418.4432     290.9131
   1413.10303     416.1542     289.4160   1413.10303     416.1542     289.4160
   1413.08777     414.5387     288.4132   1413.08777     414.5387     288.4132
   1413.07251     412.0424     287.0992   1413.07251     412.0424     287.0992
   1413.05725     409.7670     285.8084   1413.05725     409.7670     285.8084
   1413.04199     407.4984     284.5672   1413.04199     407.4984     284.5672
   1413.02673     405.5450     283.5889   1413.02673     405.5450     283.5889
   1413.01147     403.7105     282.7031   1413.01147     403.7105     282.7031
   1412.99622     402.0000     281.5474   1412.99622     402.0000     281.5474
   1412.98096     399.0398     280.2801   1412.98096     399.0398     280.2801
   1412.96570     397.9554     278.8156   1412.96570     397.9554     278.8156
   1412.95044     395.7548     277.8054   1412.95044     395.7548     277.8054
   1412.93518     393.3323     276.9021   1412.93518     393.3323     276.9021
   1412.91992     391.8872     275.5124   1412.91992     391.8872     275.5124
   1412.90466     390.4902     275.0869   1412.90466     390.4902     275.0869
   1412.88940     388.7406     274.0166   1412.88940     388.7406     274.0166
   1412.87415     386.5333     273.6539   1412.87415     386.5333     273.6539
   1412.85889     384.9318     272.0025   1412.85889     384.9318     272.0025
   1412.84363     383.4366     271.4228   1412.84363     383.4366     271.4228
   1412.82837     381.3120     270.1050   1412.82837     381.3120     270.1050
   1412.81311     380.2917     269.5629   1412.81311     380.2917     269.5629
   1412.79785     378.8342     268.4679   1412.79785     378.8342     268.4679
   1412.78259     377.3914     268.3292   1412.78259     377.3914     268.3292
   1412.76733     375.1717     267.0087   1412.76733     375.1717     267.0087
   1412.75208     374.7146     266.5145   1412.75208     374.7146     266.5145
   1412.73682     372.9992     266.0601   1412.73682     372.9992     266.0601
   1412.72156     371.3065     265.2213   1412.72156     371.3065     265.2213
   1412.70630     370.1793     264.5398   1412.70630     370.1793     264.5398
   1412.69104     369.7480     263.8410   1412.69104     369.7480     263.8410
   1412.67578     368.7563     263.4165   1412.67578     368.7563     263.4165
   1412.66052     367.1932     263.2278   1412.66052     367.1932     263.2278
   1412.64526     366.0280     262.4164   1412.64526     366.0280     262.4164
   1412.63000     364.9379     262.1854   1412.63000     364.9379     262.1854
   1412.61475     364.9251     262.0064   1412.61475     364.9251     262.0064
   1412.59949     363.5341     260.8832   1412.59949     363.5341     260.8832
   1412.58423     363.0962     260.8922   1412.58423     363.0962     260.8922
   1412.56897     362.1423     260.5656   1412.56897     362.1423     260.5656
   1412.55371     360.9836     260.2581   1412.55371     360.9836     260.2581
   1412.53845     360.6210     259.9531   1412.53845     360.6210     259.9531
   1412.52319     359.7547     260.2270   1412.52319     359.7547     260.2270
   1412.50793     358.7693     259.6284   1412.50793     358.7693     259.6284
   1412.49268     358.0835     259.6282   1412.49268     358.0835     259.6282
   1412.47742     358.4108     259.7493   1412.47742     358.4108     259.7493
   1412.46216     357.6727     259.6374   1412.46216     357.6727     259.6374
   1412.44690     357.4043     259.2845   1412.44690     357.4043     259.2845
   1412.43164     357.0662     259.5937   1412.43164     357.0662     259.5937
   1412.41638     356.7806     259.7100   1412.41638     356.7806     259.7100
   1412.40112     356.8199     259.2544   1412.40112     356.8199     259.2544
   1412.38586     356.2198     259.6879   1412.38586     356.2198     259.6879
   1412.37061     355.4917     260.1320   1412.37061     355.4917     260.1320
   1412.35535     356.3799     260.3090   1412.35535     356.3799     260.3090
   1412.34009     355.6565     260.4744   1412.34009     355.6565     260.4744
   1412.32483     356.0950     260.5876   1412.32483     356.0950     260.5876
   1412.30957     356.1535     261.4015   1412.30957     356.1535     261.4015
   1412.29431     356.5616     261.5553   1412.29431     356.5616     261.5553
   1412.27905     356.7411     262.0785   1412.27905     356.7411     262.0785
   1412.26379     356.6629     262.5978   1412.26379     356.6629     262.5978
   1412.24854     357.4348     263.1281   1412.24854     357.4348     263.1281
   1412.23328     357.5771     263.2412   1412.23328     357.5771     263.2412
   1412.21802     357.9715     263.8210   1412.21802     357.9715     263.8210
   1412.20276     358.3740     264.7569   1412.20276     358.3740     264.7569