#     FILENAME=!Skynet_57528_lach-hhg-135_20445_20959.cyb.fits
#     BASENAME=Skynet_57528_lach-hhg-135_20445_20959
#     SRC_NAME=lach-hhg-135
#     OBSERVER=hhgmadison16_9500
#     DATE_OBS=2016-05-20T17:07:32.560
#        OBSID=20445
#      SCANNUM=20959
#          MJD=57528.7146
#          UTC=61742
#     SCANTYPE=track
#     DATAMODE=HIRES
#     TUNEFREQ=1420.0000
# Actual_FREQ1=1420.0000
# Actual_FREQ2=1420.0000
#    LO1Tuning=6870.000
#     RFFILTER=1355_1435
#        OBSBW=-15.6250
#        NCHAN=1024 
#        FOCUS=37.0709
#           RA=02:31:57.64
#          DEC=60:29:39.57
#      RA(hrs)=2.532700
#     DEC(deg)=60.494300
#    AZIM(deg)=338.729
#    ELEV(deg)=65.195
#     IFattens=11.00, 10.00
#      WARNING=None
#    TCAL_XL1=7.9635
#    TCAL_YR1=9.1340
#    TCAL_XL2=7.9635
#    TCAL_YR2=9.1340
#     TRX_XL1=11.7060
#     TRX_YR1=11.7060
#     TRX_XL2=11.7060
#     TRX_YR2=11.7060
#        TAVE=1.0000
#Freq1(MHz)          XL1          YR1  Freq2(MHz)          XL2          YR2 

   1427.81250     312.2409     252.8860   1427.81250     312.2409     252.8860
   1427.79724     312.6306     254.2739   1427.79724     312.6306     254.2739
   1427.78198     313.5537     254.7539   1427.78198     313.5537     254.7539
   1427.76672     313.2696     255.7240   1427.76672     313.2696     255.7240
   1427.75146     314.3484     256.7274   1427.75146     314.3484     256.7274
   1427.73621     314.7634     257.3024   1427.73621     314.7634     257.3024
   1427.72095     315.9385     258.8701   1427.72095     315.9385     258.8701
   1427.70569     316.3886     259.8125   1427.70569     316.3886     259.8125
   1427.69043     317.6061     261.3032   1427.69043     317.6061     261.3032
   1427.67517     318.5495     262.3604   1427.67517     318.5495     262.3604
   1427.65991     319.6604     263.3692   1427.65991     319.6604     263.3692
   1427.64465     320.0671     264.5774   1427.64465     320.0671     264.5774
   1427.62939     321.6070     265.9295   1427.62939     321.6070     265.9295
   1427.61414     322.1372     267.5556   1427.61414     322.1372     267.5556
   1427.59888     323.0701     268.8035   1427.59888     323.0701     268.8035
   1427.58362     324.6674     269.7179   1427.58362     324.6674     269.7179
   1427.56836     325.7446     271.4189   1427.56836     325.7446     271.4189
   1427.55310     327.6320     272.9162   1427.55310     327.6320     272.9162
   1427.53784     328.3628     274.6708   1427.53784     328.3628     274.6708
   1427.52258     330.1457     275.6695   1427.52258     330.1457     275.6695
   1427.50732     331.3795     277.3882   1427.50732     331.3795     277.3882
   1427.49207     332.6994     278.7351   1427.49207     332.6994     278.7351
   1427.47681     333.8750     280.4065   1427.47681     333.8750     280.4065
   1427.46155     335.4417     282.0431   1427.46155     335.4417     282.0431
   1427.44629     336.3039     284.0978   1427.44629     336.3039     284.0978
   1427.43103     338.8940     285.6927   1427.43103     338.8940     285.6927
   1427.41577     340.3944     287.2523   1427.41577     340.3944     287.2523
   1427.40051     342.1285     288.6104   1427.40051     342.1285     288.6104
   1427.38525     343.4624     290.3494   1427.38525     343.4624     290.3494
   1427.37000     345.2714     292.1656   1427.37000     345.2714     292.1656
   1427.35474     347.0883     294.6262   1427.35474     347.0883     294.6262
   1427.33948     348.3457     295.4513   1427.33948     348.3457     295.4513
   1427.32422     351.2909     297.2327   1427.32422     351.2909     297.2327
   1427.30896     352.9056     299.2881   1427.30896     352.9056     299.2881
   1427.29370     354.4385     301.2277   1427.29370     354.4385     301.2277
   1427.27844     356.6361     303.2780   1427.27844     356.6361     303.2780
   1427.26318     358.5437     305.4365   1427.26318     358.5437     305.4365
   1427.24792     360.2971     306.6404   1427.24792     360.2971     306.6404
   1427.23267     362.8574     308.8394   1427.23267     362.8574     308.8394
   1427.21741     364.5333     310.6176   1427.21741     364.5333     310.6176
   1427.20215     366.8804     312.5137   1427.20215     366.8804     312.5137
   1427.18689     368.9758     314.8702   1427.18689     368.9758     314.8702
   1427.17163     370.5880     316.5242   1427.17163     370.5880     316.5242
   1427.15637     373.2736     318.3743   1427.15637     373.2736     318.3743
   1427.14111     375.6022     320.7105   1427.14111     375.6022     320.7105
   1427.12585     377.7586     322.8426   1427.12585     377.7586     322.8426
   1427.11060     380.1003     324.3923   1427.11060     380.1003     324.3923
   1427.09534     382.4550     326.5158   1427.09534     382.4550     326.5158
   1427.08008     384.1329     328.1951   1427.08008     384.1329     328.1951
   1427.06482     386.7507     330.6439   1427.06482     386.7507     330.6439
   1427.04956     389.2302     332.5970   1427.04956     389.2302     332.5970
   1427.03430     391.0834     334.5388   1427.03430     391.0834     334.5388
   1427.01904     394.6684     337.3018   1427.01904     394.6684     337.3018
   1427.00378     396.4107     338.7543   1427.00378     396.4107     338.7543
   1426.98853     398.4359     341.3100   1426.98853     398.4359     341.3100
   1426.97327     401.7402     343.1273   1426.97327     401.7402     343.1273
   1426.95801     403.4619     345.2064   1426.95801     403.4619     345.2064
   1426.94275     406.3366     346.9045   1426.94275     406.3366     346.9045
   1426.92749     408.3933     349.5844   1426.92749     408.3933     349.5844
   1426.91223     411.6234     351.7414   1426.91223     411.6234     351.7414
   1426.89697     413.4799     354.1081   1426.89697     413.4799     354.1081
   1426.88171     417.3307     355.8445   1426.88171     417.3307     355.8445
   1426.86646     418.6877     358.4229   1426.86646     418.6877     358.4229
   1426.85120     420.8961     360.0764   1426.85120     420.8961     360.0764
   1426.83594     423.6753     362.1627   1426.83594     423.6753     362.1627
   1426.82068     426.7901     363.8923   1426.82068     426.7901     363.8923
   1426.80542     429.2200     366.2571   1426.80542     429.2200     366.2571
   1426.79016     432.3325     368.5115   1426.79016     432.3325     368.5115
   1426.77490     434.5498     370.4961   1426.77490     434.5498     370.4961
   1426.75964     436.8371     371.8047   1426.75964     436.8371     371.8047
   1426.74438     440.0053     374.4432   1426.74438     440.0053     374.4432
   1426.72913     441.8136     376.3465   1426.72913     441.8136     376.3465
   1426.71387     445.7922     378.3778   1426.71387     445.7922     378.3778
   1426.69861     447.1557     380.7559   1426.69861     447.1557     380.7559
   1426.68335     450.7063     382.4431   1426.68335     450.7063     382.4431
   1426.66809     453.5818     384.7354   1426.66809     453.5818     384.7354
   1426.65283     456.6469     386.3960   1426.65283     456.6469     386.3960
   1426.63757     458.5260     388.5496   1426.63757     458.5260     388.5496
   1426.62231     462.2172     392.6299   1426.62231     462.2172     392.6299
   1426.60706     464.1302     393.3946   1426.60706     464.1302     393.3946
   1426.59180     466.3812     394.0931   1426.59180     466.3812     394.0931
   1426.57654     469.4148     397.0107   1426.57654     469.4148     397.0107
   1426.56128     471.8711     399.2462   1426.56128     471.8711     399.2462
   1426.54602     474.2325     400.5887   1426.54602     474.2325     400.5887
   1426.53076     476.3138     402.5195   1426.53076     476.3138     402.5195
   1426.51550     479.6833     404.5007   1426.51550     479.6833     404.5007
   1426.50024     482.9029     406.6162   1426.50024     482.9029     406.6162
   1426.48499     485.5990     408.0951   1426.48499     485.5990     408.0951
   1426.46973     487.5806     410.9305   1426.46973     487.5806     410.9305
   1426.45447     490.0588     412.4240   1426.45447     490.0588     412.4240
   1426.43921     493.1048     413.8208   1426.43921     493.1048     413.8208
   1426.42395     494.8163     414.8646   1426.42395     494.8163     414.8646
   1426.40869     498.1298     417.8187   1426.40869     498.1298     417.8187
   1426.39343     500.4609     419.8630   1426.39343     500.4609     419.8630
   1426.37817     503.6756     421.7630   1426.37817     503.6756     421.7630
   1426.36292     505.7191     422.7468   1426.36292     505.7191     422.7468
   1426.34766     508.7116     424.9440   1426.34766     508.7116     424.9440
   1426.33240     510.5429     426.6135   1426.33240     510.5429     426.6135
   1426.31714     512.5983     428.4750   1426.31714     512.5983     428.4750
   1426.30188     515.6782     430.5559   1426.30188     515.6782     430.5559
   1426.28662     518.7171     432.0858   1426.28662     518.7171     432.0858
   1426.27136     521.2219     433.8970   1426.27136     521.2219     433.8970
   1426.25610     524.0248     435.3671   1426.25610     524.0248     435.3671
   1426.24084     525.3495     436.6781   1426.24084     525.3495     436.6781
   1426.22559     529.2963     438.8041   1426.22559     529.2963     438.8041
   1426.21033     530.9810     439.7735   1426.21033     530.9810     439.7735
   1426.19507     533.1211     441.1859   1426.19507     533.1211     441.1859
   1426.17981     534.8689     443.4353   1426.17981     534.8689     443.4353
   1426.16455     537.2092     444.7492   1426.16455     537.2092     444.7492
   1426.14929     539.8664     446.4488   1426.14929     539.8664     446.4488
   1426.13403     541.8212     448.6462   1426.13403     541.8212     448.6462
   1426.11877     544.5264     450.1291   1426.11877     544.5264     450.1291
   1426.10352     548.0509     450.7684   1426.10352     548.0509     450.7684
   1426.08826     548.2278     452.8342   1426.08826     548.2278     452.8342
   1426.07300     551.0916     453.5157   1426.07300     551.0916     453.5157
   1426.05774     554.4905     455.6914   1426.05774     554.4905     455.6914
   1426.04248     555.4769     457.0421   1426.04248     555.4769     457.0421
   1426.02722     557.4294     457.7335   1426.02722     557.4294     457.7335
   1426.01196     560.3708     459.8335   1426.01196     560.3708     459.8335
   1425.99670     562.6636     460.7881   1425.99670     562.6636     460.7881
   1425.98145     563.8008     462.5381   1425.98145     563.8008     462.5381
   1425.96619     566.1296     463.7171   1425.96619     566.1296     463.7171
   1425.95093     568.3797     464.6328   1425.95093     568.3797     464.6328
   1425.93567     571.4955     466.7727   1425.93567     571.4955     466.7727
   1425.92041     572.6819     467.8780   1425.92041     572.6819     467.8780
   1425.90515     573.8917     469.1706   1425.90515     573.8917     469.1706
   1425.88989     574.6288     470.0450   1425.88989     574.6288     470.0450
   1425.87463     578.5563     471.5634   1425.87463     578.5563     471.5634
   1425.85938     579.7960     472.5148   1425.85938     579.7960     472.5148
   1425.84412     581.4041     474.2581   1425.84412     581.4041     474.2581
   1425.82886     583.2072     474.3393   1425.82886     583.2072     474.3393
   1425.81360     585.2168     476.5936   1425.81360     585.2168     476.5936
   1425.79834     588.6329     477.8024   1425.79834     588.6329     477.8024
   1425.78308     589.8333     478.1044   1425.78308     589.8333     478.1044
   1425.76782     591.5019     479.9715   1425.76782     591.5019     479.9715
   1425.75256     592.7865     480.5607   1425.75256     592.7865     480.5607
   1425.73730     594.1500     482.0335   1425.73730     594.1500     482.0335
   1425.72205     595.4222     483.0297   1425.72205     595.4222     483.0297
   1425.70679     597.6517     484.5299   1425.70679     597.6517     484.5299
   1425.69153     598.4288     486.1860   1425.69153     598.4288     486.1860
   1425.67627     599.1589     486.0905   1425.67627     599.1589     486.0905
   1425.66101     601.3943     487.1474   1425.66101     601.3943     487.1474
   1425.64575     604.3476     487.9719   1425.64575     604.3476     487.9719
   1425.63049     605.4913     488.8455   1425.63049     605.4913     488.8455
   1425.61523     606.6689     490.3008   1425.61523     606.6689     490.3008
   1425.59998     608.3288     491.0761   1425.59998     608.3288     491.0761
   1425.58472     609.0823     492.1017   1425.58472     609.0823     492.1017
   1425.56946     610.8175     492.6530   1425.56946     610.8175     492.6530
   1425.55420     612.3047     493.6220   1425.55420     612.3047     493.6220
   1425.53894     613.6789     494.2581   1425.53894     613.6789     494.2581
   1425.52368     613.8601     494.8065   1425.52368     613.8601     494.8065
   1425.50842     616.0002     496.8241   1425.50842     616.0002     496.8241
   1425.49316     616.8900     497.5283   1425.49316     616.8900     497.5283
   1425.47791     618.6991     498.3010   1425.47791     618.6991     498.3010
   1425.46265     619.2532     499.4310   1425.46265     619.2532     499.4310
   1425.44739     620.7910     498.9772   1425.44739     620.7910     498.9772
   1425.43213     621.5890     501.9883   1425.43213     621.5890     501.9883
   1425.41687     622.8690     501.4885   1425.41687     622.8690     501.4885
   1425.40161     623.8026     501.8427   1425.40161     623.8026     501.8427
   1425.38635     625.9467     503.0440   1425.38635     625.9467     503.0440
   1425.37109     625.2773     503.2986   1425.37109     625.2773     503.2986
   1425.35583     627.0706     505.1664   1425.35583     627.0706     505.1664
   1425.34058     627.6797     504.6572   1425.34058     627.6797     504.6572
   1425.32532     629.6152     505.7389   1425.32532     629.6152     505.7389
   1425.31006     629.3596     506.9821   1425.31006     629.3596     506.9821
   1425.29480     629.8862     507.2309   1425.29480     629.8862     507.2309
   1425.27954     632.0532     507.9462   1425.27954     632.0532     507.9462
   1425.26428     632.3392     508.2972   1425.26428     632.3392     508.2972
   1425.24902     633.6915     508.9315   1425.24902     633.6915     508.9315
   1425.23376     634.3522     509.4960   1425.23376     634.3522     509.4960
   1425.21851     634.8191     510.1420   1425.21851     634.8191     510.1420
   1425.20325     635.9036     511.4364   1425.20325     635.9036     511.4364
   1425.18799     635.7074     511.2817   1425.18799     635.7074     511.2817
   1425.17273     636.8549     512.3856   1425.17273     636.8549     512.3856
   1425.15747     637.7159     513.0912   1425.15747     637.7159     513.0912
   1425.14221     638.4504     513.3297   1425.14221     638.4504     513.3297
   1425.12695     639.7540     514.4821   1425.12695     639.7540     514.4821
   1425.11169     639.6813     514.3858   1425.11169     639.6813     514.3858
   1425.09644     639.7890     515.3876   1425.09644     639.7890     515.3876
   1425.08118     640.0836     515.6194   1425.08118     640.0836     515.6194
   1425.06592     639.4311     515.3333   1425.06592     639.4311     515.3333
   1425.05066     640.8820     517.0436   1425.05066     640.8820     517.0436
   1425.03540     642.1658     517.3121   1425.03540     642.1658     517.3121
   1425.02014     642.4885     517.7142   1425.02014     642.4885     517.7142
   1425.00488     642.9791     518.8817   1425.00488     642.9791     518.8817
   1424.98962     644.9207     518.5782   1424.98962     644.9207     518.5782
   1424.97437     643.4147     519.4495   1424.97437     643.4147     519.4495
   1424.95911     643.9482     519.5993   1424.95911     643.9482     519.5993
   1424.94385     644.1508     519.9243   1424.94385     644.1508     519.9243
   1424.92859     644.4975     520.5573   1424.92859     644.4975     520.5573
   1424.91333     645.5702     521.0115   1424.91333     645.5702     521.0115
   1424.89807     645.4960     521.4153   1424.89807     645.4960     521.4153
   1424.88281     644.7569     520.9771   1424.88281     644.7569     520.9771
   1424.86755     646.5626     522.1693   1424.86755     646.5626     522.1693
   1424.85229     645.7554     521.7659   1424.85229     645.7554     521.7659
   1424.83704     645.2645     522.3878   1424.83704     645.2645     522.3878
   1424.82178     646.5836     522.9231   1424.82178     646.5836     522.9231
   1424.80652     646.0297     522.3441   1424.80652     646.0297     522.3441
   1424.79126     645.7441     523.5552   1424.79126     645.7441     523.5552
   1424.77600     645.5200     523.2817   1424.77600     645.5200     523.2817
   1424.76074     647.1810     524.5074   1424.76074     647.1810     524.5074
   1424.74548     647.4836     524.1887   1424.74548     647.4836     524.1887
   1424.73022     646.6760     524.2645   1424.73022     646.6760     524.2645
   1424.71497     647.3392     525.4936   1424.71497     647.3392     525.4936
   1424.69971     646.6662     525.0660   1424.69971     646.6662     525.0660
   1424.68445     646.6158     525.1594   1424.68445     646.6158     525.1594
   1424.66919     647.1476     525.6262   1424.66919     647.1476     525.6262
   1424.65393     646.8951     525.5085   1424.65393     646.8951     525.5085
   1424.63867     646.4532     526.7287   1424.63867     646.4532     526.7287
   1424.62341     646.6450     526.7771   1424.62341     646.6450     526.7771
   1424.60815     646.6004     526.7984   1424.60815     646.6004     526.7984
   1424.59290     646.2470     526.9371   1424.59290     646.2470     526.9371
   1424.57764     645.8152     527.3141   1424.57764     645.8152     527.3141
   1424.56238     645.6384     527.5216   1424.56238     645.6384     527.5216
   1424.54712     645.6151     527.6182   1424.54712     645.6151     527.6182
   1424.53186     645.8748     527.5984   1424.53186     645.8748     527.5984
   1424.51660     646.3975     527.9305   1424.51660     646.3975     527.9305
   1424.50134     646.2915     527.9225   1424.50134     646.2915     527.9225
   1424.48608     644.6306     528.1867   1424.48608     644.6306     528.1867
   1424.47083     645.8727     528.1518   1424.47083     645.8727     528.1518
   1424.45557     644.7778     528.0466   1424.45557     644.7778     528.0466
   1424.44031     644.9257     529.4313   1424.44031     644.9257     529.4313
   1424.42505     644.8008     529.2399   1424.42505     644.8008     529.2399
   1424.40979     644.2737     530.0864   1424.40979     644.2737     530.0864
   1424.39453     644.2181     530.0241   1424.39453     644.2181     530.0241
   1424.37927     643.2242     529.3400   1424.37927     643.2242     529.3400
   1424.36401     644.1016     529.9620   1424.36401     644.1016     529.9620
   1424.34875     643.6260     529.3815   1424.34875     643.6260     529.3815
   1424.33350     642.9582     529.8511   1424.33350     642.9582     529.8511
   1424.31824     642.9706     530.5794   1424.31824     642.9706     530.5794
   1424.30298     642.7656     529.6085   1424.30298     642.7656     529.6085
   1424.28772     643.4419     530.5985   1424.28772     643.4419     530.5985
   1424.27246     641.8976     530.2139   1424.27246     641.8976     530.2139
   1424.25720     641.9367     531.5161   1424.25720     641.9367     531.5161
   1424.24194     641.2113     530.4617   1424.24194     641.2113     530.4617
   1424.22668     641.0739     530.5858   1424.22668     641.0739     530.5858
   1424.21143     640.5695     530.2821   1424.21143     640.5695     530.2821
   1424.19617     641.1736     530.8649   1424.19617     641.1736     530.8649
   1424.18091     639.9630     530.7028   1424.18091     639.9630     530.7028
   1424.16565     639.5771     530.9015   1424.16565     639.5771     530.9015
   1424.15039     638.9814     529.9047   1424.15039     638.9814     529.9047
   1424.13513     639.0270     530.2567   1424.13513     639.0270     530.2567
   1424.11987     638.8088     529.9384   1424.11987     638.8088     529.9384
   1424.10461     637.5922     530.7453   1424.10461     637.5922     530.7453
   1424.08936     637.1260     530.7710   1424.08936     637.1260     530.7710
   1424.07410     637.4878     531.0101   1424.07410     637.4878     531.0101
   1424.05884     636.9312     530.8039   1424.05884     636.9312     530.8039
   1424.04358     637.6288     529.9931   1424.04358     637.6288     529.9931
   1424.02832     636.4029     529.8315   1424.02832     636.4029     529.8315
   1424.01306     635.5282     530.4645   1424.01306     635.5282     530.4645
   1423.99780     634.9463     530.8650   1423.99780     634.9463     530.8650
   1423.98254     634.5643     530.6483   1423.98254     634.5643     530.6483
   1423.96729     634.9619     530.9980   1423.96729     634.9619     530.9980
   1423.95203     634.1733     530.1914   1423.95203     634.1733     530.1914
   1423.93677     633.8920     529.8249   1423.93677     633.8920     529.8249
   1423.92151     633.7692     529.9853   1423.92151     633.7692     529.9853
   1423.90625     632.5447     529.7458   1423.90625     632.5447     529.7458
   1423.89099     633.0903     530.3154   1423.89099     633.0903     530.3154
   1423.87573     632.9244     529.3442   1423.87573     632.9244     529.3442
   1423.86047     631.1884     529.5938   1423.86047     631.1884     529.5938
   1423.84521     630.7659     529.2629   1423.84521     630.7659     529.2629
   1423.82996     631.2737     528.9657   1423.82996     631.2737     528.9657
   1423.81470     630.3977     529.4070   1423.81470     630.3977     529.4070
   1423.79944     628.9210     530.1712   1423.79944     628.9210     530.1712
   1423.78418     629.1697     529.0501   1423.78418     629.1697     529.0501
   1423.76892     629.1807     528.3210   1423.76892     629.1807     528.3210
   1423.75366     628.2325     528.6356   1423.75366     628.2325     528.6356
   1423.73840     627.3726     528.5002   1423.73840     627.3726     528.5002
   1423.72314     628.3090     528.8339   1423.72314     628.3090     528.8339
   1423.70789     626.5330     528.2401   1423.70789     626.5330     528.2401
   1423.69263     626.6948     528.6127   1423.69263     626.6948     528.6127
   1423.67737     625.7041     527.5593   1423.67737     625.7041     527.5593
   1423.66211     625.4652     528.3920   1423.66211     625.4652     528.3920
   1423.64685     625.1168     527.8168   1423.64685     625.1168     527.8168
   1423.63159     624.2521     527.0063   1423.63159     624.2521     527.0063
   1423.61633     624.5232     527.4824   1423.61633     624.5232     527.4824
   1423.60107     623.4784     526.5046   1423.60107     623.4784     526.5046
   1423.58582     623.3179     526.2883   1423.58582     623.3179     526.2883
   1423.57056     623.7352     526.0926   1423.57056     623.7352     526.0926
   1423.55530     623.5176     526.2942   1423.55530     623.5176     526.2942
   1423.54004     622.7019     525.7986   1423.54004     622.7019     525.7986
   1423.52478     621.9481     524.9892   1423.52478     621.9481     524.9892
   1423.50952     621.2616     525.2397   1423.50952     621.2616     525.2397
   1423.49426     621.0964     524.2261   1423.49426     621.0964     524.2261
   1423.47900     620.1777     524.9639   1423.47900     620.1777     524.9639
   1423.46375     619.1265     523.8849   1423.46375     619.1265     523.8849
   1423.44849     619.5604     523.7563   1423.44849     619.5604     523.7563
   1423.43323     618.2737     523.7460   1423.43323     618.2737     523.7460
   1423.41797     618.7860     522.5543   1423.41797     618.7860     522.5543
   1423.40271     617.6829     522.7788   1423.40271     617.6829     522.7788
   1423.38745     618.1871     521.9133   1423.38745     618.1871     521.9133
   1423.37219     618.2951     521.9951   1423.37219     618.2951     521.9951
   1423.35693     616.8915     521.8684   1423.35693     616.8915     521.8684
   1423.34167     616.8143     521.8538   1423.34167     616.8143     521.8538
   1423.32642     615.7960     520.8571   1423.32642     615.7960     520.8571
   1423.31116     615.0144     520.7241   1423.31116     615.0144     520.7241
   1423.29590     615.2070     520.5134   1423.29590     615.2070     520.5134
   1423.28064     614.1640     520.1291   1423.28064     614.1640     520.1291
   1423.26538     613.7981     519.7960   1423.26538     613.7981     519.7960
   1423.25012     614.4050     518.9762   1423.25012     614.4050     518.9762
   1423.23486     613.9637     518.5096   1423.23486     613.9637     518.5096
   1423.21960     613.3532     517.6047   1423.21960     613.3532     517.6047
   1423.20435     613.1668     518.2121   1423.20435     613.1668     518.2121
   1423.18909     612.3733     517.0759   1423.18909     612.3733     517.0759
   1423.17383     611.4448     516.4159   1423.17383     611.4448     516.4159
   1423.15857     611.7336     515.5526   1423.15857     611.7336     515.5526
   1423.14331     611.8791     515.7831   1423.14331     611.8791     515.7831
   1423.12805     611.2251     514.9716   1423.12805     611.2251     514.9716
   1423.11279     610.4722     514.9203   1423.11279     610.4722     514.9203
   1423.09753     610.5413     514.3085   1423.09753     610.5413     514.3085
   1423.08228     610.0717     513.3499   1423.08228     610.0717     513.3499
   1423.06702     609.9379     512.3703   1423.06702     609.9379     512.3703
   1423.05176     609.0914     511.6669   1423.05176     609.0914     511.6669
   1423.03650     608.9256     511.7223   1423.03650     608.9256     511.7223
   1423.02124     608.9357     510.7200   1423.02124     608.9357     510.7200
   1423.00598     607.2009     510.1855   1423.00598     607.2009     510.1855
   1422.99072     606.9490     509.7796   1422.99072     606.9490     509.7796
   1422.97546     607.6506     509.2128   1422.97546     607.6506     509.2128
   1422.96021     607.7911     507.4920   1422.96021     607.7911     507.4920
   1422.94495     606.8004     507.2130   1422.94495     606.8004     507.2130
   1422.92969     606.7127     507.7461   1422.92969     606.7127     507.7461
   1422.91443     605.5059     507.0236   1422.91443     605.5059     507.0236
   1422.89917     606.1190     505.4901   1422.89917     606.1190     505.4901
   1422.88391     605.5894     505.5080   1422.88391     605.5894     505.5080
   1422.86865     605.3329     504.3676   1422.86865     605.3329     504.3676
   1422.85339     604.7219     504.0081   1422.85339     604.7219     504.0081
   1422.83813     605.7502     502.9925   1422.83813     605.7502     502.9925
   1422.82288     604.1542     503.2010   1422.82288     604.1542     503.2010
   1422.80762     604.2812     502.5262   1422.80762     604.2812     502.5262
   1422.79236     602.4230     500.9127   1422.79236     602.4230     500.9127
   1422.77710     604.0708     500.8151   1422.77710     604.0708     500.8151
   1422.76184     601.5847     499.8676   1422.76184     601.5847     499.8676
   1422.74658     602.3435     499.2127   1422.74658     602.3435     499.2127
   1422.73132     602.5578     498.6484   1422.73132     602.5578     498.6484
   1422.71606     601.4422     498.0899   1422.71606     601.4422     498.0899
   1422.70081     602.2355     496.7528   1422.70081     602.2355     496.7528
   1422.68555     600.4111     496.3816   1422.68555     600.4111     496.3816
   1422.67029     601.6176     494.6967   1422.67029     601.6176     494.6967
   1422.65503     601.2319     495.0262   1422.65503     601.2319     495.0262
   1422.63977     600.8534     494.4208   1422.63977     600.8534     494.4208
   1422.62451     601.5810     493.3335   1422.62451     601.5810     493.3335
   1422.60925     600.7362     492.5111   1422.60925     600.7362     492.5111
   1422.59399     599.7119     491.1587   1422.59399     599.7119     491.1587
   1422.57874     599.0969     490.5126   1422.57874     599.0969     490.5126
   1422.56348     598.9053     490.0145   1422.56348     598.9053     490.0145
   1422.54822     598.2839     489.6531   1422.54822     598.2839     489.6531
   1422.53296     599.4565     489.4315   1422.53296     599.4565     489.4315
   1422.51770     598.7963     487.5917   1422.51770     598.7963     487.5917
   1422.50244     598.8672     486.3613   1422.50244     598.8672     486.3613
   1422.48718     598.7783     486.1132   1422.48718     598.7783     486.1132
   1422.47192     597.4947     485.3632   1422.47192     597.4947     485.3632
   1422.45667     596.6630     483.3961   1422.45667     596.6630     483.3961
   1422.44141     597.6505     483.1859   1422.44141     597.6505     483.1859
   1422.42615     597.7986     483.1690   1422.42615     597.7986     483.1690
   1422.41089     597.8308     481.9223   1422.41089     597.8308     481.9223
   1422.39563     596.7944     480.8401   1422.39563     596.7944     480.8401
   1422.38037     597.8635     479.8147   1422.38037     597.8635     479.8147
   1422.36511     596.9760     478.5273   1422.36511     596.9760     478.5273
   1422.34985     596.9196     478.4912   1422.34985     596.9196     478.4912
   1422.33459     596.0454     477.3735   1422.33459     596.0454     477.3735
   1422.31934     596.5911     476.7439   1422.31934     596.5911     476.7439
   1422.30408     596.3593     475.4048   1422.30408     596.3593     475.4048
   1422.28882     595.1225     474.7334   1422.28882     595.1225     474.7334
   1422.27356     596.7396     473.3315   1422.27356     596.7396     473.3315
   1422.25830     595.7062     473.7526   1422.25830     595.7062     473.7526
   1422.24304     596.0937     476.0247   1422.24304     596.0937     476.0247
   1422.22778     595.9692     471.9690   1422.22778     595.9692     471.9690
   1422.21252     595.6932     470.1128   1422.21252     595.6932     470.1128
   1422.19727     595.1148     470.0371   1422.19727     595.1148     470.0371
   1422.18201     594.8389     468.2655   1422.18201     594.8389     468.2655
   1422.16675     593.9733     467.0264   1422.16675     593.9733     467.0264
   1422.15149     594.9087     467.0899   1422.15149     594.9087     467.0899
   1422.13623     593.9398     465.8657   1422.13623     593.9398     465.8657
   1422.12097     594.2289     464.7902   1422.12097     594.2289     464.7902
   1422.10571     594.5053     463.0974   1422.10571     594.5053     463.0974
   1422.09045     594.5992     462.7029   1422.09045     594.5992     462.7029
   1422.07520     594.0311     462.2934   1422.07520     594.0311     462.2934
   1422.05994     593.4492     460.5364   1422.05994     593.4492     460.5364
   1422.04468     592.9062     459.4435   1422.04468     592.9062     459.4435
   1422.02942     594.3003     458.4698   1422.02942     594.3003     458.4698
   1422.01416     593.3929     457.6989   1422.01416     593.3929     457.6989
   1421.99890     593.0212     457.1212   1421.99890     593.0212     457.1212
   1421.98364     593.3201     456.3123   1421.98364     593.3201     456.3123
   1421.96838     592.5263     454.4979   1421.96838     592.5263     454.4979
   1421.95312     592.1850     454.6082   1421.95312     592.1850     454.6082
   1421.93787     592.8636     452.6820   1421.93787     592.8636     452.6820
   1421.92261     592.4831     452.5729   1421.92261     592.4831     452.5729
   1421.90735     592.7911     451.4195   1421.90735     592.7911     451.4195
   1421.89209     591.5247     450.2086   1421.89209     591.5247     450.2086
   1421.87683     592.9371     449.8416   1421.87683     592.9371     449.8416
   1421.86157     593.1337     447.5897   1421.86157     593.1337     447.5897
   1421.84631     591.7468     447.2745   1421.84631     591.7468     447.2745
   1421.83105     591.6646     446.6480   1421.83105     591.6646     446.6480
   1421.81580     591.2581     444.7693   1421.81580     591.2581     444.7693
   1421.80054     591.6684     444.1712   1421.80054     591.6684     444.1712
   1421.78528     591.2898     443.6366   1421.78528     591.2898     443.6366
   1421.77002     591.8738     442.1102   1421.77002     591.8738     442.1102
   1421.75476     591.6097     441.6794   1421.75476     591.6097     441.6794
   1421.73950     591.0986     441.4430   1421.73950     591.0986     441.4430
   1421.72424     591.7928     439.4159   1421.72424     591.7928     439.4159
   1421.70898     590.1316     438.5588   1421.70898     590.1316     438.5588
   1421.69373     589.8318     437.1847   1421.69373     589.8318     437.1847
   1421.67847     590.3627     436.8080   1421.67847     590.3627     436.8080
   1421.66321     589.6378     435.5408   1421.66321     589.6378     435.5408
   1421.64795     591.0861     434.9422   1421.64795     591.0861     434.9422
   1421.63269     590.5185     433.8286   1421.63269     590.5185     433.8286
   1421.61743     590.3766     432.7508   1421.61743     590.3766     432.7508
   1421.60217     590.0439     432.1911   1421.60217     590.0439     432.1911
   1421.58691     590.4915     430.5711   1421.58691     590.4915     430.5711
   1421.57166     589.1909     430.5039   1421.57166     589.1909     430.5039
   1421.55640     589.4092     429.5141   1421.55640     589.4092     429.5141
   1421.54114     590.0214     428.8225   1421.54114     590.0214     428.8225
   1421.52588     590.0754     427.0276   1421.52588     590.0754     427.0276
   1421.51062     589.3267     426.0065   1421.51062     589.3267     426.0065
   1421.49536     589.4550     425.1984   1421.49536     589.4550     425.1984
   1421.48010     589.0923     424.7183   1421.48010     589.0923     424.7183
   1421.46484     588.9998     423.1528   1421.46484     588.9998     423.1528
   1421.44958     588.7684     423.1585   1421.44958     588.7684     423.1585
   1421.43433     588.9375     421.3008   1421.43433     588.9375     421.3008
   1421.41907     589.7296     421.5708   1421.41907     589.7296     421.5708
   1421.40381     590.5049     421.2788   1421.40381     590.5049     421.2788
   1421.38855     590.1150     419.5137   1421.38855     590.1150     419.5137
   1421.37329     589.3075     418.6792   1421.37329     589.3075     418.6792
   1421.35803     588.8309     418.3259   1421.35803     588.8309     418.3259
   1421.34277     588.6392     416.5077   1421.34277     588.6392     416.5077
   1421.32751     589.1420     415.5363   1421.32751     589.1420     415.5363
   1421.31226     588.8636     414.7771   1421.31226     588.8636     414.7771
   1421.29700     589.3457     413.9619   1421.29700     589.3457     413.9619
   1421.28174     588.3005     413.0825   1421.28174     588.3005     413.0825
   1421.26648     588.8096     412.3241   1421.26648     588.8096     412.3241
   1421.25122     588.9733     411.3720   1421.25122     588.9733     411.3720
   1421.23596     588.8739     410.6879   1421.23596     588.8739     410.6879
   1421.22070     589.7320     410.4963   1421.22070     589.7320     410.4963
   1421.20544     590.8419     410.0738   1421.20544     590.8419     410.0738
   1421.19019     589.9895     408.6092   1421.19019     589.9895     408.6092
   1421.17493     590.1248     408.3555   1421.17493     590.1248     408.3555
   1421.15967     590.1783     407.4850   1421.15967     590.1783     407.4850
   1421.14441     589.9490     406.0953   1421.14441     589.9490     406.0953
   1421.12915     588.7217     404.9982   1421.12915     588.7217     404.9982
   1421.11389     588.6027     403.6114   1421.11389     588.6027     403.6114
   1421.09863     588.7221     403.3962   1421.09863     588.7221     403.3962
   1421.08337     587.2852     402.3659   1421.08337     587.2852     402.3659
   1421.06812     588.6694     401.6654   1421.06812     588.6694     401.6654
   1421.05286     588.6662     400.7218   1421.05286     588.6662     400.7218
   1421.03760     588.2482     400.1201   1421.03760     588.2482     400.1201
   1421.02234     589.7374     400.0907   1421.02234     589.7374     400.0907
   1421.00708     591.2012     399.4445   1421.00708     591.2012     399.4445
   1420.99182     590.7985     399.5917   1420.99182     590.7985     399.5917
   1420.97656     594.2331     400.3935   1420.97656     594.2331     400.3935
   1420.96130     598.1223     403.0165   1420.96130     598.1223     403.0165
   1420.94604     608.6965     409.1119   1420.94604     608.6965     409.1119
   1420.93079     633.9645     424.2698   1420.93079     633.9645     424.2698
   1420.91553     678.1119     451.9637   1420.91553     678.1119     451.9637
   1420.90027     743.9771     493.9292   1420.90027     743.9771     493.9292
   1420.88501     774.6597     513.2390   1420.88501     774.6597     513.2390
   1420.86975     797.0891     526.6711   1420.86975     797.0891     526.6711
   1420.85449     811.5351     535.3741   1420.85449     811.5351     535.3741
   1420.83923     786.8070     519.1255   1420.83923     786.8070     519.1255
   1420.82397     823.4276     541.8447   1420.82397     823.4276     541.8447
   1420.80872     833.8145     545.7223   1420.80872     833.8145     545.7223
   1420.79346     819.0209     535.5142   1420.79346     819.0209     535.5142
   1420.77820     826.4067     539.7502   1420.77820     826.4067     539.7502
   1420.76294     786.0663     513.7988   1420.76294     786.0663     513.7988
   1420.74768     798.5009     519.9406   1420.74768     798.5009     519.9406
   1420.73242     923.4778     597.3484   1420.73242     923.4778     597.3484
   1420.71716    1178.2498     758.1993   1420.71716    1178.2498     758.1993
   1420.70190    1395.9875     896.3478   1420.70190    1395.9875     896.3478
   1420.68665    1494.8784     957.2546   1420.68665    1494.8784     957.2546
   1420.67139    1624.0333    1037.3257   1420.67139    1624.0333    1037.3257
   1420.65613    1712.0409    1090.6879   1420.65613    1712.0409    1090.6879
   1420.64087    1732.9581    1101.6921   1420.64087    1732.9581    1101.6921
   1420.62561    1785.1617    1133.8464   1420.62561    1785.1617    1133.8464
   1420.61035    1806.8214    1142.7678   1420.61035    1806.8214    1142.7678
   1420.59509    1651.9139    1042.1049   1420.59509    1651.9139    1042.1049
   1420.57983    1314.4213     833.1248   1420.57983    1314.4213     833.1248
   1420.56458     965.1164     614.4617   1420.56458     965.1164     614.4617
   1420.54932     859.4740     546.8381   1420.54932     859.4740     546.8381
   1420.53406     881.5281     559.9156   1420.53406     881.5281     559.9156
   1420.51880    1024.5209     648.2162   1420.51880    1024.5209     648.2162
   1420.50354    1186.4775     747.2882   1420.50354    1186.4775     747.2882
   1420.48828    1247.5618     785.0020   1420.48828    1247.5618     785.0020
   1420.47302    1193.7295     748.9547   1420.47302    1193.7295     748.9547
   1420.45776    1257.0956     786.6815   1420.45776    1257.0956     786.6815
   1420.44250    1437.6052     896.4858   1420.44250    1437.6052     896.4858
   1420.42725    1401.4727     873.1447   1420.42725    1401.4727     873.1447
   1420.41199    1138.6887     711.5226   1420.41199    1138.6887     711.5226
   1420.39673     832.9141     522.1528   1420.39673     832.9141     522.1528
   1420.38147     678.1155     426.1459   1420.38147     678.1155     426.1459
   1420.36621     630.5923     395.9720   1420.36621     630.5923     395.9720
   1420.35095     608.6539     383.3110   1420.35095     608.6539     383.3110
   1420.33569     598.6202     377.2257   1420.33569     598.6202     377.2257
   1420.32043     593.1064     372.8314   1420.32043     593.1064     372.8314
   1420.30518     589.9985     370.2780   1420.30518     589.9985     370.2780
   1420.28992     587.6500     368.6815   1420.28992     587.6500     368.6815
   1420.27466     586.0565     366.5760   1420.27466     586.0565     366.5760
   1420.25940     585.6835     365.6955   1420.25940     585.6835     365.6955
   1420.24414     584.6699     364.3918   1420.24414     584.6699     364.3918
   1420.22888     584.2182     364.3223   1420.22888     584.2182     364.3223
   1420.21362     583.2834     363.1875   1420.21362     583.2834     363.1875
   1420.19836     582.6392     362.1147   1420.19836     582.6392     362.1147
   1420.18311     581.8636     361.0047   1420.18311     581.8636     361.0047
   1420.16785     581.7500     360.1315   1420.16785     581.7500     360.1315
   1420.15259     580.7709     358.8730   1420.15259     580.7709     358.8730
   1420.13733     580.1967     358.7165   1420.13733     580.1967     358.7165
   1420.12207     579.3256     358.0023   1420.12207     579.3256     358.0023
   1420.10681     578.2164     357.4969   1420.10681     578.2164     357.4969
   1420.09155     578.5487     357.2889   1420.09155     578.5487     357.2889
   1420.07629     578.4523     356.4927   1420.07629     578.4523     356.4927
   1420.06104     578.0121     355.6623   1420.06104     578.0121     355.6623
   1420.04578     577.2126     355.1717   1420.04578     577.2126     355.1717
   1420.03052     578.2632     355.8132   1420.03052     578.2632     355.8132
   1420.01526     580.2209     357.4714   1420.01526     580.2209     357.4714
   1420.00000     579.7728     357.5059   1420.00000     579.7728     357.5059
   1419.98474     579.3248     357.5403   1419.98474     579.3248     357.5403
   1419.96948     579.2820     354.7875   1419.96948     579.2820     354.7875
   1419.95422     577.7737     352.6240   1419.95422     577.7737     352.6240
   1419.93896     577.5745     352.9560   1419.93896     577.5745     352.9560
   1419.92371     577.5295     352.4051   1419.92371     577.5295     352.4051
   1419.90845     577.1721     351.8116   1419.90845     577.1721     351.8116
   1419.89319     578.3698     351.4891   1419.89319     578.3698     351.4891
   1419.87793     577.2263     351.4951   1419.87793     577.2263     351.4951
   1419.86267     577.3164     351.3250   1419.86267     577.3164     351.3250
   1419.84741     577.6839     350.8129   1419.84741     577.6839     350.8129
   1419.83215     578.1888     350.2739   1419.83215     578.1888     350.2739
   1419.81689     578.0697     350.6737   1419.81689     578.0697     350.6737
   1419.80164     577.9306     350.3056   1419.80164     577.9306     350.3056
   1419.78638     577.7768     350.0180   1419.78638     577.7768     350.0180
   1419.77112     577.8875     349.8925   1419.77112     577.8875     349.8925
   1419.75586     577.4437     349.6327   1419.75586     577.4437     349.6327
   1419.74060     577.9321     349.0491   1419.74060     577.9321     349.0491
   1419.72534     578.9097     348.8010   1419.72534     578.9097     348.8010
   1419.71008     578.5863     348.7832   1419.71008     578.5863     348.7832
   1419.69482     577.8719     349.0362   1419.69482     577.8719     349.0362
   1419.67957     579.1194     348.7277   1419.67957     579.1194     348.7277
   1419.66431     578.8180     349.1099   1419.66431     578.8180     349.1099
   1419.64905     578.3773     348.7763   1419.64905     578.3773     348.7763
   1419.63379     579.4952     348.1736   1419.63379     579.4952     348.1736
   1419.61853     579.8263     348.2518   1419.61853     579.8263     348.2518
   1419.60327     580.1777     348.6600   1419.60327     580.1777     348.6600
   1419.58801     579.4629     348.5832   1419.58801     579.4629     348.5832
   1419.57275     580.5337     348.1909   1419.57275     580.5337     348.1909
   1419.55750     581.1378     348.3397   1419.55750     581.1378     348.3397
   1419.54224     581.0654     347.8480   1419.54224     581.0654     347.8480
   1419.52698     581.2214     348.1650   1419.52698     581.2214     348.1650
   1419.51172     581.4046     348.0058   1419.51172     581.4046     348.0058
   1419.49646     581.2075     347.8230   1419.49646     581.2075     347.8230
   1419.48120     580.6994     348.4187   1419.48120     580.6994     348.4187
   1419.46594     581.3359     347.5172   1419.46594     581.3359     347.5172
   1419.45068     582.9081     348.5108   1419.45068     582.9081     348.5108
   1419.43542     582.1472     348.6356   1419.43542     582.1472     348.6356
   1419.42017     582.0471     348.2590   1419.42017     582.0471     348.2590
   1419.40491     583.6702     348.8124   1419.40491     583.6702     348.8124
   1419.38965     583.0414     348.6119   1419.38965     583.0414     348.6119
   1419.37439     583.4179     348.4537   1419.37439     583.4179     348.4537
   1419.35913     583.0172     349.7625   1419.35913     583.0172     349.7625
   1419.34387     583.7187     348.6529   1419.34387     583.7187     348.6529
   1419.32861     583.2899     348.5669   1419.32861     583.2899     348.5669
   1419.31335     584.6199     349.3991   1419.31335     584.6199     349.3991
   1419.29810     585.6957     348.8987   1419.29810     585.6957     348.8987
   1419.28284     585.2495     349.0691   1419.28284     585.2495     349.0691
   1419.26758     584.5534     349.8029   1419.26758     584.5534     349.8029
   1419.25232     585.8618     349.9669   1419.25232     585.8618     349.9669
   1419.23706     586.6715     349.9672   1419.23706     586.6715     349.9672
   1419.22180     586.4814     350.2921   1419.22180     586.4814     350.2921
   1419.20654     586.6699     350.3937   1419.20654     586.6699     350.3937
   1419.19128     587.6517     350.5641   1419.19128     587.6517     350.5641
   1419.17603     587.6089     350.9093   1419.17603     587.6089     350.9093
   1419.16077     588.3024     350.9322   1419.16077     588.3024     350.9322
   1419.14551     588.0143     351.0332   1419.14551     588.0143     351.0332
   1419.13025     588.6466     351.1935   1419.13025     588.6466     351.1935
   1419.11499     588.7448     351.6040   1419.11499     588.7448     351.6040
   1419.09973     590.0220     352.3307   1419.09973     590.0220     352.3307
   1419.08447     589.7083     352.2690   1419.08447     589.7083     352.2690
   1419.06921     590.4788     353.1203   1419.06921     590.4788     353.1203
   1419.05396     590.3635     353.1334   1419.05396     590.3635     353.1334
   1419.03870     591.1108     353.4452   1419.03870     591.1108     353.4452
   1419.02344     590.6258     353.7871   1419.02344     590.6258     353.7871
   1419.00818     590.8687     354.1672   1419.00818     590.8687     354.1672
   1418.99292     591.6514     354.0690   1418.99292     591.6514     354.0690
   1418.97766     592.3052     354.4963   1418.97766     592.3052     354.4963
   1418.96240     592.8875     355.6360   1418.96240     592.8875     355.6360
   1418.94714     593.2872     355.8997   1418.94714     593.2872     355.8997
   1418.93188     594.6964     355.5041   1418.93188     594.6964     355.5041
   1418.91663     593.7587     356.6850   1418.91663     593.7587     356.6850
   1418.90137     596.6640     357.2345   1418.90137     596.6640     357.2345
   1418.88611     595.0452     357.6073   1418.88611     595.0452     357.6073
   1418.87085     596.9282     357.5551   1418.87085     596.9282     357.5551
   1418.85559     595.5927     358.5082   1418.85559     595.5927     358.5082
   1418.84033     596.6193     359.1129   1418.84033     596.6193     359.1129
   1418.82507     597.5820     359.1073   1418.82507     597.5820     359.1073
   1418.80981     597.7579     359.4890   1418.80981     597.7579     359.4890
   1418.79456     598.8424     359.5670   1418.79456     598.8424     359.5670
   1418.77930     598.8868     360.6231   1418.77930     598.8868     360.6231
   1418.76404     599.0847     361.6908   1418.76404     599.0847     361.6908
   1418.74878     599.4568     361.7199   1418.74878     599.4568     361.7199
   1418.73352     600.0719     362.0245   1418.73352     600.0719     362.0245
   1418.71826     601.2437     362.6192   1418.71826     601.2437     362.6192
   1418.70300     601.4726     363.4208   1418.70300     601.4726     363.4208
   1418.68774     602.8121     363.7851   1418.68774     602.8121     363.7851
   1418.67249     603.0188     364.3611   1418.67249     603.0188     364.3611
   1418.65723     603.8215     364.9930   1418.65723     603.8215     364.9930
   1418.64197     604.1239     365.6147   1418.64197     604.1239     365.6147
   1418.62671     604.9849     366.2579   1418.62671     604.9849     366.2579
   1418.61145     605.8974     366.5152   1418.61145     605.8974     366.5152
   1418.59619     606.1253     367.1228   1418.59619     606.1253     367.1228
   1418.58093     606.8549     367.6431   1418.58093     606.8549     367.6431
   1418.56567     606.6753     368.5264   1418.56567     606.6753     368.5264
   1418.55042     606.9852     368.9401   1418.55042     606.9852     368.9401
   1418.53516     607.0538     370.0797   1418.53516     607.0538     370.0797
   1418.51990     608.6298     370.3784   1418.51990     608.6298     370.3784
   1418.50464     608.5593     371.0231   1418.50464     608.5593     371.0231
   1418.48938     609.6375     372.1555   1418.48938     609.6375     372.1555
   1418.47412     610.8030     372.6233   1418.47412     610.8030     372.6233
   1418.45886     611.6194     373.8463   1418.45886     611.6194     373.8463
   1418.44360     611.8223     374.1581   1418.44360     611.8223     374.1581
   1418.42834     611.7596     374.9482   1418.42834     611.7596     374.9482
   1418.41309     612.6152     375.3202   1418.41309     612.6152     375.3202
   1418.39783     613.4631     376.6514   1418.39783     613.4631     376.6514
   1418.38257     614.5015     377.0844   1418.38257     614.5015     377.0844
   1418.36731     614.3256     377.7304   1418.36731     614.3256     377.7304
   1418.35205     615.9891     378.7353   1418.35205     615.9891     378.7353
   1418.33679     616.2867     379.5501   1418.33679     616.2867     379.5501
   1418.32153     617.9878     380.0862   1418.32153     617.9878     380.0862
   1418.30627     617.2663     380.8803   1418.30627     617.2663     380.8803
   1418.29102     618.2651     381.5045   1418.29102     618.2651     381.5045
   1418.27576     619.1055     382.2866   1418.27576     619.1055     382.2866
   1418.26050     619.1711     382.9091   1418.26050     619.1711     382.9091
   1418.24524     620.6526     384.8304   1418.24524     620.6526     384.8304
   1418.22998     621.5406     385.2706   1418.22998     621.5406     385.2706
   1418.21472     621.7651     386.3249   1418.21472     621.7651     386.3249
   1418.19946     621.8814     387.2330   1418.19946     621.8814     387.2330
   1418.18420     622.9554     387.9332   1418.18420     622.9554     387.9332
   1418.16895     623.6519     388.3668   1418.16895     623.6519     388.3668
   1418.15369     624.1132     389.6290   1418.15369     624.1132     389.6290
   1418.13843     625.8663     390.0471   1418.13843     625.8663     390.0471
   1418.12317     626.6006     391.2750   1418.12317     626.6006     391.2750
   1418.10791     626.3945     392.2687   1418.10791     626.3945     392.2687
   1418.09265     627.8742     392.8894   1418.09265     627.8742     392.8894
   1418.07739     628.7967     394.2683   1418.07739     628.7967     394.2683
   1418.06213     628.4775     394.6498   1418.06213     628.4775     394.6498
   1418.04688     630.1412     395.7641   1418.04688     630.1412     395.7641
   1418.03162     630.1276     395.6204   1418.03162     630.1276     395.6204
   1418.01636     631.4850     397.7955   1418.01636     631.4850     397.7955
   1418.00110     632.3367     398.1368   1418.00110     632.3367     398.1368
   1417.98584     632.5972     399.1926   1417.98584     632.5972     399.1926
   1417.97058     633.8444     400.3669   1417.97058     633.8444     400.3669
   1417.95532     634.7195     400.9721   1417.95532     634.7195     400.9721
   1417.94006     635.5490     402.3140   1417.94006     635.5490     402.3140
   1417.92480     636.8060     403.3238   1417.92480     636.8060     403.3238
   1417.90955     636.5212     403.4511   1417.90955     636.5212     403.4511
   1417.89429     637.8858     405.6763   1417.89429     637.8858     405.6763
   1417.87903     639.0065     405.7188   1417.87903     639.0065     405.7188
   1417.86377     638.4998     407.5147   1417.86377     638.4998     407.5147
   1417.84851     639.4937     408.4480   1417.84851     639.4937     408.4480
   1417.83325     640.4725     409.1798   1417.83325     640.4725     409.1798
   1417.81799     641.1511     410.5765   1417.81799     641.1511     410.5765
   1417.80273     641.6355     410.9623   1417.80273     641.6355     410.9623
   1417.78748     643.0322     412.5990   1417.78748     643.0322     412.5990
   1417.77222     644.2440     413.0809   1417.77222     644.2440     413.0809
   1417.75696     645.0255     414.5498   1417.75696     645.0255     414.5498
   1417.74170     646.1534     415.4707   1417.74170     646.1534     415.4707
   1417.72644     646.6221     416.4190   1417.72644     646.6221     416.4190
   1417.71118     646.8179     417.7426   1417.71118     646.8179     417.7426
   1417.69592     647.2784     418.5641   1417.69592     647.2784     418.5641
   1417.68066     648.2216     420.0980   1417.68066     648.2216     420.0980
   1417.66541     649.5753     420.1736   1417.66541     649.5753     420.1736
   1417.65015     650.0323     421.4885   1417.65015     650.0323     421.4885
   1417.63489     651.0818     422.4920   1417.63489     651.0818     422.4920
   1417.61963     651.7751     423.4160   1417.61963     651.7751     423.4160
   1417.60437     652.5528     425.0844   1417.60437     652.5528     425.0844
   1417.58911     653.7329     425.6742   1417.58911     653.7329     425.6742
   1417.57385     653.8532     427.0168   1417.57385     653.8532     427.0168
   1417.55859     655.5815     429.1751   1417.55859     655.5815     429.1751
   1417.54333     656.1056     428.4729   1417.54333     656.1056     428.4729
   1417.52808     656.4586     430.3854   1417.52808     656.4586     430.3854
   1417.51282     656.4534     431.1084   1417.51282     656.4534     431.1084
   1417.49756     658.6061     432.3192   1417.49756     658.6061     432.3192
   1417.48230     659.8199     432.8900   1417.48230     659.8199     432.8900
   1417.46704     659.0687     434.0371   1417.46704     659.0687     434.0371
   1417.45178     660.2701     435.4316   1417.45178     660.2701     435.4316
   1417.43652     660.3271     437.2359   1417.43652     660.3271     437.2359
   1417.42126     661.0492     437.2829   1417.42126     661.0492     437.2829
   1417.40601     662.5899     438.8171   1417.40601     662.5899     438.8171
   1417.39075     662.6418     440.1278   1417.39075     662.6418     440.1278
   1417.37549     664.1176     440.9279   1417.37549     664.1176     440.9279
   1417.36023     663.7079     441.9522   1417.36023     663.7079     441.9522
   1417.34497     665.3645     443.2207   1417.34497     665.3645     443.2207
   1417.32971     665.5018     443.7894   1417.32971     665.5018     443.7894
   1417.31445     666.0634     445.4205   1417.31445     666.0634     445.4205
   1417.29919     666.7893     446.8553   1417.29919     666.7893     446.8553
   1417.28394     667.5542     446.7774   1417.28394     667.5542     446.7774
   1417.26868     668.2428     447.7772   1417.26868     668.2428     447.7772
   1417.25342     668.3348     448.9028   1417.25342     668.3348     448.9028
   1417.23816     669.1846     450.3005   1417.23816     669.1846     450.3005
   1417.22290     670.1274     451.6182   1417.22290     670.1274     451.6182
   1417.20764     669.5977     451.9773   1417.20764     669.5977     451.9773
   1417.19238     671.8851     452.6995   1417.19238     671.8851     452.6995
   1417.17712     671.9045     453.6726   1417.17712     671.9045     453.6726
   1417.16187     672.8060     455.2891   1417.16187     672.8060     455.2891
   1417.14661     672.9264     456.3098   1417.14661     672.9264     456.3098
   1417.13135     673.5358     457.1411   1417.13135     673.5358     457.1411
   1417.11609     674.8651     457.6562   1417.11609     674.8651     457.6562
   1417.10083     675.3786     458.5448   1417.10083     675.3786     458.5448
   1417.08557     674.6724     459.6417   1417.08557     674.6724     459.6417
   1417.07031     675.9628     460.6854   1417.07031     675.9628     460.6854
   1417.05505     677.0936     461.8293   1417.05505     677.0936     461.8293
   1417.03979     677.1558     462.9483   1417.03979     677.1558     462.9483
   1417.02454     677.2233     463.7443   1417.02454     677.2233     463.7443
   1417.00928     676.7822     464.4850   1417.00928     676.7822     464.4850
   1416.99402     678.9341     464.5998   1416.99402     678.9341     464.5998
   1416.97876     677.8375     465.7793   1416.97876     677.8375     465.7793
   1416.96350     679.0193     466.6910   1416.96350     679.0193     466.6910
   1416.94824     679.7659     467.0076   1416.94824     679.7659     467.0076
   1416.93298     679.7553     468.0594   1416.93298     679.7553     468.0594
   1416.91772     680.1335     469.2955   1416.91772     680.1335     469.2955
   1416.90247     680.4200     470.1306   1416.90247     680.4200     470.1306
   1416.88721     681.4667     470.9168   1416.88721     681.4667     470.9168
   1416.87195     681.5195     470.9491   1416.87195     681.5195     470.9491
   1416.85669     681.5466     471.6929   1416.85669     681.5466     471.6929
   1416.84143     682.0705     472.5082   1416.84143     682.0705     472.5082
   1416.82617     684.0510     472.7456   1416.82617     684.0510     472.7456
   1416.81091     683.4436     473.5890   1416.81091     683.4436     473.5890
   1416.79565     683.4083     474.2521   1416.79565     683.4083     474.2521
   1416.78040     683.9052     475.2995   1416.78040     683.9052     475.2995
   1416.76514     683.4267     475.7694   1416.76514     683.4267     475.7694
   1416.74988     683.4485     474.8427   1416.74988     683.4485     474.8427
   1416.73462     683.1244     476.7498   1416.73462     683.1244     476.7498
   1416.71936     684.7789     476.5235   1416.71936     684.7789     476.5235
   1416.70410     683.9379     477.0471   1416.70410     683.9379     477.0471
   1416.68884     684.8132     477.8537   1416.68884     684.8132     477.8537
   1416.67358     684.7742     478.3311   1416.67358     684.7742     478.3311
   1416.65833     684.6476     479.2719   1416.65833     684.6476     479.2719
   1416.64307     684.8505     478.9375   1416.64307     684.8505     478.9375
   1416.62781     685.5293     479.2438   1416.62781     685.5293     479.2438
   1416.61255     686.9765     479.4414   1416.61255     686.9765     479.4414
   1416.59729     688.0015     480.2843   1416.59729     688.0015     480.2843
   1416.58203     685.4259     479.8315   1416.58203     685.4259     479.8315
   1416.56677     686.2998     479.7464   1416.56677     686.2998     479.7464
   1416.55151     685.6691     480.9033   1416.55151     685.6691     480.9033
   1416.53625     685.1889     480.5861   1416.53625     685.1889     480.5861
   1416.52100     685.1414     481.8483   1416.52100     685.1414     481.8483
   1416.50574     685.0497     481.3233   1416.50574     685.0497     481.3233
   1416.49048     685.5649     481.3597   1416.49048     685.5649     481.3597
   1416.47522     685.2998     481.5295   1416.47522     685.2998     481.5295
   1416.45996     684.6436     481.8152   1416.45996     684.6436     481.8152
   1416.44470     684.6573     481.7189   1416.44470     684.6573     481.7189
   1416.42944     685.6262     481.5463   1416.42944     685.6262     481.5463
   1416.41418     685.6352     482.5287   1416.41418     685.6352     482.5287
   1416.39893     685.6528     482.5018   1416.39893     685.6528     482.5018
   1416.38367     683.8263     482.0002   1416.38367     683.8263     482.0002
   1416.36841     684.8460     481.8092   1416.36841     684.8460     481.8092
   1416.35315     684.2515     482.2357   1416.35315     684.2515     482.2357
   1416.33789     684.0294     481.8228   1416.33789     684.0294     481.8228
   1416.32263     683.8174     481.9026   1416.32263     683.8174     481.9026
   1416.30737     683.1024     480.7620   1416.30737     683.1024     480.7620
   1416.29211     683.2631     481.0247   1416.29211     683.2631     481.0247
   1416.27686     683.2016     480.7116   1416.27686     683.2016     480.7116
   1416.26160     682.4045     481.6463   1416.26160     682.4045     481.6463
   1416.24634     682.9968     480.8073   1416.24634     682.9968     480.8073
   1416.23108     682.8271     480.4361   1416.23108     682.8271     480.4361
   1416.21582     685.4345     479.8394   1416.21582     685.4345     479.8394
   1416.20056     680.5909     480.0666   1416.20056     680.5909     480.0666
   1416.18530     680.9844     479.4707   1416.18530     680.9844     479.4707
   1416.17004     681.2120     479.2081   1416.17004     681.2120     479.2081
   1416.15479     679.5827     479.0558   1416.15479     679.5827     479.0558
   1416.13953     679.8871     477.7607   1416.13953     679.8871     477.7607
   1416.12427     679.8302     477.6512   1416.12427     679.8302     477.6512
   1416.10901     679.3806     477.0041   1416.10901     679.3806     477.0041
   1416.09375     678.6961     477.6780   1416.09375     678.6961     477.6780
   1416.07849     677.8325     476.8267   1416.07849     677.8325     476.8267
   1416.06323     678.1249     476.5837   1416.06323     678.1249     476.5837
   1416.04797     677.6443     476.3418   1416.04797     677.6443     476.3418
   1416.03271     677.0545     476.4258   1416.03271     677.0545     476.4258
   1416.01746     677.3265     475.3675   1416.01746     677.3265     475.3675
   1416.00220     675.9836     475.3848   1416.00220     675.9836     475.3848
   1415.98694     675.9774     474.2217   1415.98694     675.9774     474.2217
   1415.97168     673.8801     473.9780   1415.97168     673.8801     473.9780
   1415.95642     674.5737     472.5565   1415.95642     674.5737     472.5565
   1415.94116     673.7454     472.1432   1415.94116     673.7454     472.1432
   1415.92590     672.7238     472.4907   1415.92590     672.7238     472.4907
   1415.91064     673.1122     471.7017   1415.91064     673.1122     471.7017
   1415.89539     671.0458     470.6487   1415.89539     671.0458     470.6487
   1415.88013     670.9702     470.1439   1415.88013     670.9702     470.1439
   1415.86487     671.8525     470.5515   1415.86487     671.8525     470.5515
   1415.84961     671.6523     469.3079   1415.84961     671.6523     469.3079
   1415.83435     672.9636     469.2213   1415.83435     672.9636     469.2213
   1415.81909     668.8122     467.8248   1415.81909     668.8122     467.8248
   1415.80383     668.5100     467.2261   1415.80383     668.5100     467.2261
   1415.78857     668.0024     466.4850   1415.78857     668.0024     466.4850
   1415.77332     667.9219     465.8283   1415.77332     667.9219     465.8283
   1415.75806     665.6000     465.4366   1415.75806     665.6000     465.4366
   1415.74280     666.6368     464.7773   1415.74280     666.6368     464.7773
   1415.72754     664.8505     464.4893   1415.72754     664.8505     464.4893
   1415.71228     664.7292     463.6257   1415.71228     664.7292     463.6257
   1415.69702     663.9020     463.4688   1415.69702     663.9020     463.4688
   1415.68176     663.5079     462.4706   1415.68176     663.5079     462.4706
   1415.66650     663.8823     461.7167   1415.66650     663.8823     461.7167
   1415.65125     662.7671     460.6104   1415.65125     662.7671     460.6104
   1415.63599     660.8587     460.4129   1415.63599     660.8587     460.4129
   1415.62073     659.9999     460.1885   1415.62073     659.9999     460.1885
   1415.60547     659.3439     458.1884   1415.60547     659.3439     458.1884
   1415.59021     659.3724     457.9851   1415.59021     659.3724     457.9851
   1415.57495     658.4235     457.5988   1415.57495     658.4235     457.5988
   1415.55969     657.3278     456.5596   1415.55969     657.3278     456.5596
   1415.54443     655.4503     455.9233   1415.54443     655.4503     455.9233
   1415.52917     655.7455     455.5092   1415.52917     655.7455     455.5092
   1415.51392     654.6870     454.8349   1415.51392     654.6870     454.8349
   1415.49866     653.6889     453.3402   1415.49866     653.6889     453.3402
   1415.48340     652.9990     453.5262   1415.48340     652.9990     453.5262
   1415.46814     651.7714     451.6082   1415.46814     651.7714     451.6082
   1415.45288     655.7953     451.6932   1415.45288     655.7953     451.6932
   1415.43762     650.6486     450.8109   1415.43762     650.6486     450.8109
   1415.42236     650.1136     449.4132   1415.42236     650.1136     449.4132
   1415.40710     648.8401     449.5364   1415.40710     648.8401     449.5364
   1415.39185     648.6016     448.6862   1415.39185     648.6016     448.6862
   1415.37659     647.4797     447.6785   1415.37659     647.4797     447.6785
   1415.36133     645.1277     446.4086   1415.36133     645.1277     446.4086
   1415.34607     644.4561     445.8572   1415.34607     644.4561     445.8572
   1415.33081     644.3640     445.6227   1415.33081     644.3640     445.6227
   1415.31555     643.6407     444.2879   1415.31555     643.6407     444.2879
   1415.30029     640.7423     443.5819   1415.30029     640.7423     443.5819
   1415.28503     641.0692     442.6458   1415.28503     641.0692     442.6458
   1415.26978     639.4312     441.8860   1415.26978     639.4312     441.8860
   1415.25452     637.6832     441.4135   1415.25452     637.6832     441.4135
   1415.23926     638.1671     440.2154   1415.23926     638.1671     440.2154
   1415.22400     636.4663     438.5112   1415.22400     636.4663     438.5112
   1415.20874     634.6146     437.6010   1415.20874     634.6146     437.6010
   1415.19348     633.4824     436.8854   1415.19348     633.4824     436.8854
   1415.17822     632.6801     436.5759   1415.17822     632.6801     436.5759
   1415.16296     632.1584     435.0971   1415.16296     632.1584     435.0971
   1415.14771     630.9013     434.8161   1415.14771     630.9013     434.8161
   1415.13245     628.5525     433.9331   1415.13245     628.5525     433.9331
   1415.11719     627.7495     432.7791   1415.11719     627.7495     432.7791
   1415.10193     626.4865     431.9759   1415.10193     626.4865     431.9759
   1415.08667     625.7564     430.7737   1415.08667     625.7564     430.7737
   1415.07141     625.4303     430.1108   1415.07141     625.4303     430.1108
   1415.05615     623.5745     428.8364   1415.05615     623.5745     428.8364
   1415.04089     622.5256     428.2285   1415.04089     622.5256     428.2285
   1415.02563     620.8879     427.7050   1415.02563     620.8879     427.7050
   1415.01038     618.6714     426.5692   1415.01038     618.6714     426.5692
   1414.99512     618.3767     425.1609   1414.99512     618.3767     425.1609
   1414.97986     616.8692     424.6447   1414.97986     616.8692     424.6447
   1414.96460     615.0405     423.1091   1414.96460     615.0405     423.1091
   1414.94934     613.8904     422.4106   1414.94934     613.8904     422.4106
   1414.93408     613.2947     421.8318   1414.93408     613.2947     421.8318
   1414.91882     610.3178     419.9319   1414.91882     610.3178     419.9319
   1414.90356     610.5856     419.5482   1414.90356     610.5856     419.5482
   1414.88831     608.2067     417.8227   1414.88831     608.2067     417.8227
   1414.87305     607.1196     417.1304   1414.87305     607.1196     417.1304
   1414.85779     604.7864     415.6604   1414.85779     604.7864     415.6604
   1414.84253     603.8204     415.4707   1414.84253     603.8204     415.4707
   1414.82727     602.0226     414.2948   1414.82727     602.0226     414.2948
   1414.81201     600.4290     412.6781   1414.81201     600.4290     412.6781
   1414.79675     599.2236     411.7907   1414.79675     599.2236     411.7907
   1414.78149     596.7924     410.4799   1414.78149     596.7924     410.4799
   1414.76624     596.1746     409.8591   1414.76624     596.1746     409.8591
   1414.75098     593.7258     408.9051   1414.75098     593.7258     408.9051
   1414.73572     592.8575     406.7155   1414.73572     592.8575     406.7155
   1414.72046     591.2614     406.6181   1414.72046     591.2614     406.6181
   1414.70520     589.8058     405.3486   1414.70520     589.8058     405.3486
   1414.68994     588.6162     403.8628   1414.68994     588.6162     403.8628
   1414.67468     587.3106     403.1477   1414.67468     587.3106     403.1477
   1414.65942     584.3597     401.2565   1414.65942     584.3597     401.2565
   1414.64417     582.9238     400.3495   1414.64417     582.9238     400.3495
   1414.62891     580.9399     399.4866   1414.62891     580.9399     399.4866
   1414.61365     579.6866     398.2982   1414.61365     579.6866     398.2982
   1414.59839     577.6005     397.3939   1414.59839     577.6005     397.3939
   1414.58313     575.9484     395.7126   1414.58313     575.9484     395.7126
   1414.56787     572.9034     394.2776   1414.56787     572.9034     394.2776
   1414.55261     572.1245     393.2450   1414.55261     572.1245     393.2450
   1414.53735     570.2289     391.6888   1414.53735     570.2289     391.6888
   1414.52209     568.2549     390.9919   1414.52209     568.2549     390.9919
   1414.50684     566.0477     389.6120   1414.50684     566.0477     389.6120
   1414.49158     564.7903     388.4001   1414.49158     564.7903     388.4001
   1414.47632     562.0450     386.4617   1414.47632     562.0450     386.4617
   1414.46106     560.2953     385.4090   1414.46106     560.2953     385.4090
   1414.44580     558.5384     384.2520   1414.44580     558.5384     384.2520
   1414.43054     556.1632     382.6371   1414.43054     556.1632     382.6371
   1414.41528     554.6717     381.5476   1414.41528     554.6717     381.5476
   1414.40002     553.0872     380.4891   1414.40002     553.0872     380.4891
   1414.38477     550.7544     379.1478   1414.38477     550.7544     379.1478
   1414.36951     548.3874     377.7919   1414.36951     548.3874     377.7919
   1414.35425     546.8055     376.9529   1414.35425     546.8055     376.9529
   1414.33899     543.5135     375.1094   1414.33899     543.5135     375.1094
   1414.32373     542.8161     373.2733   1414.32373     542.8161     373.2733
   1414.30847     541.5890     372.5722   1414.30847     541.5890     372.5722
   1414.29321     538.0143     371.0769   1414.29321     538.0143     371.0769
   1414.27795     536.4069     369.3391   1414.27795     536.4069     369.3391
   1414.26270     533.6976     368.6434   1414.26270     533.6976     368.6434
   1414.24744     531.7092     367.2425   1414.24744     531.7092     367.2425
   1414.23218     529.2390     365.3235   1414.23218     529.2390     365.3235
   1414.21692     527.2632     363.8083   1414.21692     527.2632     363.8083
   1414.20166     525.6517     363.0128   1414.20166     525.6517     363.0128
   1414.18640     523.2445     361.4473   1414.18640     523.2445     361.4473
   1414.17114     520.8113     359.5315   1414.17114     520.8113     359.5315
   1414.15588     519.8469     358.8193   1414.15588     519.8469     358.8193
   1414.14062     516.1702     356.9234   1414.14062     516.1702     356.9234
   1414.12537     513.9952     356.1338   1414.12537     513.9952     356.1338
   1414.11011     511.9951     354.3867   1414.11011     511.9951     354.3867
   1414.09485     509.1008     352.9736   1414.09485     509.1008     352.9736
   1414.07959     506.5633     351.5554   1414.07959     506.5633     351.5554
   1414.06433     505.4025     349.1345   1414.06433     505.4025     349.1345
   1414.04907     502.4750     348.5795   1414.04907     502.4750     348.5795
   1414.03381     500.8886     346.8865   1414.03381     500.8886     346.8865
   1414.01855     498.7105     345.7145   1414.01855     498.7105     345.7145
   1414.00330     524.4528     352.9305   1414.00330     524.4528     352.9305
   1413.98804     495.0440     342.9353   1413.98804     495.0440     342.9353
   1413.97278     491.8367     341.1452   1413.97278     491.8367     341.1452
   1413.95752     488.7275     339.2225   1413.95752     488.7275     339.2225
   1413.94226     486.1144     338.0099   1413.94226     486.1144     338.0099
   1413.92700     483.6028     336.4688   1413.92700     483.6028     336.4688
   1413.91174     481.7995     334.9692   1413.91174     481.7995     334.9692
   1413.89648     478.7353     333.5026   1413.89648     478.7353     333.5026
   1413.88123     476.9989     332.3143   1413.88123     476.9989     332.3143
   1413.86597     474.2390     330.3986   1413.86597     474.2390     330.3986
   1413.85071     471.8559     329.5105   1413.85071     471.8559     329.5105
   1413.83545     469.3935     327.2137   1413.83545     469.3935     327.2137
   1413.82019     466.6212     326.4088   1413.82019     466.6212     326.4088
   1413.80493     463.9850     325.0298   1413.80493     463.9850     325.0298
   1413.78967     461.8195     323.0796   1413.78967     461.8195     323.0796
   1413.77441     459.8457     321.8304   1413.77441     459.8457     321.8304
   1413.75916     456.8975     320.1800   1413.75916     456.8975     320.1800
   1413.74390     455.1734     318.9720   1413.74390     455.1734     318.9720
   1413.72864     453.0291     316.8511   1413.72864     453.0291     316.8511
   1413.71338     449.5406     315.8441   1413.71338     449.5406     315.8441
   1413.69812     447.7079     314.5453   1413.69812     447.7079     314.5453
   1413.68286     444.7297     312.8449   1413.68286     444.7297     312.8449
   1413.66760     443.0290     311.4722   1413.66760     443.0290     311.4722
   1413.65234     440.9823     309.5929   1413.65234     440.9823     309.5929
   1413.63708     438.2618     308.1517   1413.63708     438.2618     308.1517
   1413.62183     435.6049     306.8674   1413.62183     435.6049     306.8674
   1413.60657     433.2294     304.9082   1413.60657     433.2294     304.9082
   1413.59131     430.6780     303.7200   1413.59131     430.6780     303.7200
   1413.57605     428.6024     302.6650   1413.57605     428.6024     302.6650
   1413.56079     426.0159     300.9423   1413.56079     426.0159     300.9423
   1413.54553     423.9727     299.4682   1413.54553     423.9727     299.4682
   1413.53027     421.7687     298.2540   1413.53027     421.7687     298.2540
   1413.51501     418.2949     296.9239   1413.51501     418.2949     296.9239
   1413.49976     416.7538     294.9985   1413.49976     416.7538     294.9985
   1413.48450     414.7799     294.0454   1413.48450     414.7799     294.0454
   1413.46924     411.7025     292.6020   1413.46924     411.7025     292.6020
   1413.45398     410.0628     290.7141   1413.45398     410.0628     290.7141
   1413.43872     407.0482     289.6552   1413.43872     407.0482     289.6552
   1413.42346     404.9683     288.2422   1413.42346     404.9683     288.2422
   1413.40820     402.0459     287.3721   1413.40820     402.0459     287.3721
   1413.39294     400.7323     285.2488   1413.39294     400.7323     285.2488
   1413.37769     397.9873     284.6298   1413.37769     397.9873     284.6298
   1413.36243     396.1546     282.8175   1413.36243     396.1546     282.8175
   1413.34717     393.6163     281.2969   1413.34717     393.6163     281.2969
   1413.33191     391.2559     280.4407   1413.33191     391.2559     280.4407
   1413.31665     389.2919     278.7611   1413.31665     389.2919     278.7611
   1413.30139     386.9568     277.7141   1413.30139     386.9568     277.7141
   1413.28613     384.6678     275.8821   1413.28613     384.6678     275.8821
   1413.27087     382.6790     274.7813   1413.27087     382.6790     274.7813
   1413.25562     380.1282     274.2473   1413.25562     380.1282     274.2473
   1413.24036     378.1562     272.6855   1413.24036     378.1562     272.6855
   1413.22510     376.1836     271.2993   1413.22510     376.1836     271.2993
   1413.20984     374.9430     270.5053   1413.20984     374.9430     270.5053
   1413.19458     372.2859     269.5203   1413.19458     372.2859     269.5203
   1413.17932     370.0109     268.0838   1413.17932     370.0109     268.0838
   1413.16406     367.9913     266.6617   1413.16406     367.9913     266.6617
   1413.14880     366.3873     265.9101   1413.14880     366.3873     265.9101
   1413.13354     364.3774     264.7314   1413.13354     364.3774     264.7314
   1413.11829     361.4145     263.5426   1413.11829     361.4145     263.5426
   1413.10303     360.4037     262.5243   1413.10303     360.4037     262.5243
   1413.08777     358.4833     261.6707   1413.08777     358.4833     261.6707
   1413.07251     355.9663     260.0313   1413.07251     355.9663     260.0313
   1413.05725     354.6219     259.3788   1413.05725     354.6219     259.3788
   1413.04199     353.0839     258.4143   1413.04199     353.0839     258.4143
   1413.02673     350.6980     257.5242   1413.02673     350.6980     257.5242
   1413.01147     349.3631     256.7074   1413.01147     349.3631     256.7074
   1412.99622     347.1835     255.8789   1412.99622     347.1835     255.8789
   1412.98096     345.7667     254.9968   1412.98096     345.7667     254.9968
   1412.96570     343.9837     253.8998   1412.96570     343.9837     253.8998
   1412.95044     342.1231     253.1744   1412.95044     342.1231     253.1744
   1412.93518     340.8565     252.2110   1412.93518     340.8565     252.2110
   1412.91992     339.4323     251.8607   1412.91992     339.4323     251.8607
   1412.90466     337.9183     251.1294   1412.90466     337.9183     251.1294
   1412.88940     336.5143     250.4016   1412.88940     336.5143     250.4016
   1412.87415     334.7557     249.4930   1412.87415     334.7557     249.4930
   1412.85889     333.3906     248.3594   1412.85889     333.3906     248.3594
   1412.84363     332.1053     247.9511   1412.84363     332.1053     247.9511
   1412.82837     330.9413     247.5054   1412.82837     330.9413     247.5054
   1412.81311     329.6082     246.8811   1412.81311     329.6082     246.8811
   1412.79785     328.5263     246.2726   1412.79785     328.5263     246.2726
   1412.78259     326.7084     246.2037   1412.78259     326.7084     246.2037
   1412.76733     325.8188     245.1393   1412.76733     325.8188     245.1393
   1412.75208     324.6933     245.3347   1412.75208     324.6933     245.3347
   1412.73682     323.0832     244.7958   1412.73682     323.0832     244.7958
   1412.72156     322.5246     244.0154   1412.72156     322.5246     244.0154
   1412.70630     320.9430     244.1368   1412.70630     320.9430     244.1368
   1412.69104     320.5724     243.3880   1412.69104     320.5724     243.3880
   1412.67578     319.2614     243.2652   1412.67578     319.2614     243.2652
   1412.66052     318.7159     243.0301   1412.66052     318.7159     243.0301
   1412.64526     317.5342     243.1243   1412.64526     317.5342     243.1243
   1412.63000     316.4796     242.3724   1412.63000     316.4796     242.3724
   1412.61475     316.1555     242.4198   1412.61475     316.1555     242.4198
   1412.59949     314.6420     242.3458   1412.59949     314.6420     242.3458
   1412.58423     314.4891     242.1604   1412.58423     314.4891     242.1604
   1412.56897     313.6200     242.7063   1412.56897     313.6200     242.7063
   1412.55371     312.7027     242.2212   1412.55371     312.7027     242.2212
   1412.53845     312.2890     242.4437   1412.53845     312.2890     242.4437
   1412.52319     311.5829     242.3176   1412.52319     311.5829     242.3176
   1412.50793     311.5452     242.5566   1412.50793     311.5452     242.5566
   1412.49268     310.8179     242.5194   1412.49268     310.8179     242.5194
   1412.47742     310.3973     242.5571   1412.47742     310.3973     242.5571
   1412.46216     310.1969     242.5536   1412.46216     310.1969     242.5536
   1412.44690     309.9429     243.2255   1412.44690     309.9429     243.2255
   1412.43164     309.6714     243.4162   1412.43164     309.6714     243.4162
   1412.41638     308.9570     243.7285   1412.41638     308.9570     243.7285
   1412.40112     308.8924     244.2455   1412.40112     308.8924     244.2455
   1412.38586     309.0702     244.9619   1412.38586     309.0702     244.9619
   1412.37061     308.9931     245.0308   1412.37061     308.9931     245.0308
   1412.35535     308.6197     245.7928   1412.35535     308.6197     245.7928
   1412.34009     309.2647     246.3826   1412.34009     309.2647     246.3826
   1412.32483     308.8643     245.9535   1412.32483     308.8643     245.9535
   1412.30957     309.5756     246.5605   1412.30957     309.5756     246.5605
   1412.29431     309.9184     247.3819   1412.29431     309.9184     247.3819
   1412.27905     309.6585     248.0948   1412.27905     309.6585     248.0948
   1412.26379     309.9861     249.3170   1412.26379     309.9861     249.3170
   1412.24854     310.6931     249.6809   1412.24854     310.6931     249.6809
   1412.23328     310.3825     250.3685   1412.23328     310.3825     250.3685
   1412.21802     311.1917     251.5285   1412.21802     311.1917     251.5285
   1412.20276     311.9802     252.4620   1412.20276     311.9802     252.4620