#     FILENAME=!Skynet_57528_lach-hhg-126_20420_20950.cyb.fits
#     BASENAME=Skynet_57528_lach-hhg-126_20420_20950
#     SRC_NAME=lach-hhg-126
#     OBSERVER=hhgmadison16_9500
#     DATE_OBS=2016-05-20T16:49:33.180
#        OBSID=20420
#      SCANNUM=20950
#          MJD=57528.7021
#          UTC=60662
#     SCANTYPE=track
#     DATAMODE=HIRES
#     TUNEFREQ=1420.0000
# Actual_FREQ1=1420.0000
# Actual_FREQ2=1420.0000
#    LO1Tuning=6870.000
#     RFFILTER=1355_1435
#        OBSBW=-15.6250
#        NCHAN=1024 
#        FOCUS=37.0709
#           RA=01:18:25.00
#          DEC=62:42:43.84
#      RA(hrs)=1.306900
#     DEC(deg)=62.712200
#    AZIM(deg)=331.763
#    ELEV(deg)=59.025
#     IFattens=10.00, 10.00
#      WARNING=None
#    TCAL_XL1=7.9635
#    TCAL_YR1=9.1340
#    TCAL_XL2=7.9635
#    TCAL_YR2=9.1340
#     TRX_XL1=11.7060
#     TRX_YR1=11.7060
#     TRX_XL2=11.7060
#     TRX_YR2=11.7060
#        TAVE=1.0000
#Freq1(MHz)          XL1          YR1  Freq2(MHz)          XL2          YR2 

   1427.81250     295.2289     281.2178   1427.81250     295.2289     281.2178
   1427.79724     295.0651     282.1398   1427.79724     295.0651     282.1398
   1427.78198     295.9051     282.2389   1427.78198     295.9051     282.2389
   1427.76672     296.5181     283.4221   1427.76672     296.5181     283.4221
   1427.75146     296.7097     285.0962   1427.75146     296.7097     285.0962
   1427.73621     297.7982     285.2534   1427.73621     297.7982     285.2534
   1427.72095     298.5879     286.5145   1427.72095     298.5879     286.5145
   1427.70569     299.2930     287.5742   1427.70569     299.2930     287.5742
   1427.69043     299.9322     289.0218   1427.69043     299.9322     289.0218
   1427.67517     301.1725     289.2222   1427.67517     301.1725     289.2222
   1427.65991     301.8889     291.0706   1427.65991     301.8889     291.0706
   1427.64465     302.9908     292.3501   1427.64465     302.9908     292.3501
   1427.62939     303.8056     293.5057   1427.62939     303.8056     293.5057
   1427.61414     305.3420     294.8059   1427.61414     305.3420     294.8059
   1427.59888     305.9695     296.4174   1427.59888     305.9695     296.4174
   1427.58362     307.3516     297.3549   1427.58362     307.3516     297.3549
   1427.56836     308.1578     298.5468   1427.56836     308.1578     298.5468
   1427.55310     309.6929     300.5332   1427.55310     309.6929     300.5332
   1427.53784     311.0701     301.0778   1427.53784     311.0701     301.0778
   1427.52258     312.3273     303.7621   1427.52258     312.3273     303.7621
   1427.50732     313.1141     305.1830   1427.50732     313.1141     305.1830
   1427.49207     314.9811     306.6485   1427.49207     314.9811     306.6485
   1427.47681     315.8554     308.3755   1427.47681     315.8554     308.3755
   1427.46155     317.8309     310.1797   1427.46155     317.8309     310.1797
   1427.44629     318.7517     311.5622   1427.44629     318.7517     311.5622
   1427.43103     320.3062     313.5772   1427.43103     320.3062     313.5772
   1427.41577     321.7303     314.5096   1427.41577     321.7303     314.5096
   1427.40051     323.2838     316.6772   1427.40051     323.2838     316.6772
   1427.38525     325.1884     318.8536   1427.38525     325.1884     318.8536
   1427.37000     326.4753     320.1010   1427.37000     326.4753     320.1010
   1427.35474     328.5341     322.2538   1427.35474     328.5341     322.2538
   1427.33948     330.3292     324.0509   1427.33948     330.3292     324.0509
   1427.32422     331.8568     326.0278   1427.32422     331.8568     326.0278
   1427.30896     334.1908     327.8215   1427.30896     334.1908     327.8215
   1427.29370     335.3075     329.6055   1427.29370     335.3075     329.6055
   1427.27844     337.6046     332.2598   1427.27844     337.6046     332.2598
   1427.26318     339.3407     334.2848   1427.26318     339.3407     334.2848
   1427.24792     341.3464     336.6678   1427.24792     341.3464     336.6678
   1427.23267     343.5405     338.2433   1427.23267     343.5405     338.2433
   1427.21741     345.2122     340.6127   1427.21741     345.2122     340.6127
   1427.20215     346.7509     342.1826   1427.20215     346.7509     342.1826
   1427.18689     349.1711     344.8589   1427.18689     349.1711     344.8589
   1427.17163     351.1556     347.0667   1427.17163     351.1556     347.0667
   1427.15637     353.1757     349.2344   1427.15637     353.1757     349.2344
   1427.14111     355.0859     351.6626   1427.14111     355.0859     351.6626
   1427.12585     357.4973     353.5909   1427.12585     357.4973     353.5909
   1427.11060     360.0812     356.2504   1427.11060     360.0812     356.2504
   1427.09534     361.8539     358.0712   1427.09534     361.8539     358.0712
   1427.08008     364.0641     360.9124   1427.08008     364.0641     360.9124
   1427.06482     366.6268     363.5230   1427.06482     366.6268     363.5230
   1427.04956     368.5529     365.4846   1427.04956     368.5529     365.4846
   1427.03430     370.6108     367.7569   1427.03430     370.6108     367.7569
   1427.01904     372.6878     370.1187   1427.01904     372.6878     370.1187
   1427.00378     375.5933     373.1147   1427.00378     375.5933     373.1147
   1426.98853     378.1483     375.3491   1426.98853     378.1483     375.3491
   1426.97327     379.6389     377.5153   1426.97327     379.6389     377.5153
   1426.95801     382.5677     379.4385   1426.95801     382.5677     379.4385
   1426.94275     384.2935     382.0235   1426.94275     384.2935     382.0235
   1426.92749     387.7056     384.3827   1426.92749     387.7056     384.3827
   1426.91223     389.2982     387.0815   1426.91223     389.2982     387.0815
   1426.89697     392.1193     390.2699   1426.89697     392.1193     390.2699
   1426.88171     394.1286     392.7348   1426.88171     394.1286     392.7348
   1426.86646     395.9906     395.1028   1426.86646     395.9906     395.1028
   1426.85120     398.9832     397.0580   1426.85120     398.9832     397.0580
   1426.83594     400.6201     399.7582   1426.83594     400.6201     399.7582
   1426.82068     403.9700     402.8019   1426.82068     403.9700     402.8019
   1426.80542     406.5985     405.1521   1426.80542     406.5985     405.1521
   1426.79016     408.1418     407.6368   1426.79016     408.1418     407.6368
   1426.77490     410.8612     409.8995   1426.77490     410.8612     409.8995
   1426.75964     413.9889     412.5060   1426.75964     413.9889     412.5060
   1426.74438     416.0608     415.1958   1426.74438     416.0608     415.1958
   1426.72913     419.1480     418.2944   1426.72913     419.1480     418.2944
   1426.71387     421.4434     420.3672   1426.71387     421.4434     420.3672
   1426.69861     423.4231     423.7049   1426.69861     423.4231     423.7049
   1426.68335     425.8011     425.2245   1426.68335     425.8011     425.2245
   1426.66809     428.9675     428.4078   1426.66809     428.9675     428.4078
   1426.65283     431.2038     430.6661   1426.65283     431.2038     430.6661
   1426.63757     434.3869     432.7476   1426.63757     434.3869     432.7476
   1426.62231     438.6859     438.5255   1426.62231     438.6859     438.5255
   1426.60706     439.4615     438.7071   1426.60706     439.4615     438.7071
   1426.59180     440.8250     440.8455   1426.59180     440.8250     440.8455
   1426.57654     444.7401     443.5990   1426.57654     444.7401     443.5990
   1426.56128     447.4987     445.5042   1426.56128     447.4987     445.5042
   1426.54602     448.5885     448.4492   1426.54602     448.5885     448.4492
   1426.53076     451.6410     451.3172   1426.53076     451.6410     451.3172
   1426.51550     453.8829     454.3036   1426.51550     453.8829     454.3036
   1426.50024     455.9149     456.1618   1426.50024     455.9149     456.1618
   1426.48499     458.0729     458.0692   1426.48499     458.0729     458.0692
   1426.46973     462.2722     460.9645   1426.46973     462.2722     460.9645
   1426.45447     463.8391     463.1831   1426.45447     463.8391     463.1831
   1426.43921     465.9245     466.4973   1426.43921     465.9245     466.4973
   1426.42395     468.6360     468.6525   1426.42395     468.6360     468.6525
   1426.40869     471.0635     471.0660   1426.40869     471.0635     471.0660
   1426.39343     474.0145     473.1221   1426.39343     474.0145     473.1221
   1426.37817     475.8784     476.2387   1426.37817     475.8784     476.2387
   1426.36292     477.9926     478.6046   1426.36292     477.9926     478.6046
   1426.34766     480.5551     480.2306   1426.34766     480.5551     480.2306
   1426.33240     483.1782     483.1196   1426.33240     483.1782     483.1196
   1426.31714     484.7564     484.6262   1426.31714     484.7564     484.6262
   1426.30188     487.7425     487.7881   1426.30188     487.7425     487.7881
   1426.28662     489.1175     490.1261   1426.28662     489.1175     490.1261
   1426.27136     492.0952     492.7860   1426.27136     492.0952     492.7860
   1426.25610     494.3081     494.2512   1426.25610     494.3081     494.2512
   1426.24084     495.9162     496.4799   1426.24084     495.9162     496.4799
   1426.22559     498.5756     500.2826   1426.22559     498.5756     500.2826
   1426.21033     500.9577     501.1414   1426.21033     500.9577     501.1414
   1426.19507     503.6703     503.6066   1426.19507     503.6703     503.6066
   1426.17981     504.8497     505.5566   1426.17981     504.8497     505.5566
   1426.16455     508.1293     508.0804   1426.16455     508.1293     508.0804
   1426.14929     509.5240     509.3413   1426.14929     509.5240     509.3413
   1426.13403     511.8855     512.4133   1426.13403     511.8855     512.4133
   1426.11877     514.1577     514.8295   1426.11877     514.1577     514.8295
   1426.10352     516.9390     517.3978   1426.10352     516.9390     517.3978
   1426.08826     518.1772     520.1102   1426.08826     518.1772     520.1102
   1426.07300     519.6198     521.2662   1426.07300     519.6198     521.2662
   1426.05774     522.0184     524.2963   1426.05774     522.0184     524.2963
   1426.04248     523.8972     525.6376   1426.04248     523.8972     525.6376
   1426.02722     526.6762     527.7642   1426.02722     526.6762     527.7642
   1426.01196     528.8667     529.1870   1426.01196     528.8667     529.1870
   1425.99670     530.3705     531.5919   1425.99670     530.3705     531.5919
   1425.98145     531.5845     533.5741   1425.98145     531.5845     533.5741
   1425.96619     533.9916     535.9662   1425.96619     533.9916     535.9662
   1425.95093     536.6062     537.0946   1425.95093     536.6062     537.0946
   1425.93567     538.2280     539.9310   1425.93567     538.2280     539.9310
   1425.92041     539.7750     541.8759   1425.92041     539.7750     541.8759
   1425.90515     541.2728     543.0435   1425.90515     541.2728     543.0435
   1425.88989     542.7660     544.3114   1425.88989     542.7660     544.3114
   1425.87463     544.8082     547.4891   1425.87463     544.8082     547.4891
   1425.85938     546.7725     548.9116   1425.85938     546.7725     548.9116
   1425.84412     547.3378     551.0638   1425.84412     547.3378     551.0638
   1425.82886     550.7020     553.2465   1425.82886     550.7020     553.2465
   1425.81360     551.5220     554.4371   1425.81360     551.5220     554.4371
   1425.79834     553.7310     556.9361   1425.79834     553.7310     556.9361
   1425.78308     554.5450     558.2048   1425.78308     554.5450     558.2048
   1425.76782     555.8137     559.9215   1425.76782     555.8137     559.9215
   1425.75256     557.8068     561.8521   1425.75256     557.8068     561.8521
   1425.73730     559.0728     563.3912   1425.73730     559.0728     563.3912
   1425.72205     561.1331     564.7992   1425.72205     561.1331     564.7992
   1425.70679     563.0436     566.2654   1425.70679     563.0436     566.2654
   1425.69153     563.9364     567.8247   1425.69153     563.9364     567.8247
   1425.67627     565.3814     569.9752   1425.67627     565.3814     569.9752
   1425.66101     566.4910     571.0781   1425.66101     566.4910     571.0781
   1425.64575     567.9518     573.3094   1425.64575     567.9518     573.3094
   1425.63049     569.0524     574.7724   1425.63049     569.0524     574.7724
   1425.61523     570.4673     575.8988   1425.61523     570.4673     575.8988
   1425.59998     571.4963     577.5686   1425.59998     571.4963     577.5686
   1425.58472     573.9338     579.6409   1425.58472     573.9338     579.6409
   1425.56946     574.0632     580.7161   1425.56946     574.0632     580.7161
   1425.55420     575.3361     582.0873   1425.55420     575.3361     582.0873
   1425.53894     576.7488     583.4186   1425.53894     576.7488     583.4186
   1425.52368     577.3063     584.6771   1425.52368     577.3063     584.6771
   1425.50842     580.4343     586.0115   1425.50842     580.4343     586.0115
   1425.49316     580.7733     587.5195   1425.49316     580.7733     587.5195
   1425.47791     581.2514     589.3152   1425.47791     581.2514     589.3152
   1425.46265     581.6111     590.3652   1425.46265     581.6111     590.3652
   1425.44739     583.9020     591.0127   1425.44739     583.9020     591.0127
   1425.43213     584.2268     593.1682   1425.43213     584.2268     593.1682
   1425.41687     585.1293     595.5049   1425.41687     585.1293     595.5049
   1425.40161     586.4804     595.0396   1425.40161     586.4804     595.0396
   1425.38635     587.2017     597.4890   1425.38635     587.2017     597.4890
   1425.37109     587.7594     597.8714   1425.37109     587.7594     597.8714
   1425.35583     589.1472     598.9495   1425.35583     589.1472     598.9495
   1425.34058     589.9952     600.5092   1425.34058     589.9952     600.5092
   1425.32532     589.6791     600.8365   1425.32532     589.6791     600.8365
   1425.31006     591.7103     602.3158   1425.31006     591.7103     602.3158
   1425.29480     591.9552     604.6400   1425.29480     591.9552     604.6400
   1425.27954     592.6041     604.9777   1425.27954     592.6041     604.9777
   1425.26428     593.3676     606.2855   1425.26428     593.3676     606.2855
   1425.24902     594.9711     606.7172   1425.24902     594.9711     606.7172
   1425.23376     594.9319     608.5265   1425.23376     594.9319     608.5265
   1425.21851     596.0278     609.3974   1425.21851     596.0278     609.3974
   1425.20325     595.9738     610.2127   1425.20325     595.9738     610.2127
   1425.18799     596.8238     610.7177   1425.18799     596.8238     610.7177
   1425.17273     598.1691     612.6017   1425.17273     598.1691     612.6017
   1425.15747     598.0640     612.0749   1425.15747     598.0640     612.0749
   1425.14221     598.9062     613.2352   1425.14221     598.9062     613.2352
   1425.12695     598.8382     614.5591   1425.12695     598.8382     614.5591
   1425.11169     600.2159     615.3698   1425.11169     600.2159     615.3698
   1425.09644     600.1793     616.5626   1425.09644     600.1793     616.5626
   1425.08118     600.4173     617.3718   1425.08118     600.4173     617.3718
   1425.06592     600.2781     618.1975   1425.06592     600.2781     618.1975
   1425.05066     602.3345     619.0797   1425.05066     602.3345     619.0797
   1425.03540     602.8158     620.2373   1425.03540     602.8158     620.2373
   1425.02014     602.0781     620.7089   1425.02014     602.0781     620.7089
   1425.00488     603.0497     621.2501   1425.00488     603.0497     621.2501
   1424.98962     604.2101     622.0755   1424.98962     604.2101     622.0755
   1424.97437     603.9341     622.0403   1424.97437     603.9341     622.0403
   1424.95911     604.3204     622.1213   1424.95911     604.3204     622.1213
   1424.94385     603.5616     623.8732   1424.94385     603.5616     623.8732
   1424.92859     604.6130     623.5577   1424.92859     604.6130     623.5577
   1424.91333     605.3315     624.9811   1424.91333     605.3315     624.9811
   1424.89807     604.1416     626.2198   1424.89807     604.1416     626.2198
   1424.88281     604.3198     626.2222   1424.88281     604.3198     626.2222
   1424.86755     604.7543     626.6547   1424.86755     604.7543     626.6547
   1424.85229     605.3798     627.9008   1424.85229     605.3798     627.9008
   1424.83704     605.0486     628.9179   1424.83704     605.0486     628.9179
   1424.82178     606.3096     628.9910   1424.82178     606.3096     628.9910
   1424.80652     604.9949     629.7188   1424.80652     604.9949     629.7188
   1424.79126     605.4716     629.4781   1424.79126     605.4716     629.4781
   1424.77600     605.7944     629.8956   1424.77600     605.7944     629.8956
   1424.76074     606.1338     631.1174   1424.76074     606.1338     631.1174
   1424.74548     606.1288     631.4655   1424.74548     606.1288     631.4655
   1424.73022     606.4366     631.5281   1424.73022     606.4366     631.5281
   1424.71497     606.6311     632.4945   1424.71497     606.6311     632.4945
   1424.69971     606.6252     632.8826   1424.69971     606.6252     632.8826
   1424.68445     606.6176     632.7285   1424.68445     606.6176     632.7285
   1424.66919     606.0449     633.6990   1424.66919     606.0449     633.6990
   1424.65393     605.6652     633.8416   1424.65393     605.6652     633.8416
   1424.63867     607.1140     634.2842   1424.63867     607.1140     634.2842
   1424.62341     606.0432     633.9984   1424.62341     606.0432     633.9984
   1424.60815     606.6437     634.7128   1424.60815     606.6437     634.7128
   1424.59290     607.1713     635.8498   1424.59290     607.1713     635.8498
   1424.57764     605.5815     635.1088   1424.57764     605.5815     635.1088
   1424.56238     606.0244     635.3345   1424.56238     606.0244     635.3345
   1424.54712     606.4001     636.6353   1424.54712     606.4001     636.6353
   1424.53186     606.1927     637.4706   1424.53186     606.1927     637.4706
   1424.51660     605.1176     637.4389   1424.51660     605.1176     637.4389
   1424.50134     605.0605     636.8030   1424.50134     605.0605     636.8030
   1424.48608     604.7401     637.1998   1424.48608     604.7401     637.1998
   1424.47083     605.6221     638.0455   1424.47083     605.6221     638.0455
   1424.45557     606.5826     636.9691   1424.45557     606.5826     636.9691
   1424.44031     604.6036     638.8484   1424.44031     604.6036     638.8484
   1424.42505     604.9529     637.2564   1424.42505     604.9529     637.2564
   1424.40979     604.7617     638.0187   1424.40979     604.7617     638.0187
   1424.39453     604.7291     638.1616   1424.39453     604.7291     638.1616
   1424.37927     603.8669     637.6769   1424.37927     603.8669     637.6769
   1424.36401     604.9926     637.9305   1424.36401     604.9926     637.9305
   1424.34875     604.3776     638.9485   1424.34875     604.3776     638.9485
   1424.33350     603.5179     639.6199   1424.33350     603.5179     639.6199
   1424.31824     603.5561     638.6935   1424.31824     603.5561     638.6935
   1424.30298     602.9412     638.6813   1424.30298     602.9412     638.6813
   1424.28772     602.1658     639.2858   1424.28772     602.1658     639.2858
   1424.27246     602.8530     638.4764   1424.27246     602.8530     638.4764
   1424.25720     603.5397     638.9649   1424.25720     603.5397     638.9649
   1424.24194     603.1899     638.4297   1424.24194     603.1899     638.4297
   1424.22668     602.4223     638.2673   1424.22668     602.4223     638.2673
   1424.21143     601.4522     638.9894   1424.21143     601.4522     638.9894
   1424.19617     602.0736     639.3167   1424.19617     602.0736     639.3167
   1424.18091     601.1998     637.7919   1424.18091     601.1998     637.7919
   1424.16565     602.0690     637.9804   1424.16565     602.0690     637.9804
   1424.15039     600.5798     637.8835   1424.15039     600.5798     637.8835
   1424.13513     600.8608     638.2196   1424.13513     600.8608     638.2196
   1424.11987     601.1276     638.8971   1424.11987     601.1276     638.8971
   1424.10461     600.7255     638.5692   1424.10461     600.7255     638.5692
   1424.08936     599.4493     638.7369   1424.08936     599.4493     638.7369
   1424.07410     599.8091     638.4433   1424.07410     599.8091     638.4433
   1424.05884     599.7821     637.8987   1424.05884     599.7821     637.8987
   1424.04358     598.7328     636.9729   1424.04358     598.7328     636.9729
   1424.02832     598.7295     638.7516   1424.02832     598.7295     638.7516
   1424.01306     597.5782     638.5731   1424.01306     597.5782     638.5731
   1423.99780     598.7957     637.8318   1423.99780     598.7957     637.8318
   1423.98254     597.7770     637.8217   1423.98254     597.7770     637.8217
   1423.96729     598.5095     636.9431   1423.96729     598.5095     636.9431
   1423.95203     597.9730     637.6823   1423.95203     597.9730     637.6823
   1423.93677     596.7682     636.7134   1423.93677     596.7682     636.7134
   1423.92151     596.9434     636.0841   1423.92151     596.9434     636.0841
   1423.90625     596.4885     636.6740   1423.90625     596.4885     636.6740
   1423.89099     596.6094     636.2591   1423.89099     596.6094     636.2591
   1423.87573     595.0060     636.2531   1423.87573     595.0060     636.2531
   1423.86047     594.5447     636.0342   1423.86047     594.5447     636.0342
   1423.84521     594.6828     634.7419   1423.84521     594.6828     634.7419
   1423.82996     594.6539     634.5504   1423.82996     594.6539     634.5504
   1423.81470     593.7827     634.0903   1423.81470     593.7827     634.0903
   1423.79944     594.7094     634.1548   1423.79944     594.7094     634.1548
   1423.78418     593.6805     634.2672   1423.78418     593.6805     634.2672
   1423.76892     594.0656     633.8054   1423.76892     594.0656     633.8054
   1423.75366     592.5215     633.1808   1423.75366     592.5215     633.1808
   1423.73840     592.6854     633.4719   1423.73840     592.6854     633.4719
   1423.72314     592.8328     633.3052   1423.72314     592.8328     633.3052
   1423.70789     591.9127     631.5418   1423.70789     591.9127     631.5418
   1423.69263     591.9105     632.7048   1423.69263     591.9105     632.7048
   1423.67737     590.9065     630.3936   1423.67737     590.9065     630.3936
   1423.66211     590.7208     631.5770   1423.66211     590.7208     631.5770
   1423.64685     590.0262     630.6659   1423.64685     590.0262     630.6659
   1423.63159     590.6322     630.4297   1423.63159     590.6322     630.4297
   1423.61633     589.2090     629.9437   1423.61633     589.2090     629.9437
   1423.60107     589.6422     630.3868   1423.60107     589.6422     630.3868
   1423.58582     589.3375     629.4932   1423.58582     589.3375     629.4932
   1423.57056     588.6246     628.0736   1423.57056     588.6246     628.0736
   1423.55530     588.4096     629.0928   1423.55530     588.4096     629.0928
   1423.54004     587.9272     628.8174   1423.54004     587.9272     628.8174
   1423.52478     588.2017     626.7274   1423.52478     588.2017     626.7274
   1423.50952     587.9522     626.8192   1423.50952     587.9522     626.8192
   1423.49426     587.4406     627.4557   1423.49426     587.4406     627.4557
   1423.47900     586.6138     626.6411   1423.47900     586.6138     626.6411
   1423.46375     585.4164     626.0890   1423.46375     585.4164     626.0890
   1423.44849     586.8151     625.2452   1423.44849     586.8151     625.2452
   1423.43323     586.1516     623.9929   1423.43323     586.1516     623.9929
   1423.41797     584.9402     624.2188   1423.41797     584.9402     624.2188
   1423.40271     584.8156     623.2610   1423.40271     584.8156     623.2610
   1423.38745     585.0748     623.7522   1423.38745     585.0748     623.7522
   1423.37219     585.2935     623.7506   1423.37219     585.2935     623.7506
   1423.35693     584.8215     622.4392   1423.35693     584.8215     622.4392
   1423.34167     584.2448     621.5020   1423.34167     584.2448     621.5020
   1423.32642     583.7871     621.0302   1423.32642     583.7871     621.0302
   1423.31116     583.2379     620.5768   1423.31116     583.2379     620.5768
   1423.29590     583.7578     620.2204   1423.29590     583.7578     620.2204
   1423.28064     582.2499     619.1644   1423.28064     582.2499     619.1644
   1423.26538     582.7918     618.5411   1423.26538     582.7918     618.5411
   1423.25012     581.5396     618.1577   1423.25012     581.5396     618.1577
   1423.23486     581.0507     618.2222   1423.23486     581.0507     618.2222
   1423.21960     581.8828     617.6038   1423.21960     581.8828     617.6038
   1423.20435     580.2939     616.8067   1423.20435     580.2939     616.8067
   1423.18909     580.5870     616.1581   1423.18909     580.5870     616.1581
   1423.17383     581.2177     616.0781   1423.17383     581.2177     616.0781
   1423.15857     580.7339     615.0313   1423.15857     580.7339     615.0313
   1423.14331     580.0901     614.4138   1423.14331     580.0901     614.4138
   1423.12805     579.8394     613.3521   1423.12805     579.8394     613.3521
   1423.11279     579.2491     612.9091   1423.11279     579.2491     612.9091
   1423.09753     578.4971     612.4617   1423.09753     578.4971     612.4617
   1423.08228     579.0912     610.4663   1423.08228     579.0912     610.4663
   1423.06702     579.0987     610.7762   1423.06702     579.0987     610.7762
   1423.05176     578.7669     609.8573   1423.05176     578.7669     609.8573
   1423.03650     578.0925     610.5515   1423.03650     578.0925     610.5515
   1423.02124     577.2956     609.6212   1423.02124     577.2956     609.6212
   1423.00598     577.8022     608.4484   1423.00598     577.8022     608.4484
   1422.99072     577.7770     607.6424   1422.99072     577.7770     607.6424
   1422.97546     577.1977     606.5547   1422.97546     577.1977     606.5547
   1422.96021     576.6870     606.4931   1422.96021     576.6870     606.4931
   1422.94495     576.1628     604.8077   1422.94495     576.1628     604.8077
   1422.92969     576.7112     604.1392   1422.92969     576.7112     604.1392
   1422.91443     575.4555     603.8954   1422.91443     575.4555     603.8954
   1422.89917     576.0145     602.7734   1422.89917     576.0145     602.7734
   1422.88391     576.2451     602.2290   1422.88391     576.2451     602.2290
   1422.86865     575.2880     600.6306   1422.86865     575.2880     600.6306
   1422.85339     575.5009     601.0532   1422.85339     575.5009     601.0532
   1422.83813     573.8931     600.9070   1422.83813     573.8931     600.9070
   1422.82288     574.2859     599.6423   1422.82288     574.2859     599.6423
   1422.80762     574.7229     598.4662   1422.80762     574.7229     598.4662
   1422.79236     573.6794     598.1396   1422.79236     573.6794     598.1396
   1422.77710     574.5548     598.2754   1422.77710     574.5548     598.2754
   1422.76184     573.6649     596.1172   1422.76184     573.6649     596.1172
   1422.74658     572.7304     595.9698   1422.74658     572.7304     595.9698
   1422.73132     573.7564     594.1158   1422.73132     573.7564     594.1158
   1422.71606     572.5959     593.5818   1422.71606     572.5959     593.5818
   1422.70081     572.7252     593.4028   1422.70081     572.7252     593.4028
   1422.68555     572.3944     592.8879   1422.68555     572.3944     592.8879
   1422.67029     572.5800     592.4901   1422.67029     572.5800     592.4901
   1422.65503     571.4858     590.7229   1422.65503     571.4858     590.7229
   1422.63977     572.5991     589.8210   1422.63977     572.5991     589.8210
   1422.62451     570.7128     589.0764   1422.62451     570.7128     589.0764
   1422.60925     571.7240     588.0923   1422.60925     571.7240     588.0923
   1422.59399     571.0186     587.4581   1422.59399     571.0186     587.4581
   1422.57874     571.4070     587.4028   1422.57874     571.4070     587.4028
   1422.56348     570.5779     586.4255   1422.56348     570.5779     586.4255
   1422.54822     571.8289     585.0895   1422.54822     571.8289     585.0895
   1422.53296     570.4275     584.1663   1422.53296     570.4275     584.1663
   1422.51770     570.6196     583.8094   1422.51770     570.6196     583.8094
   1422.50244     569.5842     583.3159   1422.50244     569.5842     583.3159
   1422.48718     569.4230     582.1589   1422.48718     569.4230     582.1589
   1422.47192     569.5359     581.3380   1422.47192     569.5359     581.3380
   1422.45667     568.6769     579.8591   1422.45667     568.6769     579.8591
   1422.44141     568.9888     579.4138   1422.44141     568.9888     579.4138
   1422.42615     569.3806     578.8395   1422.42615     569.3806     578.8395
   1422.41089     568.7283     577.2737   1422.41089     568.7283     577.2737
   1422.39563     567.7525     576.2633   1422.39563     567.7525     576.2633
   1422.38037     568.4436     575.7129   1422.38037     568.4436     575.7129
   1422.36511     568.5546     573.5565   1422.36511     568.5546     573.5565
   1422.34985     567.8744     573.5162   1422.34985     567.8744     573.5162
   1422.33459     568.4846     572.6116   1422.33459     568.4846     572.6116
   1422.31934     567.8483     572.5820   1422.31934     567.8483     572.5820
   1422.30408     567.0374     570.1632   1422.30408     567.0374     570.1632
   1422.28882     567.1784     570.4044   1422.28882     567.1784     570.4044
   1422.27356     567.8920     569.3331   1422.27356     567.8920     569.3331
   1422.25830     567.3578     567.9056   1422.25830     567.3578     567.9056
   1422.24304     567.7757     568.6001   1422.24304     567.7757     568.6001
   1422.22778     567.0594     567.3165   1422.22778     567.0594     567.3165
   1422.21252     566.4125     565.2224   1422.21252     566.4125     565.2224
   1422.19727     567.7158     564.6401   1422.19727     567.7158     564.6401
   1422.18201     566.3721     563.2573   1422.18201     566.3721     563.2573
   1422.16675     566.7283     562.6915   1422.16675     566.7283     562.6915
   1422.15149     565.9701     561.8366   1422.15149     565.9701     561.8366
   1422.13623     565.8865     560.2851   1422.13623     565.8865     560.2851
   1422.12097     566.0163     560.4974   1422.12097     566.0163     560.4974
   1422.10571     566.1855     558.1514   1422.10571     566.1855     558.1514
   1422.09045     565.3033     557.5032   1422.09045     565.3033     557.5032
   1422.07520     565.9681     557.5925   1422.07520     565.9681     557.5925
   1422.05994     564.6383     555.6602   1422.05994     564.6383     555.6602
   1422.04468     565.9156     555.3289   1422.04468     565.9156     555.3289
   1422.02942     565.4825     554.2726   1422.02942     565.4825     554.2726
   1422.01416     565.1188     553.3157   1422.01416     565.1188     553.3157
   1421.99890     563.6894     551.9163   1421.99890     563.6894     551.9163
   1421.98364     564.9295     551.1736   1421.98364     564.9295     551.1736
   1421.96838     564.4723     550.4297   1421.96838     564.4723     550.4297
   1421.95312     564.1629     549.9398   1421.95312     564.1629     549.9398
   1421.93787     564.0839     547.7872   1421.93787     564.0839     547.7872
   1421.92261     564.0847     547.7585   1421.92261     564.0847     547.7585
   1421.90735     563.6223     547.3232   1421.90735     563.6223     547.3232
   1421.89209     563.2071     545.4313   1421.89209     563.2071     545.4313
   1421.87683     563.5770     544.6547   1421.87683     563.5770     544.6547
   1421.86157     562.7994     543.5992   1421.86157     562.7994     543.5992
   1421.84631     563.8018     542.1700   1421.84631     563.8018     542.1700
   1421.83105     563.3554     541.2784   1421.83105     563.3554     541.2784
   1421.81580     563.0035     539.9310   1421.81580     563.0035     539.9310
   1421.80054     563.7879     539.4011   1421.80054     563.7879     539.4011
   1421.78528     562.6089     537.4634   1421.78528     562.6089     537.4634
   1421.77002     562.6054     535.9937   1421.77002     562.6054     535.9937
   1421.75476     562.5532     536.3182   1421.75476     562.5532     536.3182
   1421.73950     562.5519     534.8907   1421.73950     562.5519     534.8907
   1421.72424     561.3739     533.7763   1421.72424     561.3739     533.7763
   1421.70898     562.2502     533.5886   1421.70898     562.2502     533.5886
   1421.69373     562.3214     531.5855   1421.69373     562.3214     531.5855
   1421.67847     561.7183     531.0099   1421.67847     561.7183     531.0099
   1421.66321     561.0620     529.8341   1421.66321     561.0620     529.8341
   1421.64795     561.5101     529.9050   1421.64795     561.5101     529.9050
   1421.63269     561.8196     528.5629   1421.63269     561.8196     528.5629
   1421.61743     561.3662     527.8618   1421.61743     561.3662     527.8618
   1421.60217     560.5153     525.7817   1421.60217     560.5153     525.7817
   1421.58691     561.7242     525.5351   1421.58691     561.7242     525.5351
   1421.57166     561.1730     524.0526   1421.57166     561.1730     524.0526
   1421.55640     560.5637     524.4321   1421.55640     560.5637     524.4321
   1421.54114     559.7540     523.3458   1421.54114     559.7540     523.3458
   1421.52588     560.8524     521.0497   1421.52588     560.8524     521.0497
   1421.51062     560.2565     521.0231   1421.51062     560.2565     521.0231
   1421.49536     560.4163     520.8170   1421.49536     560.4163     520.8170
   1421.48010     562.0013     519.5958   1421.48010     562.0013     519.5958
   1421.46484     561.1079     518.8878   1421.46484     561.1079     518.8878
   1421.44958     562.3297     517.8596   1421.44958     562.3297     517.8596
   1421.43433     561.3270     517.5940   1421.43433     561.3270     517.5940
   1421.41907     561.6942     517.4243   1421.41907     561.6942     517.4243
   1421.40381     562.2465     515.8820   1421.40381     562.2465     515.8820
   1421.38855     562.5408     514.1554   1421.38855     562.5408     514.1554
   1421.37329     561.4449     513.3939   1421.37329     561.4449     513.3939
   1421.35803     561.0710     512.4345   1421.35803     561.0710     512.4345
   1421.34277     560.2755     511.9167   1421.34277     560.2755     511.9167
   1421.32751     561.0374     510.6688   1421.32751     561.0374     510.6688
   1421.31226     560.8085     509.2466   1421.31226     560.8085     509.2466
   1421.29700     561.0164     507.8430   1421.29700     561.0164     507.8430
   1421.28174     560.5616     506.6259   1421.28174     560.5616     506.6259
   1421.26648     560.8920     506.8990   1421.26648     560.8920     506.8990
   1421.25122     559.8909     505.0021   1421.25122     559.8909     505.0021
   1421.23596     559.9739     504.7474   1421.23596     559.9739     504.7474
   1421.22070     560.4437     503.9652   1421.22070     560.4437     503.9652
   1421.20544     559.3882     502.6198   1421.20544     559.3882     502.6198
   1421.19019     560.2543     501.3561   1421.19019     560.2543     501.3561
   1421.17493     559.1957     501.2784   1421.17493     559.1957     501.2784
   1421.15967     560.2258     500.0143   1421.15967     560.2258     500.0143
   1421.14441     560.5251     499.6255   1421.14441     560.5251     499.6255
   1421.12915     561.4506     500.2332   1421.12915     561.4506     500.2332
   1421.11389     564.6318     502.3220   1421.11389     564.6318     502.3220
   1421.09863     570.7424     505.9145   1421.09863     570.7424     505.9145
   1421.08337     580.0084     513.5928   1421.08337     580.0084     513.5928
   1421.06812     597.0454     525.5923   1421.06812     597.0454     525.5923
   1421.05286     605.9472     534.5037   1421.05286     605.9472     534.5037
   1421.03760     607.9679     534.0834   1421.03760     607.9679     534.0834
   1421.02234     608.3157     534.4102   1421.02234     608.3157     534.4102
   1421.00708     601.0780     526.5725   1421.00708     601.0780     526.5725
   1420.99182     598.9340     524.4624   1420.99182     598.9340     524.4624
   1420.97656     608.1431     530.7486   1420.97656     608.1431     530.7486
   1420.96130     628.4383     547.7570   1420.96130     628.4383     547.7570
   1420.94604     685.4020     595.7510   1420.94604     685.4020     595.7510
   1420.93079     856.0524     741.4134   1420.93079     856.0524     741.4134
   1420.91553     874.4328     753.5292   1420.91553     874.4328     753.5292
   1420.90027     762.6696     658.8102   1420.90027     762.6696     658.8102
   1420.88501     737.9052     636.5496   1420.88501     737.9052     636.5496
   1420.86975     702.3344     606.2858   1420.86975     702.3344     606.2858
   1420.85449     701.5577     603.9152   1420.85449     701.5577     603.9152
   1420.83923     707.9235     609.5251   1420.83923     707.9235     609.5251
   1420.82397     733.6486     631.1689   1420.82397     733.6486     631.1689
   1420.80872     788.2130     675.3489   1420.80872     788.2130     675.3489
   1420.79346     878.3172     749.7612   1420.79346     878.3172     749.7612
   1420.77820    1043.9572     887.4543   1420.77820    1043.9572     887.4543
   1420.76294    1290.0365    1088.7396   1420.76294    1290.0365    1088.7396
   1420.74768    1452.4623    1222.8540   1420.74768    1452.4623    1222.8540
   1420.73242    1539.4642    1294.5861   1420.73242    1539.4642    1294.5861
   1420.71716    1477.5153    1240.6022   1420.71716    1477.5153    1240.6022
   1420.70190    1378.5286    1155.8040   1420.70190    1378.5286    1155.8040
   1420.68665    1419.6876    1185.6107   1420.68665    1419.6876    1185.6107
   1420.67139    1588.1041    1320.4193   1420.67139    1588.1041    1320.4193
   1420.65613    1673.6597    1389.6953   1420.65613    1673.6597    1389.6953
   1420.64087    1459.1316    1210.4089   1420.64087    1459.1316    1210.4089
   1420.62561    1155.1437     961.8269   1420.62561    1155.1437     961.8269
   1420.61035    1000.2546     834.3149   1420.61035    1000.2546     834.3149
   1420.59509     899.2130     749.0430   1420.59509     899.2130     749.0430
   1420.57983     818.4407     682.0262   1420.57983     818.4407     682.0262
   1420.56458     776.2002     647.1555   1420.56458     776.2002     647.1555
   1420.54932     844.4735     700.2130   1420.54932     844.4735     700.2130
   1420.53406    1056.3021     873.5139   1420.53406    1056.3021     873.5139
   1420.51880    1327.6299    1094.4946   1420.51880    1327.6299    1094.4946
   1420.50354    1585.9368    1297.7791   1420.50354    1585.9368    1297.7791
   1420.48828    1484.1735    1213.6642   1420.48828    1484.1735    1213.6642
   1420.47302    1333.3734    1093.5828   1420.47302    1333.3734    1093.5828
   1420.45776    1251.4388    1025.1921   1420.45776    1251.4388    1025.1921
   1420.44250    1264.7886    1033.9142   1420.44250    1264.7886    1033.9142
   1420.42725     954.3084     782.1351   1420.42725     954.3084     782.1351
   1420.41199     745.0010     612.6650   1420.41199     745.0010     612.6650
   1420.39673     633.5182     521.4638   1420.39673     633.5182     521.4638
   1420.38147     591.2509     488.0349   1420.38147     591.2509     488.0349
   1420.36621     574.3016     472.8148   1420.36621     574.3016     472.8148
   1420.35095     564.7104     465.2740   1420.35095     564.7104     465.2740
   1420.33569     560.9648     461.4849   1420.33569     560.9648     461.4849
   1420.32043     558.7906     458.4073   1420.32043     558.7906     458.4073
   1420.30518     556.2036     457.8876   1420.30518     556.2036     457.8876
   1420.28992     555.5460     455.7321   1420.28992     555.5460     455.7321
   1420.27466     553.7188     454.7259   1420.27466     553.7188     454.7259
   1420.25940     553.8285     453.9803   1420.25940     553.8285     453.9803
   1420.24414     553.6966     452.0257   1420.24414     553.6966     452.0257
   1420.22888     553.6245     451.8780   1420.22888     553.6245     451.8780
   1420.21362     553.2217     450.2012   1420.21362     553.2217     450.2012
   1420.19836     552.4916     448.9618   1420.19836     552.4916     448.9618
   1420.18311     551.4766     447.6054   1420.18311     551.4766     447.6054
   1420.16785     550.7124     446.8837   1420.16785     550.7124     446.8837
   1420.15259     549.7643     446.8340   1420.15259     549.7643     446.8340
   1420.13733     549.4026     445.3288   1420.13733     549.4026     445.3288
   1420.12207     548.5712     444.1591   1420.12207     548.5712     444.1591
   1420.10681     549.1509     443.4902   1420.10681     549.1509     443.4902
   1420.09155     548.6057     443.8170   1420.09155     548.6057     443.8170
   1420.07629     547.6920     442.1564   1420.07629     547.6920     442.1564
   1420.06104     547.3715     441.3463   1420.06104     547.3715     441.3463
   1420.04578     547.4333     440.9529   1420.04578     547.4333     440.9529
   1420.03052     546.8378     439.6903   1420.03052     546.8378     439.6903
   1420.01526     547.8522     440.9826   1420.01526     547.8522     440.9826
   1420.00000     548.4185     441.2885   1420.00000     548.4185     441.2885
   1419.98474     548.9847     441.5945   1419.98474     548.9847     441.5945
   1419.96948     549.4879     439.0035   1419.96948     549.4879     439.0035
   1419.95422     546.9050     438.2368   1419.95422     546.9050     438.2368
   1419.93896     546.4901     437.3122   1419.93896     546.4901     437.3122
   1419.92371     547.0472     437.2330   1419.92371     547.0472     437.2330
   1419.90845     547.7468     435.7998   1419.90845     547.7468     435.7998
   1419.89319     547.7663     437.0527   1419.89319     547.7663     437.0527
   1419.87793     546.9312     436.0501   1419.87793     546.9312     436.0501
   1419.86267     546.7701     435.5895   1419.86267     546.7701     435.5895
   1419.84741     546.7665     435.4675   1419.84741     546.7665     435.4675
   1419.83215     546.5892     434.8207   1419.83215     546.5892     434.8207
   1419.81689     547.5544     434.7834   1419.81689     547.5544     434.7834
   1419.80164     547.5731     434.1764   1419.80164     547.5731     434.1764
   1419.78638     547.0413     433.6810   1419.78638     547.0413     433.6810
   1419.77112     547.9218     432.9869   1419.77112     547.9218     432.9869
   1419.75586     547.3026     433.2166   1419.75586     547.3026     433.2166
   1419.74060     546.8947     433.1835   1419.74060     546.8947     433.1835
   1419.72534     547.8105     432.3506   1419.72534     547.8105     432.3506
   1419.71008     548.3606     433.1190   1419.71008     548.3606     433.1190
   1419.69482     548.1368     433.1965   1419.69482     548.1368     433.1965
   1419.67957     547.5886     432.1695   1419.67957     547.5886     432.1695
   1419.66431     547.0746     432.5630   1419.66431     547.0746     432.5630
   1419.64905     548.5815     432.0233   1419.64905     548.5815     432.0233
   1419.63379     547.6432     432.0663   1419.63379     547.6432     432.0663
   1419.61853     547.6353     432.4189   1419.61853     547.6353     432.4189
   1419.60327     548.8826     432.3117   1419.60327     548.8826     432.3117
   1419.58801     550.3417     432.6795   1419.58801     550.3417     432.6795
   1419.57275     549.2525     431.8386   1419.57275     549.2525     431.8386
   1419.55750     548.6738     431.2503   1419.55750     548.6738     431.2503
   1419.54224     549.6663     432.1742   1419.54224     549.6663     432.1742
   1419.52698     549.5441     431.6294   1419.52698     549.5441     431.6294
   1419.51172     549.3577     431.6872   1419.51172     549.3577     431.6872
   1419.49646     549.7182     431.4955   1419.49646     549.7182     431.4955
   1419.48120     549.8301     431.4792   1419.48120     549.8301     431.4792
   1419.46594     550.6966     432.0337   1419.46594     550.6966     432.0337
   1419.45068     550.9670     431.7972   1419.45068     550.9670     431.7972
   1419.43542     550.0085     431.7619   1419.43542     550.0085     431.7619
   1419.42017     551.1796     431.6887   1419.42017     551.1796     431.6887
   1419.40491     551.3273     431.6530   1419.40491     551.3273     431.6530
   1419.38965     551.5310     431.1570   1419.38965     551.5310     431.1570
   1419.37439     551.3715     431.8375   1419.37439     551.3715     431.8375
   1419.35913     551.5902     432.5735   1419.35913     551.5902     432.5735
   1419.34387     551.5956     432.1096   1419.34387     551.5956     432.1096
   1419.32861     551.9841     432.3885   1419.32861     551.9841     432.3885
   1419.31335     552.7359     432.2695   1419.31335     552.7359     432.2695
   1419.29810     552.3584     432.6045   1419.29810     552.3584     432.6045
   1419.28284     553.2551     432.1327   1419.28284     553.2551     432.1327
   1419.26758     553.5991     433.8937   1419.26758     553.5991     433.8937
   1419.25232     554.1171     433.0464   1419.25232     554.1171     433.0464
   1419.23706     553.6895     432.5846   1419.23706     553.6895     432.5846
   1419.22180     555.2459     433.3227   1419.22180     555.2459     433.3227
   1419.20654     554.9969     432.9740   1419.20654     554.9969     432.9740
   1419.19128     554.2771     433.6305   1419.19128     554.2771     433.6305
   1419.17603     555.1054     433.4961   1419.17603     555.1054     433.4961
   1419.16077     555.3907     433.4996   1419.16077     555.3907     433.4996
   1419.14551     555.4539     434.2231   1419.14551     555.4539     434.2231
   1419.13025     555.7125     434.6740   1419.13025     555.7125     434.6740
   1419.11499     556.6401     434.5396   1419.11499     556.6401     434.5396
   1419.09973     555.8924     435.2718   1419.09973     555.8924     435.2718
   1419.08447     557.3558     435.3846   1419.08447     557.3558     435.3846
   1419.06921     555.7560     435.7226   1419.06921     555.7560     435.7226
   1419.05396     558.6680     436.2955   1419.05396     558.6680     436.2955
   1419.03870     557.5566     436.2592   1419.03870     557.5566     436.2592
   1419.02344     558.3494     436.1938   1419.02344     558.3494     436.1938
   1419.00818     558.0732     437.5047   1419.00818     558.0732     437.5047
   1418.99292     558.9017     437.4434   1418.99292     558.9017     437.4434
   1418.97766     559.3204     437.1810   1418.97766     559.3204     437.1810
   1418.96240     559.8539     438.0187   1418.96240     559.8539     438.0187
   1418.94714     560.3677     438.9552   1418.94714     560.3677     438.9552
   1418.93188     560.8389     439.5649   1418.93188     560.8389     439.5649
   1418.91663     561.2653     439.3727   1418.91663     561.2653     439.3727
   1418.90137     561.0659     439.9658   1418.90137     561.0659     439.9658
   1418.88611     562.2365     440.2716   1418.88611     562.2365     440.2716
   1418.87085     562.2180     440.3901   1418.87085     562.2180     440.3901
   1418.85559     563.3662     441.5373   1418.85559     563.3662     441.5373
   1418.84033     563.7955     442.1160   1418.84033     563.7955     442.1160
   1418.82507     563.7262     442.5759   1418.82507     563.7262     442.5759
   1418.80981     564.2808     442.7965   1418.80981     564.2808     442.7965
   1418.79456     563.8416     443.7197   1418.79456     563.8416     443.7197
   1418.77930     563.6962     443.7997   1418.77930     563.6962     443.7997
   1418.76404     565.1517     444.1434   1418.76404     565.1517     444.1434
   1418.74878     565.1383     445.5208   1418.74878     565.1383     445.5208
   1418.73352     565.6691     445.5178   1418.73352     565.6691     445.5178
   1418.71826     566.8814     446.6847   1418.71826     566.8814     446.6847
   1418.70300     568.1170     447.0211   1418.70300     568.1170     447.0211
   1418.68774     567.4981     447.9751   1418.68774     567.4981     447.9751
   1418.67249     568.0713     447.6388   1418.67249     568.0713     447.6388
   1418.65723     568.3745     448.1224   1418.65723     568.3745     448.1224
   1418.64197     569.1500     449.3781   1418.64197     569.1500     449.3781
   1418.62671     568.6248     450.4027   1418.62671     568.6248     450.4027
   1418.61145     569.1171     450.2231   1418.61145     569.1171     450.2231
   1418.59619     571.4030     451.6151   1418.59619     571.4030     451.6151
   1418.58093     571.1666     451.9165   1418.58093     571.1666     451.9165
   1418.56567     572.0345     453.3683   1418.56567     572.0345     453.3683
   1418.55042     572.2863     453.7513   1418.55042     572.2863     453.7513
   1418.53516     572.7741     453.9969   1418.53516     572.7741     453.9969
   1418.51990     573.4887     455.3589   1418.51990     573.4887     455.3589
   1418.50464     573.4349     455.8018   1418.50464     573.4349     455.8018
   1418.48938     574.2901     457.4201   1418.48938     574.2901     457.4201
   1418.47412     575.0839     457.6574   1418.47412     575.0839     457.6574
   1418.45886     575.2355     457.9819   1418.45886     575.2355     457.9819
   1418.44360     575.8803     459.3476   1418.44360     575.8803     459.3476
   1418.42834     576.8916     460.7022   1418.42834     576.8916     460.7022
   1418.41309     577.8178     460.1335   1418.41309     577.8178     460.1335
   1418.39783     577.5956     461.6157   1418.39783     577.5956     461.6157
   1418.38257     578.2717     462.1566   1418.38257     578.2717     462.1566
   1418.36731     578.3739     462.8378   1418.36731     578.3739     462.8378
   1418.35205     579.5280     463.7834   1418.35205     579.5280     463.7834
   1418.33679     580.3760     464.6504   1418.33679     580.3760     464.6504
   1418.32153     581.0145     465.0322   1418.32153     581.0145     465.0322
   1418.30627     580.7478     466.2104   1418.30627     580.7478     466.2104
   1418.29102     581.6359     468.5513   1418.29102     581.6359     468.5513
   1418.27576     582.2949     468.8105   1418.27576     582.2949     468.8105
   1418.26050     582.4489     468.8170   1418.26050     582.4489     468.8170
   1418.24524     582.7423     469.9777   1418.24524     582.7423     469.9777
   1418.22998     584.1809     470.9412   1418.22998     584.1809     470.9412
   1418.21472     584.9131     471.9657   1418.21472     584.9131     471.9657
   1418.19946     585.2162     472.9427   1418.19946     585.2162     472.9427
   1418.18420     586.0935     473.8797   1418.18420     586.0935     473.8797
   1418.16895     586.6807     475.0491   1418.16895     586.6807     475.0491
   1418.15369     587.1778     475.5494   1418.15369     587.1778     475.5494
   1418.13843     586.7067     476.5735   1418.13843     586.7067     476.5735
   1418.12317     588.3597     478.2186   1418.12317     588.3597     478.2186
   1418.10791     588.8730     479.5927   1418.10791     588.8730     479.5927
   1418.09265     589.0961     480.2416   1418.09265     589.0961     480.2416
   1418.07739     590.5106     481.8044   1418.07739     590.5106     481.8044
   1418.06213     591.8688     481.9407   1418.06213     591.8688     481.9407
   1418.04688     591.4419     482.3228   1418.04688     591.4419     482.3228
   1418.03162     592.2812     483.1662   1418.03162     592.2812     483.1662
   1418.01636     593.2896     485.5639   1418.01636     593.2896     485.5639
   1418.00110     593.8917     485.8076   1418.00110     593.8917     485.8076
   1417.98584     594.9662     486.5974   1417.98584     594.9662     486.5974
   1417.97058     595.5402     487.9656   1417.97058     595.5402     487.9656
   1417.95532     595.4965     488.9512   1417.95532     595.4965     488.9512
   1417.94006     597.3351     490.0824   1417.94006     597.3351     490.0824
   1417.92480     597.9063     491.4444   1417.92480     597.9063     491.4444
   1417.90955     598.0597     492.3979   1417.90955     598.0597     492.3979
   1417.89429     599.4048     493.3236   1417.89429     599.4048     493.3236
   1417.87903     600.4941     493.8814   1417.87903     600.4941     493.8814
   1417.86377     600.0282     495.2565   1417.86377     600.0282     495.2565
   1417.84851     600.2635     496.1319   1417.84851     600.2635     496.1319
   1417.83325     601.1970     497.0941   1417.83325     601.1970     497.0941
   1417.81799     602.1674     498.3525   1417.81799     602.1674     498.3525
   1417.80273     602.2570     500.0971   1417.80273     602.2570     500.0971
   1417.78748     604.4147     501.6948   1417.78748     604.4147     501.6948
   1417.77222     604.6195     501.6828   1417.77222     604.6195     501.6828
   1417.75696     604.9361     503.7600   1417.75696     604.9361     503.7600
   1417.74170     606.4206     504.3892   1417.74170     606.4206     504.3892
   1417.72644     606.2597     505.2888   1417.72644     606.2597     505.2888
   1417.71118     606.3823     506.8766   1417.71118     606.3823     506.8766
   1417.69592     607.7229     507.6898   1417.69592     607.7229     507.6898
   1417.68066     608.4698     508.3952   1417.68066     608.4698     508.3952
   1417.66541     609.0632     509.6283   1417.66541     609.0632     509.6283
   1417.65015     610.0695     510.5675   1417.65015     610.0695     510.5675
   1417.63489     610.5718     512.2642   1417.63489     610.5718     512.2642
   1417.61963     611.8742     512.6204   1417.61963     611.8742     512.6204
   1417.60437     611.7899     513.3585   1417.60437     611.7899     513.3585
   1417.58911     611.6262     514.7670   1417.58911     611.6262     514.7670
   1417.57385     612.9485     516.2048   1417.57385     612.9485     516.2048
   1417.55859     614.0378     517.8383   1417.55859     614.0378     517.8383
   1417.54333     615.7089     518.8402   1417.54333     615.7089     518.8402
   1417.52808     615.0378     519.7341   1417.52808     615.0378     519.7341
   1417.51282     616.3519     520.1637   1417.51282     616.3519     520.1637
   1417.49756     617.2543     522.1366   1417.49756     617.2543     522.1366
   1417.48230     618.2158     523.1162   1417.48230     618.2158     523.1162
   1417.46704     619.1929     524.6432   1417.46704     619.1929     524.6432
   1417.45178     618.0558     525.0205   1417.45178     618.0558     525.0205
   1417.43652     619.3368     526.8317   1417.43652     619.3368     526.8317
   1417.42126     620.5596     526.6290   1417.42126     620.5596     526.6290
   1417.40601     620.9348     528.0154   1417.40601     620.9348     528.0154
   1417.39075     621.8727     528.8903   1417.39075     621.8727     528.8903
   1417.37549     621.4340     530.0448   1417.37549     621.4340     530.0448
   1417.36023     622.6423     531.8931   1417.36023     622.6423     531.8931
   1417.34497     622.6535     532.8477   1417.34497     622.6535     532.8477
   1417.32971     624.4393     532.9028   1417.32971     624.4393     532.9028
   1417.31445     625.1337     535.5718   1417.31445     625.1337     535.5718
   1417.29919     625.3542     535.5621   1417.29919     625.3542     535.5621
   1417.28394     624.7538     536.0906   1417.28394     624.7538     536.0906
   1417.26868     626.3942     537.5879   1417.26868     626.3942     537.5879
   1417.25342     626.8823     539.2245   1417.25342     626.8823     539.2245
   1417.23816     628.0109     539.7646   1417.23816     628.0109     539.7646
   1417.22290     628.7487     540.7324   1417.22290     628.7487     540.7324
   1417.20764     629.3747     541.8618   1417.20764     629.3747     541.8618
   1417.19238     629.5833     542.2187   1417.19238     629.5833     542.2187
   1417.17712     629.1511     543.4017   1417.17712     629.1511     543.4017
   1417.16187     630.1045     544.8040   1417.16187     630.1045     544.8040
   1417.14661     630.4020     545.3540   1417.14661     630.4020     545.3540
   1417.13135     631.3466     546.4646   1417.13135     631.3466     546.4646
   1417.11609     632.3844     546.9485   1417.11609     632.3844     546.9485
   1417.10083     632.4286     547.9340   1417.10083     632.4286     547.9340
   1417.08557     632.8811     548.7378   1417.08557     632.8811     548.7378
   1417.07031     633.3420     549.3127   1417.07031     633.3420     549.3127
   1417.05505     633.1987     550.8865   1417.05505     633.1987     550.8865
   1417.03979     633.2796     551.1417   1417.03979     633.2796     551.1417
   1417.02454     636.0703     553.1498   1417.02454     636.0703     553.1498
   1417.00928     636.1088     553.4626   1417.00928     636.1088     553.4626
   1416.99402     636.8185     553.9502   1416.99402     636.8185     553.9502
   1416.97876     636.6894     554.5973   1416.97876     636.6894     554.5973
   1416.96350     636.9615     555.6330   1416.96350     636.9615     555.6330
   1416.94824     637.2579     555.9312   1416.94824     637.2579     555.9312
   1416.93298     638.4501     556.2440   1416.93298     638.4501     556.2440
   1416.91772     637.1335     558.6690   1416.91772     637.1335     558.6690
   1416.90247     639.0540     558.2000   1416.90247     639.0540     558.2000
   1416.88721     639.1055     559.4113   1416.88721     639.1055     559.4113
   1416.87195     639.2496     560.5123   1416.87195     639.2496     560.5123
   1416.85669     640.0018     560.5851   1416.85669     640.0018     560.5851
   1416.84143     640.4731     560.8770   1416.84143     640.4731     560.8770
   1416.82617     641.4298     561.0911   1416.82617     641.4298     561.0911
   1416.81091     641.4050     561.3669   1416.81091     641.4050     561.3669
   1416.79565     641.4005     561.1135   1416.79565     641.4005     561.1135
   1416.78040     641.3482     562.9373   1416.78040     641.3482     562.9373
   1416.76514     642.4531     563.0969   1416.76514     642.4531     563.0969
   1416.74988     643.3004     563.0421   1416.74988     643.3004     563.0421
   1416.73462     643.0235     563.3710   1416.73462     643.0235     563.3710
   1416.71936     643.6309     564.4202   1416.71936     643.6309     564.4202
   1416.70410     642.5499     564.2543   1416.70410     642.5499     564.2543
   1416.68884     642.9594     564.6426   1416.68884     642.9594     564.6426
   1416.67358     643.7439     564.9855   1416.67358     643.7439     564.9855
   1416.65833     644.8265     565.9697   1416.65833     644.8265     565.9697
   1416.64307     644.9035     566.0609   1416.64307     644.9035     566.0609
   1416.62781     644.9127     565.4661   1416.62781     644.9127     565.4661
   1416.61255     644.8242     565.1052   1416.61255     644.8242     565.1052
   1416.59729     645.2089     565.8986   1416.59729     645.2089     565.8986
   1416.58203     645.0114     566.3736   1416.58203     645.0114     566.3736
   1416.56677     644.9290     566.3190   1416.56677     644.9290     566.3190
   1416.55151     645.3929     565.5854   1416.55151     645.3929     565.5854
   1416.53625     645.6856     566.1498   1416.53625     645.6856     566.1498
   1416.52100     644.8116     565.6824   1416.52100     644.8116     565.6824
   1416.50574     645.0343     565.7181   1416.50574     645.0343     565.7181
   1416.49048     645.0037     564.5377   1416.49048     645.0037     564.5377
   1416.47522     645.5605     566.8256   1416.47522     645.5605     566.8256
   1416.45996     644.6127     566.2817   1416.45996     644.6127     566.2817
   1416.44470     646.2319     565.1390   1416.44470     646.2319     565.1390
   1416.42944     645.8450     565.4578   1416.42944     645.8450     565.4578
   1416.41418     645.7271     565.9493   1416.41418     645.7271     565.9493
   1416.39893     644.9687     565.2831   1416.39893     644.9687     565.2831
   1416.38367     646.0760     565.3331   1416.38367     646.0760     565.3331
   1416.36841     645.0876     564.6801   1416.36841     645.0876     564.6801
   1416.35315     644.8236     564.8017   1416.35315     644.8236     564.8017
   1416.33789     645.7038     564.6620   1416.33789     645.7038     564.6620
   1416.32263     644.2148     564.1488   1416.32263     644.2148     564.1488
   1416.30737     645.8915     563.5418   1416.30737     645.8915     563.5418
   1416.29211     644.5292     563.0703   1416.29211     644.5292     563.0703
   1416.27686     644.2820     562.4512   1416.27686     644.2820     562.4512
   1416.26160     645.2642     562.6245   1416.26160     645.2642     562.6245
   1416.24634     643.4060     561.9691   1416.24634     643.4060     561.9691
   1416.23108     644.7986     562.0886   1416.23108     644.7986     562.0886
   1416.21582     645.1245     561.2451   1416.21582     645.1245     561.2451
   1416.20056     643.0711     559.5422   1416.20056     643.0711     559.5422
   1416.18530     644.6296     560.1465   1416.18530     644.6296     560.1465
   1416.17004     644.6238     559.6913   1416.17004     644.6238     559.6913
   1416.15479     644.0037     559.5154   1416.15479     644.0037     559.5154
   1416.13953     643.3085     558.3924   1416.13953     643.3085     558.3924
   1416.12427     642.4326     558.3625   1416.12427     642.4326     558.3625
   1416.10901     642.6171     557.8632   1416.10901     642.6171     557.8632
   1416.09375     642.8692     556.5888   1416.09375     642.8692     556.5888
   1416.07849     642.3808     556.0972   1416.07849     642.3808     556.0972
   1416.06323     641.8159     555.5911   1416.06323     641.8159     555.5911
   1416.04797     641.0549     554.9523   1416.04797     641.0549     554.9523
   1416.03271     641.3008     554.0316   1416.03271     641.3008     554.0316
   1416.01746     641.1368     552.9534   1416.01746     641.1368     552.9534
   1416.00220     639.6215     552.7769   1416.00220     639.6215     552.7769
   1415.98694     639.8034     551.7174   1415.98694     639.8034     551.7174
   1415.97168     639.9349     551.7704   1415.97168     639.9349     551.7704
   1415.95642     639.7653     551.0076   1415.95642     639.7653     551.0076
   1415.94116     639.3011     550.3058   1415.94116     639.3011     550.3058
   1415.92590     637.6650     550.1892   1415.92590     637.6650     550.1892
   1415.91064     638.2627     549.0690   1415.91064     638.2627     549.0690
   1415.89539     638.8669     547.8088   1415.89539     638.8669     547.8088
   1415.88013     637.6721     547.2239   1415.88013     637.6721     547.2239
   1415.86487     637.7013     546.9141   1415.86487     637.7013     546.9141
   1415.84961     638.4787     545.3651   1415.84961     638.4787     545.3651
   1415.83435     637.2246     545.3881   1415.83435     637.2246     545.3881
   1415.81909     635.8268     543.7318   1415.81909     635.8268     543.7318
   1415.80383     635.9105     543.1688   1415.80383     635.9105     543.1688
   1415.78857     634.3474     541.9001   1415.78857     634.3474     541.9001
   1415.77332     633.8425     541.1227   1415.77332     633.8425     541.1227
   1415.75806     633.2841     540.4528   1415.75806     633.2841     540.4528
   1415.74280     633.8658     539.7920   1415.74280     633.8658     539.7920
   1415.72754     632.6101     539.4026   1415.72754     632.6101     539.4026
   1415.71228     632.4921     538.4689   1415.71228     632.4921     538.4689
   1415.69702     632.0657     538.7151   1415.69702     632.0657     538.7151
   1415.68176     630.9120     537.5429   1415.68176     630.9120     537.5429
   1415.66650     631.0462     536.5624   1415.66650     631.0462     536.5624
   1415.65125     630.6129     535.6847   1415.65125     630.6129     535.6847
   1415.63599     629.7888     534.2256   1415.63599     629.7888     534.2256
   1415.62073     629.2422     533.5596   1415.62073     629.2422     533.5596
   1415.60547     628.5857     532.5354   1415.60547     628.5857     532.5354
   1415.59021     627.1395     531.7822   1415.59021     627.1395     531.7822
   1415.57495     628.1674     530.6876   1415.57495     628.1674     530.6876
   1415.55969     626.3850     529.5679   1415.55969     626.3850     529.5679
   1415.54443     626.8680     529.9948   1415.54443     626.8680     529.9948
   1415.52917     625.1948     528.5865   1415.52917     625.1948     528.5865
   1415.51392     625.2235     527.2933   1415.51392     625.2235     527.2933
   1415.49866     624.3054     526.5060   1415.49866     624.3054     526.5060
   1415.48340     623.5485     525.2075   1415.48340     623.5485     525.2075
   1415.46814     621.5317     524.3063   1415.46814     621.5317     524.3063
   1415.45288     621.6665     522.9120   1415.45288     621.6665     522.9120
   1415.43762     620.0493     523.0253   1415.43762     620.0493     523.0253
   1415.42236     620.0246     521.7657   1415.42236     620.0246     521.7657
   1415.40710     619.9837     520.4557   1415.40710     619.9837     520.4557
   1415.39185     618.9255     520.1613   1415.39185     618.9255     520.1613
   1415.37659     617.1494     518.6162   1415.37659     617.1494     518.6162
   1415.36133     617.0323     516.8235   1415.36133     617.0323     516.8235
   1415.34607     616.6721     516.5139   1415.34607     616.6721     516.5139
   1415.33081     615.5977     515.8178   1415.33081     615.5977     515.8178
   1415.31555     613.9757     515.3289   1415.31555     613.9757     515.3289
   1415.30029     613.2100     513.4981   1415.30029     613.2100     513.4981
   1415.28503     612.3964     512.3127   1415.28503     612.3964     512.3127
   1415.26978     611.6823     511.0463   1415.26978     611.6823     511.0463
   1415.25452     610.4998     510.4909   1415.25452     610.4998     510.4909
   1415.23926     609.4423     509.8879   1415.23926     609.4423     509.8879
   1415.22400     609.6793     508.6962   1415.22400     609.6793     508.6962
   1415.20874     608.2455     507.3521   1415.20874     608.2455     507.3521
   1415.19348     607.0534     505.9059   1415.19348     607.0534     505.9059
   1415.17822     605.8151     506.1888   1415.17822     605.8151     506.1888
   1415.16296     604.0040     505.4232   1415.16296     604.0040     505.4232
   1415.14771     603.5643     503.7392   1415.14771     603.5643     503.7392
   1415.13245     602.3294     502.3517   1415.13245     602.3294     502.3517
   1415.11719     600.7520     501.0347   1415.11719     600.7520     501.0347
   1415.10193     600.3002     500.6339   1415.10193     600.3002     500.6339
   1415.08667     598.9886     498.7946   1415.08667     598.9886     498.7946
   1415.07141     598.0723     498.6127   1415.07141     598.0723     498.6127
   1415.05615     596.2574     496.9420   1415.05615     596.2574     496.9420
   1415.04089     595.0901     495.4252   1415.04089     595.0901     495.4252
   1415.02563     594.5754     494.2264   1415.02563     594.5754     494.2264
   1415.01038     593.0380     493.6205   1415.01038     593.0380     493.6205
   1414.99512     591.6838     492.3361   1414.99512     591.6838     492.3361
   1414.97986     590.7706     491.1222   1414.97986     590.7706     491.1222
   1414.96460     589.4805     489.9774   1414.96460     589.4805     489.9774
   1414.94934     589.2801     488.3854   1414.94934     589.2801     488.3854
   1414.93408     587.2218     488.1178   1414.93408     587.2218     488.1178
   1414.91882     584.9709     486.3496   1414.91882     584.9709     486.3496
   1414.90356     585.3215     485.1621   1414.90356     585.3215     485.1621
   1414.88831     582.6208     484.8767   1414.88831     582.6208     484.8767
   1414.87305     581.2872     482.7865   1414.87305     581.2872     482.7865
   1414.85779     579.9499     481.6709   1414.85779     579.9499     481.6709
   1414.84253     578.2762     480.3887   1414.84253     578.2762     480.3887
   1414.82727     576.4542     479.2007   1414.82727     576.4542     479.2007
   1414.81201     575.9202     477.6509   1414.81201     575.9202     477.6509
   1414.79675     574.1985     476.7323   1414.79675     574.1985     476.7323
   1414.78149     572.4374     475.6487   1414.78149     572.4374     475.6487
   1414.76624     571.3937     474.5854   1414.76624     571.3937     474.5854
   1414.75098     569.4979     472.3698   1414.75098     569.4979     472.3698
   1414.73572     568.4166     470.9014   1414.73572     568.4166     470.9014
   1414.72046     566.5531     469.8847   1414.72046     566.5531     469.8847
   1414.70520     564.9494     468.6982   1414.70520     564.9494     468.6982
   1414.68994     563.0566     467.5204   1414.68994     563.0566     467.5204
   1414.67468     561.7769     465.6219   1414.67468     561.7769     465.6219
   1414.65942     560.2142     464.7651   1414.65942     560.2142     464.7651
   1414.64417     558.3556     462.4641   1414.64417     558.3556     462.4641
   1414.62891     557.2071     461.3973   1414.62891     557.2071     461.3973
   1414.61365     555.1783     460.2325   1414.61365     555.1783     460.2325
   1414.59839     554.0956     458.4345   1414.59839     554.0956     458.4345
   1414.58313     551.2597     456.4014   1414.58313     551.2597     456.4014
   1414.56787     548.8674     455.6397   1414.56787     548.8674     455.6397
   1414.55261     547.7956     454.5809   1414.55261     547.7956     454.5809
   1414.53735     546.9011     452.9099   1414.53735     546.9011     452.9099
   1414.52209     545.1492     451.2529   1414.52209     545.1492     451.2529
   1414.50684     542.9026     450.9565   1414.50684     542.9026     450.9565
   1414.49158     540.7455     448.1746   1414.49158     540.7455     448.1746
   1414.47632     537.9834     446.8728   1414.47632     537.9834     446.8728
   1414.46106     537.0580     445.9350   1414.46106     537.0580     445.9350
   1414.44580     534.7777     444.2408   1414.44580     534.7777     444.2408
   1414.43054     533.8748     443.0371   1414.43054     533.8748     443.0371
   1414.41528     531.2659     441.8566   1414.41528     531.2659     441.8566
   1414.40002     531.1450     439.9279   1414.40002     531.1450     439.9279
   1414.38477     526.4805     437.4746   1414.38477     526.4805     437.4746
   1414.36951     524.4462     436.2663   1414.36951     524.4462     436.2663
   1414.35425     522.8582     435.6976   1414.35425     522.8582     435.6976
   1414.33899     521.2673     433.6795   1414.33899     521.2673     433.6795
   1414.32373     519.4520     431.8411   1414.32373     519.4520     431.8411
   1414.30847     518.3956     430.7754   1414.30847     518.3956     430.7754
   1414.29321     514.4448     427.9691   1414.29321     514.4448     427.9691
   1414.27795     512.5780     427.2140   1414.27795     512.5780     427.2140
   1414.26270     511.3350     425.8009   1414.26270     511.3350     425.8009
   1414.24744     508.9659     423.4788   1414.24744     508.9659     423.4788
   1414.23218     507.1080     422.5598   1414.23218     507.1080     422.5598
   1414.21692     505.5287     420.8188   1414.21692     505.5287     420.8188
   1414.20166     503.0287     419.1298   1414.20166     503.0287     419.1298
   1414.18640     500.7808     418.1105   1414.18640     500.7808     418.1105
   1414.17114     497.9203     415.6133   1414.17114     497.9203     415.6133
   1414.15588     496.1766     413.5127   1414.15588     496.1766     413.5127
   1414.14062     493.6467     411.8465   1414.14062     493.6467     411.8465
   1414.12537     491.6490     410.4406   1414.12537     491.6490     410.4406
   1414.11011     489.3671     409.1890   1414.11011     489.3671     409.1890
   1414.09485     486.4683     408.1177   1414.09485     486.4683     408.1177
   1414.07959     486.0356     406.0607   1414.07959     486.0356     406.0607
   1414.06433     483.3349     403.4640   1414.06433     483.3349     403.4640
   1414.04907     480.1036     401.7195   1414.04907     480.1036     401.7195
   1414.03381     478.6998     400.5410   1414.03381     478.6998     400.5410
   1414.01855     477.1113     398.7715   1414.01855     477.1113     398.7715
   1414.00330     499.6148     405.2687   1414.00330     499.6148     405.2687
   1413.98804     473.9079     395.9129   1413.98804     473.9079     395.9129
   1413.97278     469.6916     393.6698   1413.97278     469.6916     393.6698
   1413.95752     466.5993     392.7458   1413.95752     466.5993     392.7458
   1413.94226     464.7469     389.4969   1413.94226     464.7469     389.4969
   1413.92700     462.6477     388.4966   1413.92700     462.6477     388.4966
   1413.91174     460.1053     387.2093   1413.91174     460.1053     387.2093
   1413.89648     457.5638     384.7788   1413.89648     457.5638     384.7788
   1413.88123     455.7489     383.4814   1413.88123     455.7489     383.4814
   1413.86597     453.3142     381.3426   1413.86597     453.3142     381.3426
   1413.85071     451.0895     379.5724   1413.85071     451.0895     379.5724
   1413.83545     448.0747     378.1614   1413.83545     448.0747     378.1614
   1413.82019     445.8511     376.8513   1413.82019     445.8511     376.8513
   1413.80493     444.2422     374.3378   1413.80493     444.2422     374.3378
   1413.78967     441.4639     372.7190   1413.78967     441.4639     372.7190
   1413.77441     439.2675     371.8965   1413.77441     439.2675     371.8965
   1413.75916     436.2753     369.1051   1413.75916     436.2753     369.1051
   1413.74390     434.5130     367.1953   1413.74390     434.5130     367.1953
   1413.72864     431.4157     365.6712   1413.72864     431.4157     365.6712
   1413.71338     429.7993     364.0749   1413.71338     429.7993     364.0749
   1413.69812     426.7771     362.4064   1413.69812     426.7771     362.4064
   1413.68286     424.1581     360.4106   1413.68286     424.1581     360.4106
   1413.66760     422.1994     358.6372   1413.66760     422.1994     358.6372
   1413.65234     420.1668     357.4819   1413.65234     420.1668     357.4819
   1413.63708     418.2202     355.1184   1413.63708     418.2202     355.1184
   1413.62183     414.6705     353.3984   1413.62183     414.6705     353.3984
   1413.60657     412.7220     352.3355   1413.60657     412.7220     352.3355
   1413.59131     409.9015     349.9444   1413.59131     409.9015     349.9444
   1413.57605     408.8296     348.8924   1413.57605     408.8296     348.8924
   1413.56079     405.7020     346.9348   1413.56079     405.7020     346.9348
   1413.54553     403.5856     344.7309   1413.54553     403.5856     344.7309
   1413.53027     401.0352     343.2923   1413.53027     401.0352     343.2923
   1413.51501     398.8183     342.0198   1413.51501     398.8183     342.0198
   1413.49976     397.1858     339.7566   1413.49976     397.1858     339.7566
   1413.48450     394.6039     338.1956   1413.48450     394.6039     338.1956
   1413.46924     391.5856     336.4260   1413.46924     391.5856     336.4260
   1413.45398     389.4034     334.7138   1413.45398     389.4034     334.7138
   1413.43872     387.5977     333.4972   1413.43872     387.5977     333.4972
   1413.42346     384.8074     331.6540   1413.42346     384.8074     331.6540
   1413.40820     382.8325     330.5408   1413.40820     382.8325     330.5408
   1413.39294     380.7513     328.6367   1413.39294     380.7513     328.6367
   1413.37769     379.0164     326.8555   1413.37769     379.0164     326.8555
   1413.36243     376.1671     325.5219   1413.36243     376.1671     325.5219
   1413.34717     374.1029     324.0112   1413.34717     374.1029     324.0112
   1413.33191     371.6640     321.9196   1413.33191     371.6640     321.9196
   1413.31665     369.1117     321.1217   1413.31665     369.1117     321.1217
   1413.30139     367.6073     319.5198   1413.30139     367.6073     319.5198
   1413.28613     365.4422     318.2111   1413.28613     365.4422     318.2111
   1413.27087     362.7943     316.3439   1413.27087     362.7943     316.3439
   1413.25562     361.5327     314.6812   1413.25562     361.5327     314.6812
   1413.24036     359.2290     313.1819   1413.24036     359.2290     313.1819
   1413.22510     357.7466     312.0933   1413.22510     357.7466     312.0933
   1413.20984     354.6410     310.0782   1413.20984     354.6410     310.0782
   1413.19458     353.4154     309.0734   1413.19458     353.4154     309.0734
   1413.17932     351.3286     307.9560   1413.17932     351.3286     307.9560
   1413.16406     349.8517     306.3387   1413.16406     349.8517     306.3387
   1413.14880     347.4003     304.6750   1413.14880     347.4003     304.6750
   1413.13354     345.1313     303.6510   1413.13354     345.1313     303.6510
   1413.11829     343.9109     302.3875   1413.11829     343.9109     302.3875
   1413.10303     341.8693     301.3257   1413.10303     341.8693     301.3257
   1413.08777     340.0970     300.0132   1413.08777     340.0970     300.0132
   1413.07251     337.9226     298.4050   1413.07251     337.9226     298.4050
   1413.05725     336.0917     297.1356   1413.05725     336.0917     297.1356
   1413.04199     334.5445     296.1767   1413.04199     334.5445     296.1767
   1413.02673     332.8670     294.7955   1413.02673     332.8670     294.7955
   1413.01147     331.0773     293.2144   1413.01147     331.0773     293.2144
   1412.99622     329.3231     293.2729   1412.99622     329.3231     293.2729
   1412.98096     328.1595     291.5564   1412.98096     328.1595     291.5564
   1412.96570     326.1331     290.4267   1412.96570     326.1331     290.4267
   1412.95044     324.5249     289.4373   1412.95044     324.5249     289.4373
   1412.93518     323.0751     288.1702   1412.93518     323.0751     288.1702
   1412.91992     321.3257     287.4337   1412.91992     321.3257     287.4337
   1412.90466     319.5124     286.6139   1412.90466     319.5124     286.6139
   1412.88940     319.0291     285.4959   1412.88940     319.0291     285.4959
   1412.87415     317.0827     284.6809   1412.87415     317.0827     284.6809
   1412.85889     315.4740     283.4409   1412.85889     315.4740     283.4409
   1412.84363     314.5912     283.1223   1412.84363     314.5912     283.1223
   1412.82837     312.9513     281.9862   1412.82837     312.9513     281.9862
   1412.81311     312.4061     281.3755   1412.81311     312.4061     281.3755
   1412.79785     310.7023     280.6835   1412.79785     310.7023     280.6835
   1412.78259     309.6199     279.7812   1412.78259     309.6199     279.7812
   1412.76733     308.2431     279.5024   1412.76733     308.2431     279.5024
   1412.75208     306.2928     278.5411   1412.75208     306.2928     278.5411
   1412.73682     305.9445     278.0094   1412.73682     305.9445     278.0094
   1412.72156     305.1682     277.3599   1412.72156     305.1682     277.3599
   1412.70630     304.0560     277.0359   1412.70630     304.0560     277.0359
   1412.69104     302.9507     276.3408   1412.69104     302.9507     276.3408
   1412.67578     301.6707     275.9713   1412.67578     301.6707     275.9713
   1412.66052     301.0208     275.5060   1412.66052     301.0208     275.5060
   1412.64526     299.7158     274.9764   1412.64526     299.7158     274.9764
   1412.63000     298.9377     274.7069   1412.63000     298.9377     274.7069
   1412.61475     298.9022     274.5319   1412.61475     298.9022     274.5319
   1412.59949     297.9952     274.2910   1412.59949     297.9952     274.2910
   1412.58423     297.0974     273.5845   1412.58423     297.0974     273.5845
   1412.56897     296.6615     273.7098   1412.56897     296.6615     273.7098
   1412.55371     295.9236     273.3107   1412.55371     295.9236     273.3107
   1412.53845     295.4556     273.4721   1412.53845     295.4556     273.4721
   1412.52319     295.5415     273.0020   1412.52319     295.5415     273.0020
   1412.50793     294.4404     273.1855   1412.50793     294.4404     273.1855
   1412.49268     294.0628     273.0674   1412.49268     294.0628     273.0674
   1412.47742     293.6467     273.1589   1412.47742     293.6467     273.1589
   1412.46216     293.4085     273.1181   1412.46216     293.4085     273.1181
   1412.44690     293.1035     273.6135   1412.44690     293.1035     273.6135
   1412.43164     292.2851     273.7732   1412.43164     292.2851     273.7732
   1412.41638     292.4329     274.1804   1412.41638     292.4329     274.1804
   1412.40112     292.4623     273.9000   1412.40112     292.4623     273.9000
   1412.38586     292.5808     274.2090   1412.38586     292.5808     274.2090
   1412.37061     291.6292     274.3700   1412.37061     291.6292     274.3700
   1412.35535     292.2867     274.3446   1412.35535     292.2867     274.3446
   1412.34009     292.4703     275.0078   1412.34009     292.4703     275.0078
   1412.32483     292.0567     275.3003   1412.32483     292.0567     275.3003
   1412.30957     292.7036     275.9048   1412.30957     292.7036     275.9048
   1412.29431     291.8636     276.3826   1412.29431     291.8636     276.3826
   1412.27905     292.6362     277.3724   1412.27905     292.6362     277.3724
   1412.26379     293.0387     277.3647   1412.26379     293.0387     277.3647
   1412.24854     292.9838     277.8900   1412.24854     292.9838     277.8900
   1412.23328     294.0238     278.4004   1412.23328     294.0238     278.4004
   1412.21802     293.9960     279.8857   1412.21802     293.9960     279.8857
   1412.20276     294.1749     279.9379   1412.20276     294.1749     279.9379