#     FILENAME=!Skynet_57528_lach-hhg-151_20496_20975.cyb.fits
#     BASENAME=Skynet_57528_lach-hhg-151_20496_20975
#     SRC_NAME=lach-hhg-151
#     OBSERVER=hhgmadison16_9500
#     DATE_OBS=2016-05-20T17:39:33.430
#        OBSID=20496
#      SCANNUM=20975
#          MJD=57528.7368
#          UTC=63662
#     SCANTYPE=track
#     DATAMODE=HIRES
#     TUNEFREQ=1420.0000
# Actual_FREQ1=1420.0000
# Actual_FREQ2=1420.0000
#    LO1Tuning=6870.000
#     RFFILTER=1355_1435
#        OBSBW=-15.6250
#        NCHAN=1024 
#        FOCUS=37.0709
#           RA=04:09:16.51
#          DEC=51:44:59.34
#      RA(hrs)=4.154800
#     DEC(deg)=51.750100
#    AZIM(deg)=356.240
#    ELEV(deg)=76.543
#     IFattens=10.00, 9.00
#      WARNING=None
#    TCAL_XL1=7.9635
#    TCAL_YR1=9.1340
#    TCAL_XL2=7.9635
#    TCAL_YR2=9.1340
#     TRX_XL1=11.7060
#     TRX_YR1=11.7060
#     TRX_XL2=11.7060
#     TRX_YR2=11.7060
#        TAVE=1.0000
#Freq1(MHz)          XL1          YR1  Freq2(MHz)          XL2          YR2 

   1427.81250     381.9528     337.0521   1427.81250     381.9528     337.0521
   1427.79724     383.0781     338.8784   1427.79724     383.0781     338.8784
   1427.78198     382.6325     339.8809   1427.78198     382.6325     339.8809
   1427.76672     384.1810     341.4393   1427.76672     384.1810     341.4393
   1427.75146     384.3636     342.8843   1427.75146     384.3636     342.8843
   1427.73621     385.3474     344.1663   1427.73621     385.3474     344.1663
   1427.72095     386.3973     345.5348   1427.72095     386.3973     345.5348
   1427.70569     387.6029     347.6318   1427.70569     387.6029     347.6318
   1427.69043     388.3835     348.8333   1427.69043     388.3835     348.8333
   1427.67517     389.0858     350.3053   1427.67517     389.0858     350.3053
   1427.65991     390.8640     352.5924   1427.65991     390.8640     352.5924
   1427.64465     392.3844     353.8480   1427.64465     392.3844     353.8480
   1427.62939     392.9151     355.5774   1427.62939     392.9151     355.5774
   1427.61414     395.1293     357.8725   1427.61414     395.1293     357.8725
   1427.59888     395.6438     359.4604   1427.59888     395.6438     359.4604
   1427.58362     397.2288     361.3299   1427.58362     397.2288     361.3299
   1427.56836     397.8059     363.1347   1427.56836     397.8059     363.1347
   1427.55310     399.7575     365.2215   1427.55310     399.7575     365.2215
   1427.53784     402.6839     367.7316   1427.53784     402.6839     367.7316
   1427.52258     403.8173     369.0905   1427.52258     403.8173     369.0905
   1427.50732     406.0351     371.3253   1427.50732     406.0351     371.3253
   1427.49207     406.7703     373.7086   1427.49207     406.7703     373.7086
   1427.47681     408.5890     375.3095   1427.47681     408.5890     375.3095
   1427.46155     410.0131     376.8296   1427.46155     410.0131     376.8296
   1427.44629     412.9426     379.4258   1427.44629     412.9426     379.4258
   1427.43103     414.2595     381.4258   1427.43103     414.2595     381.4258
   1427.41577     415.8937     383.5594   1427.41577     415.8937     383.5594
   1427.40051     418.0090     385.6266   1427.40051     418.0090     385.6266
   1427.38525     419.6699     387.9218   1427.38525     419.6699     387.9218
   1427.37000     422.0462     390.3419   1427.37000     422.0462     390.3419
   1427.35474     425.3609     392.3877   1427.35474     425.3609     392.3877
   1427.33948     426.4342     394.4547   1427.33948     426.4342     394.4547
   1427.32422     428.1919     396.5038   1427.32422     428.1919     396.5038
   1427.30896     430.8474     399.0712   1427.30896     430.8474     399.0712
   1427.29370     433.3785     401.5729   1427.29370     433.3785     401.5729
   1427.27844     435.2928     404.1552   1427.27844     435.2928     404.1552
   1427.26318     438.2890     405.9105   1427.26318     438.2890     405.9105
   1427.24792     439.7867     408.5240   1427.24792     439.7867     408.5240
   1427.23267     442.9943     411.1228   1427.23267     442.9943     411.1228
   1427.21741     444.8799     413.1647   1427.21741     444.8799     413.1647
   1427.20215     447.6178     414.9622   1427.20215     447.6178     414.9622
   1427.18689     450.1032     416.5625   1427.18689     450.1032     416.5625
   1427.17163     452.6487     420.4011   1427.17163     452.6487     420.4011
   1427.15637     454.9181     422.2884   1427.15637     454.9181     422.2884
   1427.14111     458.0569     425.0616   1427.14111     458.0569     425.0616
   1427.12585     459.9651     426.3675   1427.12585     459.9651     426.3675
   1427.11060     463.5367     429.2714   1427.11060     463.5367     429.2714
   1427.09534     466.1606     431.6308   1427.09534     466.1606     431.6308
   1427.08008     468.9961     434.4039   1427.08008     468.9961     434.4039
   1427.06482     471.8574     436.4019   1427.06482     471.8574     436.4019
   1427.04956     474.3183     439.2401   1427.04956     474.3183     439.2401
   1427.03430     477.1480     441.0888   1427.03430     477.1480     441.0888
   1427.01904     480.4055     443.9380   1427.01904     480.4055     443.9380
   1427.00378     483.5134     445.9254   1427.00378     483.5134     445.9254
   1426.98853     486.4120     447.7937   1426.98853     486.4120     447.7937
   1426.97327     488.8899     451.0534   1426.97327     488.8899     451.0534
   1426.95801     492.2004     452.9887   1426.95801     492.2004     452.9887
   1426.94275     494.4181     454.8732   1426.94275     494.4181     454.8732
   1426.92749     497.6537     457.8764   1426.92749     497.6537     457.8764
   1426.91223     500.2819     459.8883   1426.91223     500.2819     459.8883
   1426.89697     504.5602     461.9131   1426.89697     504.5602     461.9131
   1426.88171     506.6619     464.7453   1426.88171     506.6619     464.7453
   1426.86646     509.4824     466.8844   1426.86646     509.4824     466.8844
   1426.85120     512.8845     468.8043   1426.85120     512.8845     468.8043
   1426.83594     515.8265     472.0574   1426.83594     515.8265     472.0574
   1426.82068     519.2327     472.9829   1426.82068     519.2327     472.9829
   1426.80542     522.6277     475.8754   1426.80542     522.6277     475.8754
   1426.79016     525.7953     478.1740   1426.79016     525.7953     478.1740
   1426.77490     528.5299     480.1038   1426.77490     528.5299     480.1038
   1426.75964     531.4172     482.3491   1426.75964     531.4172     482.3491
   1426.74438     535.2387     485.0984   1426.74438     535.2387     485.0984
   1426.72913     537.0642     487.1479   1426.72913     537.0642     487.1479
   1426.71387     541.6835     489.3690   1426.71387     541.6835     489.3690
   1426.69861     544.6467     491.3879   1426.69861     544.6467     491.3879
   1426.68335     547.8391     493.4612   1426.68335     547.8391     493.4612
   1426.66809     551.0040     495.5560   1426.66809     551.0040     495.5560
   1426.65283     553.0785     498.0057   1426.65283     553.0785     498.0057
   1426.63757     556.6190     500.0254   1426.63757     556.6190     500.0254
   1426.62231     561.5137     512.8364   1426.62231     561.5137     512.8364
   1426.60706     563.2355     505.3583   1426.60706     563.2355     505.3583
   1426.59180     566.0659     506.5101   1426.59180     566.0659     506.5101
   1426.57654     569.9791     508.2660   1426.57654     569.9791     508.2660
   1426.56128     572.7614     510.3726   1426.56128     572.7614     510.3726
   1426.54602     575.5654     512.4494   1426.54602     575.5654     512.4494
   1426.53076     579.2176     513.6482   1426.53076     579.2176     513.6482
   1426.51550     581.9361     515.2207   1426.51550     581.9361     515.2207
   1426.50024     585.6263     517.6270   1426.50024     585.6263     517.6270
   1426.48499     587.9888     520.3546   1426.48499     587.9888     520.3546
   1426.46973     591.5986     521.2676   1426.46973     591.5986     521.2676
   1426.45447     595.5699     524.3256   1426.45447     595.5699     524.3256
   1426.43921     597.3774     524.5222   1426.43921     597.3774     524.5222
   1426.42395     601.1031     526.8997   1426.42395     601.1031     526.8997
   1426.40869     605.2089     528.2716   1426.40869     605.2089     528.2716
   1426.39343     606.9725     530.1302   1426.39343     606.9725     530.1302
   1426.37817     610.7100     532.3853   1426.37817     610.7100     532.3853
   1426.36292     613.4317     533.9260   1426.36292     613.4317     533.9260
   1426.34766     616.9814     536.0425   1426.34766     616.9814     536.0425
   1426.33240     620.5735     537.5732   1426.33240     620.5735     537.5732
   1426.31714     622.2432     539.4144   1426.31714     622.2432     539.4144
   1426.30188     624.4983     541.0486   1426.30188     624.4983     541.0486
   1426.28662     629.1984     542.4275   1426.28662     629.1984     542.4275
   1426.27136     631.2857     544.3819   1426.27136     631.2857     544.3819
   1426.25610     634.8962     545.6541   1426.25610     634.8962     545.6541
   1426.24084     637.7262     546.9930   1426.24084     637.7262     546.9930
   1426.22559     640.3073     549.5038   1426.22559     640.3073     549.5038
   1426.21033     642.8596     550.2536   1426.21033     642.8596     550.2536
   1426.19507     645.2119     552.1661   1426.19507     645.2119     552.1661
   1426.17981     648.7764     553.3386   1426.17981     648.7764     553.3386
   1426.16455     651.9152     554.6898   1426.16455     651.9152     554.6898
   1426.14929     654.6990     556.4794   1426.14929     654.6990     556.4794
   1426.13403     658.2897     556.2952   1426.13403     658.2897     556.2952
   1426.11877     660.9268     559.0859   1426.11877     660.9268     559.0859
   1426.10352     662.5010     560.0712   1426.10352     662.5010     560.0712
   1426.08826     665.3726     562.1985   1426.08826     665.3726     562.1985
   1426.07300     668.4011     562.8900   1426.07300     668.4011     562.8900
   1426.05774     670.7349     564.3179   1426.05774     670.7349     564.3179
   1426.04248     672.8505     566.1342   1426.04248     672.8505     566.1342
   1426.02722     676.2481     567.2031   1426.02722     676.2481     567.2031
   1426.01196     678.6967     567.7334   1426.01196     678.6967     567.7334
   1425.99670     681.8469     569.7836   1425.99670     681.8469     569.7836
   1425.98145     685.2521     570.7712   1425.98145     685.2521     570.7712
   1425.96619     686.1485     571.5143   1425.96619     686.1485     571.5143
   1425.95093     688.9012     572.6980   1425.95093     688.9012     572.6980
   1425.93567     691.6864     575.2477   1425.93567     691.6864     575.2477
   1425.92041     693.7665     575.9109   1425.92041     693.7665     575.9109
   1425.90515     695.3925     577.2802   1425.90515     695.3925     577.2802
   1425.88989     698.4071     577.6802   1425.88989     698.4071     577.6802
   1425.87463     700.4818     578.9903   1425.87463     700.4818     578.9903
   1425.85938     703.4288     579.3692   1425.85938     703.4288     579.3692
   1425.84412     705.4699     580.1818   1425.84412     705.4699     580.1818
   1425.82886     707.5396     580.3781   1425.82886     707.5396     580.3781
   1425.81360     709.7516     583.3255   1425.81360     709.7516     583.3255
   1425.79834     712.5468     584.1309   1425.79834     712.5468     584.1309
   1425.78308     714.0359     585.2098   1425.78308     714.0359     585.2098
   1425.76782     716.1686     585.3231   1425.76782     716.1686     585.3231
   1425.75256     718.0118     586.5935   1425.75256     718.0118     586.5935
   1425.73730     720.9501     587.2667   1425.73730     720.9501     587.2667
   1425.72205     722.7616     588.9374   1425.72205     722.7616     588.9374
   1425.70679     724.2079     589.5199   1425.70679     724.2079     589.5199
   1425.69153     726.5247     589.6017   1425.69153     726.5247     589.6017
   1425.67627     728.5997     590.0083   1425.67627     728.5997     590.0083
   1425.66101     729.6931     591.6385   1425.66101     729.6931     591.6385
   1425.64575     731.5015     592.1413   1425.64575     731.5015     592.1413
   1425.63049     733.1910     593.1273   1425.63049     733.1910     593.1273
   1425.61523     735.5668     594.2286   1425.61523     735.5668     594.2286
   1425.59998     737.5564     595.5479   1425.59998     737.5564     595.5479
   1425.58472     739.3942     596.2291   1425.58472     739.3942     596.2291
   1425.56946     739.3076     595.9418   1425.56946     739.3076     595.9418
   1425.55420     741.1143     597.2502   1425.55420     741.1143     597.2502
   1425.53894     743.7784     598.0749   1425.53894     743.7784     598.0749
   1425.52368     745.3766     598.1084   1425.52368     745.3766     598.1084
   1425.50842     747.4894     598.9612   1425.50842     747.4894     598.9612
   1425.49316     748.1908     599.7971   1425.49316     748.1908     599.7971
   1425.47791     750.7514     599.6037   1425.47791     750.7514     599.6037
   1425.46265     751.4375     600.5847   1425.46265     751.4375     600.5847
   1425.44739     752.5837     601.6730   1425.44739     752.5837     601.6730
   1425.43213     755.1946     601.8961   1425.43213     755.1946     601.8961
   1425.41687     755.9590     602.9608   1425.41687     755.9590     602.9608
   1425.40161     758.5736     602.6638   1425.40161     758.5736     602.6638
   1425.38635     758.1544     603.9288   1425.38635     758.1544     603.9288
   1425.37109     760.3694     604.2422   1425.37109     760.3694     604.2422
   1425.35583     759.8593     604.8046   1425.35583     759.8593     604.8046
   1425.34058     761.5720     605.0504   1425.34058     761.5720     605.0504
   1425.32532     763.0281     605.0940   1425.32532     763.0281     605.0940
   1425.31006     763.2361     606.4879   1425.31006     763.2361     606.4879
   1425.29480     765.4706     605.8196   1425.29480     765.4706     605.8196
   1425.27954     765.5693     606.9890   1425.27954     765.5693     606.9890
   1425.26428     766.9788     607.1785   1425.26428     766.9788     607.1785
   1425.24902     767.2035     607.8685   1425.24902     767.2035     607.8685
   1425.23376     768.0363     607.7860   1425.23376     768.0363     607.7860
   1425.21851     768.4895     608.2997   1425.21851     768.4895     608.2997
   1425.20325     771.5060     608.4018   1425.20325     771.5060     608.4018
   1425.18799     770.2714     608.8494   1425.18799     770.2714     608.8494
   1425.17273     771.9095     608.6487   1425.17273     771.9095     608.6487
   1425.15747     773.1191     610.5527   1425.15747     773.1191     610.5527
   1425.14221     773.9055     610.5055   1425.14221     773.9055     610.5055
   1425.12695     773.0991     611.2222   1425.12695     773.0991     611.2222
   1425.11169     774.0485     611.1541   1425.11169     774.0485     611.1541
   1425.09644     776.1631     610.3923   1425.09644     776.1631     610.3923
   1425.08118     776.7179     611.0310   1425.08118     776.7179     611.0310
   1425.06592     776.9208     611.8057   1425.06592     776.9208     611.8057
   1425.05066     777.2856     611.7387   1425.05066     777.2856     611.7387
   1425.03540     778.5995     611.9993   1425.03540     778.5995     611.9993
   1425.02014     778.6533     612.0736   1425.02014     778.6533     612.0736
   1425.00488     779.5663     612.3077   1425.00488     779.5663     612.3077
   1424.98962     779.5915     612.8908   1424.98962     779.5915     612.8908
   1424.97437     780.0905     612.4066   1424.97437     780.0905     612.4066
   1424.95911     779.3764     612.4610   1424.95911     779.3764     612.4610
   1424.94385     780.9075     612.6431   1424.94385     780.9075     612.6431
   1424.92859     781.1863     613.9349   1424.92859     781.1863     613.9349
   1424.91333     781.7150     613.2469   1424.91333     781.7150     613.2469
   1424.89807     782.0699     612.5667   1424.89807     782.0699     612.5667
   1424.88281     782.9777     613.9475   1424.88281     782.9777     613.9475
   1424.86755     782.6009     614.0613   1424.86755     782.6009     614.0613
   1424.85229     782.3375     613.4031   1424.85229     782.3375     613.4031
   1424.83704     783.3969     614.7559   1424.83704     783.3969     614.7559
   1424.82178     782.3602     613.3234   1424.82178     782.3602     613.3234
   1424.80652     782.7021     614.7013   1424.80652     782.7021     614.7013
   1424.79126     784.5648     613.8841   1424.79126     784.5648     613.8841
   1424.77600     782.4465     613.3439   1424.77600     782.4465     613.3439
   1424.76074     782.5862     613.6865   1424.76074     782.5862     613.6865
   1424.74548     782.8108     614.1374   1424.74548     782.8108     614.1374
   1424.73022     783.6434     614.0979   1424.73022     783.6434     614.0979
   1424.71497     783.8024     613.8625   1424.71497     783.8024     613.8625
   1424.69971     784.0002     613.7506   1424.69971     784.0002     613.7506
   1424.68445     785.5723     613.6382   1424.68445     785.5723     613.6382
   1424.66919     783.1345     613.4466   1424.66919     783.1345     613.4466
   1424.65393     782.4391     613.1630   1424.65393     782.4391     613.1630
   1424.63867     782.9454     613.1959   1424.63867     782.9454     613.1959
   1424.62341     784.1259     614.7849   1424.62341     784.1259     614.7849
   1424.60815     783.8701     612.6907   1424.60815     783.8701     612.6907
   1424.59290     784.5007     614.4858   1424.59290     784.5007     614.4858
   1424.57764     783.0596     613.2671   1424.57764     783.0596     613.2671
   1424.56238     783.4012     612.8398   1424.56238     783.4012     612.8398
   1424.54712     782.6807     613.9472   1424.54712     782.6807     613.9472
   1424.53186     782.1055     612.6019   1424.53186     782.1055     612.6019
   1424.51660     782.6113     612.9577   1424.51660     782.6113     612.9577
   1424.50134     781.3038     612.3615   1424.50134     781.3038     612.3615
   1424.48608     781.2364     612.6874   1424.48608     781.2364     612.6874
   1424.47083     780.6064     612.9374   1424.47083     780.6064     612.9374
   1424.45557     780.6751     612.2028   1424.45557     780.6751     612.2028
   1424.44031     780.2601     612.7977   1424.44031     780.2601     612.7977
   1424.42505     781.0148     612.4133   1424.42505     781.0148     612.4133
   1424.40979     780.1119     611.9788   1424.40979     780.1119     611.9788
   1424.39453     781.3441     611.1041   1424.39453     781.3441     611.1041
   1424.37927     779.8316     611.2760   1424.37927     779.8316     611.2760
   1424.36401     779.8445     611.9418   1424.36401     779.8445     611.9418
   1424.34875     778.9557     612.0032   1424.34875     778.9557     612.0032
   1424.33350     778.3106     610.0291   1424.33350     778.3106     610.0291
   1424.31824     778.8900     611.0536   1424.31824     778.8900     611.0536
   1424.30298     778.3503     610.8743   1424.30298     778.3503     610.8743
   1424.28772     778.1239     610.9762   1424.28772     778.1239     610.9762
   1424.27246     776.0829     609.8370   1424.27246     776.0829     609.8370
   1424.25720     776.4571     610.5327   1424.25720     776.4571     610.5327
   1424.24194     776.2523     610.5770   1424.24194     776.2523     610.5770
   1424.22668     776.5241     610.1468   1424.22668     776.5241     610.1468
   1424.21143     776.0190     609.5382   1424.21143     776.0190     609.5382
   1424.19617     774.8751     608.9652   1424.19617     774.8751     608.9652
   1424.18091     774.0441     608.9721   1424.18091     774.0441     608.9721
   1424.16565     773.7671     609.1911   1424.16565     773.7671     609.1911
   1424.15039     772.4102     609.0116   1424.15039     772.4102     609.0116
   1424.13513     772.3516     607.8256   1424.13513     772.3516     607.8256
   1424.11987     772.0457     607.8611   1424.11987     772.0457     607.8611
   1424.10461     771.8422     607.1477   1424.10461     771.8422     607.1477
   1424.08936     771.6569     607.0153   1424.08936     771.6569     607.0153
   1424.07410     771.0627     606.3385   1424.07410     771.0627     606.3385
   1424.05884     770.5130     606.9230   1424.05884     770.5130     606.9230
   1424.04358     768.3487     605.9808   1424.04358     768.3487     605.9808
   1424.02832     769.3330     606.7599   1424.02832     769.3330     606.7599
   1424.01306     767.6464     604.7643   1424.01306     767.6464     604.7643
   1423.99780     768.5720     605.4459   1423.99780     768.5720     605.4459
   1423.98254     768.4786     605.1009   1423.98254     768.4786     605.1009
   1423.96729     766.4396     604.8280   1423.96729     766.4396     604.8280
   1423.95203     766.0560     604.9847   1423.95203     766.0560     604.9847
   1423.93677     766.4075     603.7479   1423.93677     766.4075     603.7479
   1423.92151     765.5341     604.3290   1423.92151     765.5341     604.3290
   1423.90625     765.0448     603.9333   1423.90625     765.0448     603.9333
   1423.89099     762.9901     602.5889   1423.89099     762.9901     602.5889
   1423.87573     763.0358     603.2422   1423.87573     763.0358     603.2422
   1423.86047     762.7784     602.9204   1423.86047     762.7784     602.9204
   1423.84521     761.3646     600.7952   1423.84521     761.3646     600.7952
   1423.82996     761.1484     602.3016   1423.82996     761.1484     602.3016
   1423.81470     762.0140     600.0455   1423.81470     762.0140     600.0455
   1423.79944     759.4979     600.0721   1423.79944     759.4979     600.0721
   1423.78418     760.1177     600.9288   1423.78418     760.1177     600.9288
   1423.76892     759.5903     599.8763   1423.76892     759.5903     599.8763
   1423.75366     759.0403     599.0837   1423.75366     759.0403     599.0837
   1423.73840     757.7330     599.3623   1423.73840     757.7330     599.3623
   1423.72314     757.7876     598.1521   1423.72314     757.7876     598.1521
   1423.70789     758.1900     598.3254   1423.70789     758.1900     598.3254
   1423.69263     755.9912     596.9255   1423.69263     755.9912     596.9255
   1423.67737     756.2295     597.2320   1423.67737     756.2295     597.2320
   1423.66211     755.7585     597.1176   1423.66211     755.7585     597.1176
   1423.64685     753.8863     596.8488   1423.64685     753.8863     596.8488
   1423.63159     754.7691     596.5544   1423.63159     754.7691     596.5544
   1423.61633     754.1735     595.4319   1423.61633     754.1735     595.4319
   1423.60107     753.1613     595.8218   1423.60107     753.1613     595.8218
   1423.58582     752.7723     595.9193   1423.58582     752.7723     595.9193
   1423.57056     753.1212     594.4196   1423.57056     753.1212     594.4196
   1423.55530     752.6540     593.3201   1423.55530     752.6540     593.3201
   1423.54004     750.8569     593.7284   1423.54004     750.8569     593.7284
   1423.52478     750.7484     593.0311   1423.52478     750.7484     593.0311
   1423.50952     749.9860     591.9467   1423.50952     749.9860     591.9467
   1423.49426     750.7089     592.2092   1423.49426     750.7089     592.2092
   1423.47900     749.0225     591.8261   1423.47900     749.0225     591.8261
   1423.46375     748.9778     591.2089   1423.46375     748.9778     591.2089
   1423.44849     748.2509     590.4144   1423.44849     748.2509     590.4144
   1423.43323     746.5755     590.4965   1423.43323     746.5755     590.4965
   1423.41797     746.6963     589.4246   1423.41797     746.6963     589.4246
   1423.40271     746.2130     588.6813   1423.40271     746.2130     588.6813
   1423.38745     744.9685     588.7928   1423.38745     744.9685     588.7928
   1423.37219     745.3137     588.2167   1423.37219     745.3137     588.2167
   1423.35693     745.4551     587.7913   1423.35693     745.4551     587.7913
   1423.34167     744.1188     587.4216   1423.34167     744.1188     587.4216
   1423.32642     743.5759     587.2369   1423.32642     743.5759     587.2369
   1423.31116     744.4415     585.8222   1423.31116     744.4415     585.8222
   1423.29590     742.3281     586.1999   1423.29590     742.3281     586.1999
   1423.28064     742.9922     584.4969   1423.28064     742.9922     584.4969
   1423.26538     742.2947     585.1954   1423.26538     742.2947     585.1954
   1423.25012     741.1628     583.7838   1423.25012     741.1628     583.7838
   1423.23486     741.2670     583.5243   1423.23486     741.2670     583.5243
   1423.21960     741.0742     582.8527   1423.21960     741.0742     582.8527
   1423.20435     740.4902     581.0773   1423.20435     740.4902     581.0773
   1423.18909     740.4589     581.6951   1423.18909     740.4589     581.6951
   1423.17383     739.1984     581.1287   1423.17383     739.1984     581.1287
   1423.15857     739.4434     580.0869   1423.15857     739.4434     580.0869
   1423.14331     738.6137     579.5425   1423.14331     738.6137     579.5425
   1423.12805     737.1191     578.9382   1423.12805     737.1191     578.9382
   1423.11279     738.2568     577.9497   1423.11279     738.2568     577.9497
   1423.09753     736.2181     577.7665   1423.09753     736.2181     577.7665
   1423.08228     736.2050     577.2728   1423.08228     736.2050     577.2728
   1423.06702     735.6960     576.6146   1423.06702     735.6960     576.6146
   1423.05176     735.1487     575.5724   1423.05176     735.1487     575.5724
   1423.03650     735.8318     575.8320   1423.03650     735.8318     575.8320
   1423.02124     734.9554     574.0583   1423.02124     734.9554     574.0583
   1423.00598     734.0441     573.8859   1423.00598     734.0441     573.8859
   1422.99072     734.9464     573.1875   1422.99072     734.9464     573.1875
   1422.97546     733.4636     572.9370   1422.97546     733.4636     572.9370
   1422.96021     733.6018     571.9949   1422.96021     733.6018     571.9949
   1422.94495     732.9455     571.3456   1422.94495     732.9455     571.3456
   1422.92969     732.8956     570.7145   1422.92969     732.8956     570.7145
   1422.91443     734.2484     570.0043   1422.91443     734.2484     570.0043
   1422.89917     731.8814     569.0701   1422.89917     731.8814     569.0701
   1422.88391     731.4056     567.9948   1422.88391     731.4056     567.9948
   1422.86865     731.1729     567.2867   1422.86865     731.1729     567.2867
   1422.85339     731.8912     567.8707   1422.85339     731.8912     567.8707
   1422.83813     731.1566     566.2040   1422.83813     731.1566     566.2040
   1422.82288     730.9575     565.7944   1422.82288     730.9575     565.7944
   1422.80762     729.9934     563.7297   1422.80762     729.9934     563.7297
   1422.79236     729.6704     563.2743   1422.79236     729.6704     563.2743
   1422.77710     728.9751     562.7807   1422.77710     728.9751     562.7807
   1422.76184     728.6641     562.6891   1422.76184     728.6641     562.6891
   1422.74658     728.8131     562.7153   1422.74658     728.8131     562.7153
   1422.73132     728.0077     561.6559   1422.73132     728.0077     561.6559
   1422.71606     728.8705     560.9365   1422.71606     728.8705     560.9365
   1422.70081     728.0017     559.7053   1422.70081     728.0017     559.7053
   1422.68555     727.6440     558.2959   1422.68555     727.6440     558.2959
   1422.67029     728.0511     558.7245   1422.67029     728.0511     558.7245
   1422.65503     727.1291     556.9041   1422.65503     727.1291     556.9041
   1422.63977     726.7393     556.6007   1422.63977     726.7393     556.6007
   1422.62451     727.3935     555.3038   1422.62451     727.3935     555.3038
   1422.60925     726.0255     554.7029   1422.60925     726.0255     554.7029
   1422.59399     726.7769     553.9015   1422.59399     726.7769     553.9015
   1422.57874     726.5038     553.7153   1422.57874     726.5038     553.7153
   1422.56348     725.8829     551.9883   1422.56348     725.8829     551.9883
   1422.54822     726.2286     551.0627   1422.54822     726.2286     551.0627
   1422.53296     725.4547     550.2309   1422.53296     725.4547     550.2309
   1422.51770     725.4896     550.0177   1422.51770     725.4896     550.0177
   1422.50244     724.9683     549.9791   1422.50244     724.9683     549.9791
   1422.48718     723.9101     548.3590   1422.48718     723.9101     548.3590
   1422.47192     725.0193     546.8308   1422.47192     725.0193     546.8308
   1422.45667     725.0381     546.5690   1422.45667     725.0381     546.5690
   1422.44141     724.0001     546.3595   1422.44141     724.0001     546.3595
   1422.42615     723.4987     544.4410   1422.42615     723.4987     544.4410
   1422.41089     723.1110     544.5186   1422.41089     723.1110     544.5186
   1422.39563     723.2938     542.9442   1422.39563     723.2938     542.9442
   1422.38037     724.2805     541.3444   1422.38037     724.2805     541.3444
   1422.36511     722.9544     540.6296   1422.36511     722.9544     540.6296
   1422.34985     723.4761     539.8152   1422.34985     723.4761     539.8152
   1422.33459     724.1041     538.9351   1422.33459     724.1041     538.9351
   1422.31934     721.4004     538.9637   1422.31934     721.4004     538.9637
   1422.30408     722.5961     537.4975   1422.30408     722.5961     537.4975
   1422.28882     723.2175     536.8821   1422.28882     723.2175     536.8821
   1422.27356     723.1367     535.5474   1422.27356     723.1367     535.5474
   1422.25830     722.6546     535.0511   1422.25830     722.6546     535.0511
   1422.24304     722.4918     534.5177   1422.24304     722.4918     534.5177
   1422.22778     723.1956     533.5185   1422.22778     723.1956     533.5185
   1422.21252     722.2047     531.2711   1422.21252     722.2047     531.2711
   1422.19727     721.5523     530.8276   1422.19727     721.5523     530.8276
   1422.18201     722.1660     530.6354   1422.18201     722.1660     530.6354
   1422.16675     720.7367     529.5513   1422.16675     720.7367     529.5513
   1422.15149     721.9081     528.6091   1422.15149     721.9081     528.6091
   1422.13623     721.0012     527.2080   1422.13623     721.0012     527.2080
   1422.12097     721.1981     526.3683   1422.12097     721.1981     526.3683
   1422.10571     721.3007     525.0341   1422.10571     721.3007     525.0341
   1422.09045     721.2012     524.7931   1422.09045     721.2012     524.7931
   1422.07520     721.6340     523.4588   1422.07520     721.6340     523.4588
   1422.05994     719.6841     522.6085   1422.05994     719.6841     522.6085
   1422.04468     720.5499     520.9003   1422.04468     720.5499     520.9003
   1422.02942     720.9124     520.1135   1422.02942     720.9124     520.1135
   1422.01416     720.2280     520.3079   1422.01416     720.2280     520.3079
   1421.99890     720.6559     519.2095   1421.99890     720.6559     519.2095
   1421.98364     719.8267     517.7576   1421.98364     719.8267     517.7576
   1421.96838     720.2032     516.3138   1421.96838     720.2032     516.3138
   1421.95312     720.3990     516.2981   1421.95312     720.3990     516.2981
   1421.93787     719.8538     514.0436   1421.93787     719.8538     514.0436
   1421.92261     720.6922     514.0133   1421.92261     720.6922     514.0133
   1421.90735     719.4174     513.5687   1421.90735     719.4174     513.5687
   1421.89209     720.2624     512.4917   1421.89209     720.2624     512.4917
   1421.87683     719.2431     511.1476   1421.87683     719.2431     511.1476
   1421.86157     719.0502     511.0211   1421.86157     719.0502     511.0211
   1421.84631     719.0823     509.0800   1421.84631     719.0823     509.0800
   1421.83105     719.0117     508.2548   1421.83105     719.0117     508.2548
   1421.81580     719.5239     506.9919   1421.81580     719.5239     506.9919
   1421.80054     718.6804     505.9831   1421.80054     718.6804     505.9831
   1421.78528     718.7284     504.7250   1421.78528     718.7284     504.7250
   1421.77002     718.1376     504.4815   1421.77002     718.1376     504.4815
   1421.75476     719.5778     503.1924   1421.75476     719.5778     503.1924
   1421.73950     718.8408     501.7601   1421.73950     718.8408     501.7601
   1421.72424     718.4213     501.3565   1421.72424     718.4213     501.3565
   1421.70898     719.6538     499.5759   1421.70898     719.6538     499.5759
   1421.69373     717.8450     499.4578   1421.69373     717.8450     499.4578
   1421.67847     718.4600     498.1797   1421.67847     718.4600     498.1797
   1421.66321     717.7839     497.0418   1421.66321     717.7839     497.0418
   1421.64795     718.5223     496.7443   1421.64795     718.5223     496.7443
   1421.63269     718.3002     495.4193   1421.63269     718.3002     495.4193
   1421.61743     717.5430     493.7862   1421.61743     717.5430     493.7862
   1421.60217     716.8251     493.7673   1421.60217     716.8251     493.7673
   1421.58691     717.7009     492.3922   1421.58691     717.7009     492.3922
   1421.57166     718.1874     491.1911   1421.57166     718.1874     491.1911
   1421.55640     717.8653     489.6480   1421.55640     717.8653     489.6480
   1421.54114     717.4551     489.1103   1421.54114     717.4551     489.1103
   1421.52588     717.2827     488.4539   1421.52588     717.2827     488.4539
   1421.51062     715.7601     487.3612   1421.51062     715.7601     487.3612
   1421.49536     716.7631     485.8941   1421.49536     716.7631     485.8941
   1421.48010     716.0823     485.3729   1421.48010     716.0823     485.3729
   1421.46484     717.6909     484.4170   1421.46484     717.6909     484.4170
   1421.44958     717.8062     483.0767   1421.44958     717.8062     483.0767
   1421.43433     715.9095     482.5962   1421.43433     715.9095     482.5962
   1421.41907     717.4586     480.9325   1421.41907     717.4586     480.9325
   1421.40381     716.1456     479.6058   1421.40381     716.1456     479.6058
   1421.38855     715.8712     478.8116   1421.38855     715.8712     478.8116
   1421.37329     716.9579     478.7702   1421.37329     716.9579     478.7702
   1421.35803     715.7844     477.3741   1421.35803     715.7844     477.3741
   1421.34277     716.8075     475.5180   1421.34277     716.8075     475.5180
   1421.32751     716.1751     475.0457   1421.32751     716.1751     475.0457
   1421.31226     714.3946     474.6541   1421.31226     714.3946     474.6541
   1421.29700     715.3070     473.3914   1421.29700     715.3070     473.3914
   1421.28174     714.9603     472.1953   1421.28174     714.9603     472.1953
   1421.26648     715.3616     471.5113   1421.26648     715.3616     471.5113
   1421.25122     716.5412     470.3449   1421.25122     716.5412     470.3449
   1421.23596     715.8201     468.7240   1421.23596     715.8201     468.7240
   1421.22070     715.2539     468.3586   1421.22070     715.2539     468.3586
   1421.20544     714.6431     467.4362   1421.20544     714.6431     467.4362
   1421.19019     714.6025     466.2164   1421.19019     714.6025     466.2164
   1421.17493     714.2159     465.0335   1421.17493     714.2159     465.0335
   1421.15967     714.3650     464.2333   1421.15967     714.3650     464.2333
   1421.14441     714.4592     463.1120   1421.14441     714.4592     463.1120
   1421.12915     715.7645     462.6535   1421.12915     715.7645     462.6535
   1421.11389     715.5527     462.2304   1421.11389     715.5527     462.2304
   1421.09863     714.8162     460.5783   1421.09863     714.8162     460.5783
   1421.08337     714.8364     459.9592   1421.08337     714.8364     459.9592
   1421.06812     715.2695     459.3376   1421.06812     715.2695     459.3376
   1421.05286     716.0953     459.6456   1421.05286     716.0953     459.6456
   1421.03760     718.3898     458.9054   1421.03760     718.3898     458.9054
   1421.02234     718.9926     458.8677   1421.02234     718.9926     458.8677
   1421.00708     719.6765     458.4131   1421.00708     719.6765     458.4131
   1420.99182     720.0247     458.0938   1420.99182     720.0247     458.0938
   1420.97656     721.6280     458.0383   1420.97656     721.6280     458.0383
   1420.96130     721.7383     456.1807   1420.96130     721.7383     456.1807
   1420.94604     720.3746     455.8178   1420.94604     720.3746     455.8178
   1420.93079     719.6868     454.3444   1420.93079     719.6868     454.3444
   1420.91553     720.4227     452.9256   1420.91553     720.4227     452.9256
   1420.90027     718.9775     452.2964   1420.90027     718.9775     452.2964
   1420.88501     720.7310     451.6935   1420.88501     720.7310     451.6935
   1420.86975     720.7123     451.8361   1420.86975     720.7123     451.8361
   1420.85449     720.9102     451.3344   1420.85449     720.9102     451.3344
   1420.83923     723.5562     451.1221   1420.83923     723.5562     451.1221
   1420.82397     726.2570     451.6838   1420.82397     726.2570     451.6838
   1420.80872     730.7161     455.1800   1420.80872     730.7161     455.1800
   1420.79346     743.2784     459.7014   1420.79346     743.2784     459.7014
   1420.77820     755.1265     466.3728   1420.77820     755.1265     466.3728
   1420.76294     771.6240     475.5554   1420.76294     771.6240     475.5554
   1420.74768     782.1009     481.8725   1420.74768     782.1009     481.8725
   1420.73242     801.7077     492.0143   1420.73242     801.7077     492.0143
   1420.71716     824.7122     506.4539   1420.71716     824.7122     506.4539
   1420.70190     889.2138     542.6434   1420.70190     889.2138     542.6434
   1420.68665    1022.2126     618.8900   1420.68665    1022.2126     618.8900
   1420.67139    1118.8097     674.8441   1420.67139    1118.8097     674.8441
   1420.65613    1284.1381     774.2182   1420.65613    1284.1381     774.2182
   1420.64087    1646.5012     984.2747   1420.64087    1646.5012     984.2747
   1420.62561    2135.3711    1269.5734   1420.62561    2135.3711    1269.5734
   1420.61035    2045.5632    1216.5143   1420.61035    2045.5632    1216.5143
   1420.59509    1887.4827    1122.9446   1420.59509    1887.4827    1122.9446
   1420.57983    1885.8488    1117.9520   1420.57983    1885.8488    1117.9520
   1420.56458    1840.8290    1090.0713   1420.56458    1840.8290    1090.0713
   1420.54932    2142.5312    1268.8177   1420.54932    2142.5312    1268.8177
   1420.53406    2465.3301    1453.5996   1420.53406    2465.3301    1453.5996
   1420.51880    2572.8198    1510.3792   1420.51880    2572.8198    1510.3792
   1420.50354    2286.4211    1341.4130   1420.50354    2286.4211    1341.4130
   1420.48828    1949.3549    1144.9719   1420.48828    1949.3549    1144.9719
   1420.47302    1594.3667     935.2769   1420.47302    1594.3667     935.2769
   1420.45776    1402.0558     823.2914   1420.45776    1402.0558     823.2914
   1420.44250    1495.4193     876.6606   1420.44250    1495.4193     876.6606
   1420.42725    1655.5413     967.5689   1420.42725    1655.5413     967.5689
   1420.41199    1869.8853    1089.9768   1420.41199    1869.8853    1089.9768
   1420.39673    1937.9250    1129.2800   1420.39673    1937.9250    1129.2800
   1420.38147    1699.0948     989.7500   1420.38147    1699.0948     989.7500
   1420.36621    1379.6400     802.4091   1420.36621    1379.6400     802.4091
   1420.35095    1333.2079     775.6398   1420.35095    1333.2079     775.6398
   1420.33569    1024.1727     595.9023   1420.33569    1024.1727     595.9023
   1420.32043     834.7817     486.6227   1420.32043     834.7817     486.6227
   1420.30518     778.4726     455.5770   1420.30518     778.4726     455.5770
   1420.28992     752.9807     439.7070   1420.28992     752.9807     439.7070
   1420.27466     736.6273     430.8866   1420.27466     736.6273     430.8866
   1420.25940     727.7946     424.4228   1420.25940     727.7946     424.4228
   1420.24414     722.6315     421.0554   1420.24414     722.6315     421.0554
   1420.22888     717.8207     417.3010   1420.22888     717.8207     417.3010
   1420.21362     716.2540     415.2010   1420.21362     716.2540     415.2010
   1420.19836     712.4185     412.7635   1420.19836     712.4185     412.7635
   1420.18311     710.8910     410.7673   1420.18311     710.8910     410.7673
   1420.16785     708.8131     409.0320   1420.16785     708.8131     409.0320
   1420.15259     707.5225     407.9793   1420.15259     707.5225     407.9793
   1420.13733     706.2689     407.4038   1420.13733     706.2689     407.4038
   1420.12207     707.1620     406.2722   1420.12207     707.1620     406.2722
   1420.10681     706.0397     404.3178   1420.10681     706.0397     404.3178
   1420.09155     703.9323     403.4309   1420.09155     703.9323     403.4309
   1420.07629     703.8068     403.0135   1420.07629     703.8068     403.0135
   1420.06104     704.2507     402.3586   1420.06104     704.2507     402.3586
   1420.04578     702.4042     401.7852   1420.04578     702.4042     401.7852
   1420.03052     703.2242     401.2195   1420.03052     703.2242     401.2195
   1420.01526     702.3535     401.0947   1420.01526     702.3535     401.0947
   1420.00000     704.3481     402.1287   1420.00000     704.3481     402.1287
   1419.98474     706.3431     403.1627   1419.98474     706.3431     403.1627
   1419.96948     704.8350     399.8935   1419.96948     704.8350     399.8935
   1419.95422     700.9315     398.2503   1419.95422     700.9315     398.2503
   1419.93896     701.0054     396.6500   1419.93896     701.0054     396.6500
   1419.92371     701.4595     397.1939   1419.92371     701.4595     397.1939
   1419.90845     702.0787     395.9341   1419.90845     702.0787     395.9341
   1419.89319     701.4976     395.6632   1419.89319     701.4976     395.6632
   1419.87793     701.9861     395.3670   1419.87793     701.9861     395.3670
   1419.86267     702.2198     394.8257   1419.86267     702.2198     394.8257
   1419.84741     703.0883     393.6463   1419.84741     703.0883     393.6463
   1419.83215     702.6339     393.9182   1419.83215     702.6339     393.9182
   1419.81689     702.0675     392.8124   1419.81689     702.0675     392.8124
   1419.80164     702.5177     393.1265   1419.80164     702.5177     393.1265
   1419.78638     702.6914     392.7441   1419.78638     702.6914     392.7441
   1419.77112     702.3649     391.6563   1419.77112     702.3649     391.6563
   1419.75586     703.0926     391.1250   1419.75586     703.0926     391.1250
   1419.74060     703.2520     390.6727   1419.74060     703.2520     390.6727
   1419.72534     701.9515     391.1356   1419.72534     701.9515     391.1356
   1419.71008     703.9335     390.4522   1419.71008     703.9335     390.4522
   1419.69482     703.7495     390.4598   1419.69482     703.7495     390.4598
   1419.67957     703.3088     389.3426   1419.67957     703.3088     389.3426
   1419.66431     704.3661     389.2364   1419.66431     704.3661     389.2364
   1419.64905     704.4906     388.8864   1419.64905     704.4906     388.8864
   1419.63379     703.5038     388.7444   1419.63379     703.5038     388.7444
   1419.61853     704.7794     388.3711   1419.61853     704.7794     388.3711
   1419.60327     704.0639     387.9037   1419.60327     704.0639     387.9037
   1419.58801     704.4230     387.8640   1419.58801     704.4230     387.8640
   1419.57275     704.2631     387.7559   1419.57275     704.2631     387.7559
   1419.55750     704.7316     387.2802   1419.55750     704.7316     387.2802
   1419.54224     704.6897     387.0625   1419.54224     704.6897     387.0625
   1419.52698     704.4848     387.3685   1419.52698     704.4848     387.3685
   1419.51172     706.6608     387.5595   1419.51172     706.6608     387.5595
   1419.49646     705.7643     386.1825   1419.49646     705.7643     386.1825
   1419.48120     705.1900     386.1931   1419.48120     705.1900     386.1931
   1419.46594     705.5086     385.8054   1419.46594     705.5086     385.8054
   1419.45068     707.4686     385.9936   1419.45068     707.4686     385.9936
   1419.43542     706.5392     385.7500   1419.43542     706.5392     385.7500
   1419.42017     705.9103     385.9861   1419.42017     705.9103     385.9861
   1419.40491     707.1163     385.5094   1419.40491     707.1163     385.5094
   1419.38965     707.2646     385.1964   1419.38965     707.2646     385.1964
   1419.37439     707.6559     385.0511   1419.37439     707.6559     385.0511
   1419.35913     708.2442     384.5748   1419.35913     708.2442     384.5748
   1419.34387     708.1794     384.2885   1419.34387     708.1794     384.2885
   1419.32861     709.9460     384.1942   1419.32861     709.9460     384.1942
   1419.31335     709.4971     384.5527   1419.31335     709.4971     384.5527
   1419.29810     709.8905     385.0770   1419.29810     709.8905     385.0770
   1419.28284     709.7263     384.1884   1419.28284     709.7263     384.1884
   1419.26758     709.9714     384.6788   1419.26758     709.9714     384.6788
   1419.25232     711.1105     384.4778   1419.25232     711.1105     384.4778
   1419.23706     710.7140     384.3681   1419.23706     710.7140     384.3681
   1419.22180     711.3793     384.5832   1419.22180     711.3793     384.5832
   1419.20654     711.6328     383.7090   1419.20654     711.6328     383.7090
   1419.19128     712.4493     384.2752   1419.19128     712.4493     384.2752
   1419.17603     714.2030     384.4704   1419.17603     714.2030     384.4704
   1419.16077     712.9648     384.6630   1419.16077     712.9648     384.6630
   1419.14551     713.8550     384.3514   1419.14551     713.8550     384.3514
   1419.13025     714.6340     384.5684   1419.13025     714.6340     384.5684
   1419.11499     715.6337     384.1935   1419.11499     715.6337     384.1935
   1419.09973     715.5518     384.0144   1419.09973     715.5518     384.0144
   1419.08447     715.4587     384.5779   1419.08447     715.4587     384.5779
   1419.06921     715.7134     384.5186   1419.06921     715.7134     384.5186
   1419.05396     716.7919     385.0653   1419.05396     716.7919     385.0653
   1419.03870     717.9999     384.8599   1419.03870     717.9999     384.8599
   1419.02344     717.5883     385.6784   1419.02344     717.5883     385.6784
   1419.00818     719.3741     384.6772   1419.00818     719.3741     384.6772
   1418.99292     717.5818     384.8659   1418.99292     717.5818     384.8659
   1418.97766     718.5944     385.4334   1418.97766     718.5944     385.4334
   1418.96240     719.2023     385.1371   1418.96240     719.2023     385.1371
   1418.94714     719.6879     386.1555   1418.94714     719.6879     386.1555
   1418.93188     718.7299     386.2550   1418.93188     718.7299     386.2550
   1418.91663     721.0062     386.3071   1418.91663     721.0062     386.3071
   1418.90137     722.1860     386.0327   1418.90137     722.1860     386.0327
   1418.88611     723.4929     387.0399   1418.88611     723.4929     387.0399
   1418.87085     722.2195     386.8139   1418.87085     722.2195     386.8139
   1418.85559     723.1749     387.1986   1418.85559     723.1749     387.1986
   1418.84033     725.0030     388.1134   1418.84033     725.0030     388.1134
   1418.82507     724.2618     388.2314   1418.82507     724.2618     388.2314
   1418.80981     724.9809     387.5388   1418.80981     724.9809     387.5388
   1418.79456     725.9528     388.1967   1418.79456     725.9528     388.1967
   1418.77930     726.1565     388.3703   1418.77930     726.1565     388.3703
   1418.76404     726.8016     388.9875   1418.76404     726.8016     388.9875
   1418.74878     727.2421     389.8275   1418.74878     727.2421     389.8275
   1418.73352     727.9424     390.1301   1418.73352     727.9424     390.1301
   1418.71826     727.6111     390.0737   1418.71826     727.6111     390.0737
   1418.70300     730.7858     390.0927   1418.70300     730.7858     390.0927
   1418.68774     730.7322     390.4849   1418.68774     730.7322     390.4849
   1418.67249     729.7036     391.0817   1418.67249     729.7036     391.0817
   1418.65723     731.6558     391.4713   1418.65723     731.6558     391.4713
   1418.64197     732.6768     391.8149   1418.64197     732.6768     391.8149
   1418.62671     732.0247     391.8822   1418.62671     732.0247     391.8822
   1418.61145     733.8210     392.4601   1418.61145     733.8210     392.4601
   1418.59619     735.3376     393.4182   1418.59619     735.3376     393.4182
   1418.58093     734.5927     393.7269   1418.58093     734.5927     393.7269
   1418.56567     734.4900     393.6226   1418.56567     734.4900     393.6226
   1418.55042     736.1914     394.1870   1418.55042     736.1914     394.1870
   1418.53516     736.6859     394.9024   1418.53516     736.6859     394.9024
   1418.51990     737.5095     395.4162   1418.51990     737.5095     395.4162
   1418.50464     739.4595     395.7806   1418.50464     739.4595     395.7806
   1418.48938     738.6257     395.5776   1418.48938     738.6257     395.5776
   1418.47412     739.2634     396.4422   1418.47412     739.2634     396.4422
   1418.45886     740.1313     397.2935   1418.45886     740.1313     397.2935
   1418.44360     741.1311     398.2180   1418.44360     741.1311     398.2180
   1418.42834     742.5089     398.0647   1418.42834     742.5089     398.0647
   1418.41309     743.5319     399.4651   1418.41309     743.5319     399.4651
   1418.39783     743.5662     399.3306   1418.39783     743.5662     399.3306
   1418.38257     745.2288     400.1499   1418.38257     745.2288     400.1499
   1418.36731     745.5273     400.7715   1418.36731     745.5273     400.7715
   1418.35205     745.2074     401.5112   1418.35205     745.2074     401.5112
   1418.33679     746.5551     402.2331   1418.33679     746.5551     402.2331
   1418.32153     748.1799     402.7058   1418.32153     748.1799     402.7058
   1418.30627     747.6747     402.8907   1418.30627     747.6747     402.8907
   1418.29102     748.4371     404.1349   1418.29102     748.4371     404.1349
   1418.27576     750.0091     404.1196   1418.27576     750.0091     404.1196
   1418.26050     751.3162     405.2539   1418.26050     751.3162     405.2539
   1418.24524     751.5436     406.3339   1418.24524     751.5436     406.3339
   1418.22998     753.4615     407.1652   1418.22998     753.4615     407.1652
   1418.21472     753.2809     407.4932   1418.21472     753.2809     407.4932
   1418.19946     755.2848     407.9464   1418.19946     755.2848     407.9464
   1418.18420     755.8588     408.6467   1418.18420     755.8588     408.6467
   1418.16895     756.8167     408.6902   1418.16895     756.8167     408.6902
   1418.15369     755.8890     409.8083   1418.15369     755.8890     409.8083
   1418.13843     758.4156     411.2372   1418.13843     758.4156     411.2372
   1418.12317     757.5042     411.9417   1418.12317     757.5042     411.9417
   1418.10791     758.8966     411.7828   1418.10791     758.8966     411.7828
   1418.09265     760.3398     413.1485   1418.09265     760.3398     413.1485
   1418.07739     759.8281     413.9049   1418.07739     759.8281     413.9049
   1418.06213     761.9241     415.3035   1418.06213     761.9241     415.3035
   1418.04688     763.4309     415.7757   1418.04688     763.4309     415.7757
   1418.03162     763.1848     416.4904   1418.03162     763.1848     416.4904
   1418.01636     764.0825     416.8398   1418.01636     764.0825     416.8398
   1418.00110     766.6804     418.4640   1418.00110     766.6804     418.4640
   1417.98584     767.7186     418.8535   1417.98584     767.7186     418.8535
   1417.97058     766.8510     419.3647   1417.97058     766.8510     419.3647
   1417.95532     768.9984     421.3050   1417.95532     768.9984     421.3050
   1417.94006     769.2200     421.4220   1417.94006     769.2200     421.4220
   1417.92480     769.9089     422.7436   1417.92480     769.9089     422.7436
   1417.90955     771.5662     422.9391   1417.90955     771.5662     422.9391
   1417.89429     771.8959     424.2282   1417.89429     771.8959     424.2282
   1417.87903     772.4373     425.4691   1417.87903     772.4373     425.4691
   1417.86377     774.0144     425.8412   1417.86377     774.0144     425.8412
   1417.84851     775.6643     427.0129   1417.84851     775.6643     427.0129
   1417.83325     775.4980     427.5845   1417.83325     775.4980     427.5845
   1417.81799     776.7263     428.6599   1417.81799     776.7263     428.6599
   1417.80273     777.1964     429.1329   1417.80273     777.1964     429.1329
   1417.78748     777.8940     430.4491   1417.78748     777.8940     430.4491
   1417.77222     779.4238     432.2465   1417.77222     779.4238     432.2465
   1417.75696     779.9028     432.9078   1417.75696     779.9028     432.9078
   1417.74170     780.7999     434.2949   1417.74170     780.7999     434.2949
   1417.72644     781.5644     433.8081   1417.72644     781.5644     433.8081
   1417.71118     783.5377     435.6985   1417.71118     783.5377     435.6985
   1417.69592     783.9774     436.9341   1417.69592     783.9774     436.9341
   1417.68066     784.2076     437.2050   1417.68066     784.2076     437.2050
   1417.66541     784.3253     438.8909   1417.66541     784.3253     438.8909
   1417.65015     785.6376     439.2386   1417.65015     785.6376     439.2386
   1417.63489     787.6616     441.4398   1417.63489     787.6616     441.4398
   1417.61963     788.2539     441.7291   1417.61963     788.2539     441.7291
   1417.60437     789.1633     443.1283   1417.60437     789.1633     443.1283
   1417.58911     790.1515     443.7277   1417.58911     790.1515     443.7277
   1417.57385     791.1914     445.7376   1417.57385     791.1914     445.7376
   1417.55859     792.5954     445.9406   1417.55859     792.5954     445.9406
   1417.54333     792.2572     446.5558   1417.54333     792.2572     446.5558
   1417.52808     794.9362     448.9450   1417.52808     794.9362     448.9450
   1417.51282     794.5309     449.4822   1417.51282     794.5309     449.4822
   1417.49756     795.5613     450.3917   1417.49756     795.5613     450.3917
   1417.48230     795.6999     452.4265   1417.48230     795.6999     452.4265
   1417.46704     796.4562     452.3591   1417.46704     796.4562     452.3591
   1417.45178     797.3156     453.9816   1417.45178     797.3156     453.9816
   1417.43652     798.6851     454.8433   1417.43652     798.6851     454.8433
   1417.42126     800.3376     456.4995   1417.42126     800.3376     456.4995
   1417.40601     800.9285     457.8474   1417.40601     800.9285     457.8474
   1417.39075     800.1517     457.8343   1417.39075     800.1517     457.8343
   1417.37549     800.6454     459.9173   1417.37549     800.6454     459.9173
   1417.36023     803.1171     461.2111   1417.36023     803.1171     461.2111
   1417.34497     802.7903     461.5722   1417.34497     802.7903     461.5722
   1417.32971     804.0775     462.8140   1417.32971     804.0775     462.8140
   1417.31445     804.1745     464.1479   1417.31445     804.1745     464.1479
   1417.29919     805.3271     465.3325   1417.29919     805.3271     465.3325
   1417.28394     807.2703     467.0396   1417.28394     807.2703     467.0396
   1417.26868     807.4526     467.7728   1417.26868     807.4526     467.7728
   1417.25342     808.3574     468.4743   1417.25342     808.3574     468.4743
   1417.23816     809.0223     469.4846   1417.23816     809.0223     469.4846
   1417.22290     810.1824     471.5042   1417.22290     810.1824     471.5042
   1417.20764     810.4077     471.5086   1417.20764     810.4077     471.5086
   1417.19238     810.3885     473.7085   1417.19238     810.3885     473.7085
   1417.17712     810.9242     474.1349   1417.17712     810.9242     474.1349
   1417.16187     811.6135     475.5237   1417.16187     811.6135     475.5237
   1417.14661     813.3154     477.4338   1417.14661     813.3154     477.4338
   1417.13135     814.2026     478.2461   1417.13135     814.2026     478.2461
   1417.11609     814.5208     479.3774   1417.11609     814.5208     479.3774
   1417.10083     814.3884     480.6723   1417.10083     814.3884     480.6723
   1417.08557     814.0432     481.4888   1417.08557     814.0432     481.4888
   1417.07031     814.8884     483.1370   1417.07031     814.8884     483.1370
   1417.05505     816.0828     484.5562   1417.05505     816.0828     484.5562
   1417.03979     816.8139     484.9780   1417.03979     816.8139     484.9780
   1417.02454     817.7457     486.4619   1417.02454     817.7457     486.4619
   1417.00928     817.8840     487.5151   1417.00928     817.8840     487.5151
   1416.99402     819.3461     488.4503   1416.99402     819.3461     488.4503
   1416.97876     819.9476     490.5216   1416.97876     819.9476     490.5216
   1416.96350     819.3984     490.3024   1416.96350     819.3984     490.3024
   1416.94824     819.5840     491.9052   1416.94824     819.5840     491.9052
   1416.93298     820.9875     493.2302   1416.93298     820.9875     493.2302
   1416.91772     821.9402     494.8366   1416.91772     821.9402     494.8366
   1416.90247     820.8171     495.3725   1416.90247     820.8171     495.3725
   1416.88721     822.4163     495.9536   1416.88721     822.4163     495.9536
   1416.87195     821.1048     497.6498   1416.87195     821.1048     497.6498
   1416.85669     822.0649     497.8252   1416.85669     822.0649     497.8252
   1416.84143     823.8888     499.9704   1416.84143     823.8888     499.9704
   1416.82617     822.2379     500.6246   1416.82617     822.2379     500.6246
   1416.81091     824.8162     502.0585   1416.81091     824.8162     502.0585
   1416.79565     824.3900     502.2030   1416.79565     824.3900     502.2030
   1416.78040     824.3633     503.6785   1416.78040     824.3633     503.6785
   1416.76514     825.1367     503.8942   1416.76514     825.1367     503.8942
   1416.74988     823.8998     505.5308   1416.74988     823.8998     505.5308
   1416.73462     825.5775     506.2954   1416.73462     825.5775     506.2954
   1416.71936     825.7773     506.6287   1416.71936     825.7773     506.6287
   1416.70410     825.2869     507.9258   1416.70410     825.2869     507.9258
   1416.68884     825.5754     508.9652   1416.68884     825.5754     508.9652
   1416.67358     825.7723     509.6300   1416.67358     825.7723     509.6300
   1416.65833     826.7156     510.8770   1416.65833     826.7156     510.8770
   1416.64307     824.3502     511.7023   1416.64307     824.3502     511.7023
   1416.62781     826.7327     512.4547   1416.62781     826.7327     512.4547
   1416.61255     826.9665     513.2200   1416.61255     826.9665     513.2200
   1416.59729     827.5430     514.6969   1416.59729     827.5430     514.6969
   1416.58203     825.6910     515.3789   1416.58203     825.6910     515.3789
   1416.56677     826.9611     516.4572   1416.56677     826.9611     516.4572
   1416.55151     826.8244     517.0186   1416.55151     826.8244     517.0186
   1416.53625     826.6660     518.2692   1416.53625     826.6660     518.2692
   1416.52100     826.0218     518.5411   1416.52100     826.0218     518.5411
   1416.50574     826.3373     518.8789   1416.50574     826.3373     518.8789
   1416.49048     827.1182     518.4188   1416.49048     827.1182     518.4188
   1416.47522     825.4636     520.2767   1416.47522     825.4636     520.2767
   1416.45996     826.5263     520.3810   1416.45996     826.5263     520.3810
   1416.44470     826.5182     521.6757   1416.44470     826.5182     521.6757
   1416.42944     826.4659     522.1783   1416.42944     826.4659     522.1783
   1416.41418     825.0719     522.3674   1416.41418     825.0719     522.3674
   1416.39893     826.4995     522.7817   1416.39893     826.4995     522.7817
   1416.38367     825.6102     523.2875   1416.38367     825.6102     523.2875
   1416.36841     824.2076     524.7111   1416.36841     824.2076     524.7111
   1416.35315     826.4457     525.1632   1416.35315     826.4457     525.1632
   1416.33789     824.2919     524.7892   1416.33789     824.2919     524.7892
   1416.32263     823.8884     525.4943   1416.32263     823.8884     525.4943
   1416.30737     823.4283     526.4891   1416.30737     823.4283     526.4891
   1416.29211     824.0713     526.6120   1416.29211     824.0713     526.6120
   1416.27686     822.6274     527.2996   1416.27686     822.6274     527.2996
   1416.26160     822.9581     526.6970   1416.26160     822.9581     526.6970
   1416.24634     822.6458     527.3669   1416.24634     822.6458     527.3669
   1416.23108     821.5344     528.5059   1416.23108     821.5344     528.5059
   1416.21582     821.8600     528.6613   1416.21582     821.8600     528.6613
   1416.20056     820.0723     528.4958   1416.20056     820.0723     528.4958
   1416.18530     821.8954     528.3257   1416.18530     821.8954     528.3257
   1416.17004     819.7965     527.6641   1416.17004     819.7965     527.6641
   1416.15479     820.6854     528.3555   1416.15479     820.6854     528.3555
   1416.13953     818.0465     530.1108   1416.13953     818.0465     530.1108
   1416.12427     817.6933     530.4083   1416.12427     817.6933     530.4083
   1416.10901     817.6080     529.3557   1416.10901     817.6080     529.3557
   1416.09375     817.9749     529.4772   1416.09375     817.9749     529.4772
   1416.07849     817.6522     530.3825   1416.07849     817.6522     530.3825
   1416.06323     816.1509     529.6437   1416.06323     816.1509     529.6437
   1416.04797     816.0616     530.0839   1416.04797     816.0616     530.0839
   1416.03271     815.1516     530.1941   1416.03271     815.1516     530.1941
   1416.01746     813.9178     529.4495   1416.01746     813.9178     529.4495
   1416.00220     813.7283     530.1994   1416.00220     813.7283     530.1994
   1415.98694     812.8099     530.9415   1415.98694     812.8099     530.9415
   1415.97168     811.5150     531.1826   1415.97168     811.5150     531.1826
   1415.95642     811.4490     530.9297   1415.95642     811.4490     530.9297
   1415.94116     812.0981     531.0710   1415.94116     812.0981     531.0710
   1415.92590     809.7449     530.3624   1415.92590     809.7449     530.3624
   1415.91064     809.0204     530.5897   1415.91064     809.0204     530.5897
   1415.89539     808.3268     531.2292   1415.89539     808.3268     531.2292
   1415.88013     807.3335     530.3739   1415.88013     807.3335     530.3739
   1415.86487     806.2492     530.7228   1415.86487     806.2492     530.7228
   1415.84961     807.4248     531.2801   1415.84961     807.4248     531.2801
   1415.83435     805.5034     529.7210   1415.83435     805.5034     529.7210
   1415.81909     804.4731     530.3406   1415.81909     804.4731     530.3406
   1415.80383     803.2823     530.4088   1415.80383     803.2823     530.4088
   1415.78857     802.6081     530.0140   1415.78857     802.6081     530.0140
   1415.77332     802.0919     530.2556   1415.77332     802.0919     530.2556
   1415.75806     800.9679     529.8856   1415.75806     800.9679     529.8856
   1415.74280     799.9640     528.7646   1415.74280     799.9640     528.7646
   1415.72754     799.0850     529.8783   1415.72754     799.0850     529.8783
   1415.71228     797.7522     529.4392   1415.71228     797.7522     529.4392
   1415.69702     796.5814     529.0668   1415.69702     796.5814     529.0668
   1415.68176     795.8686     528.0576   1415.68176     795.8686     528.0576
   1415.66650     795.1619     528.9551   1415.66650     795.1619     528.9551
   1415.65125     795.2560     529.4286   1415.65125     795.2560     529.4286
   1415.63599     794.6168     527.6863   1415.63599     794.6168     527.6863
   1415.62073     792.2173     528.1581   1415.62073     792.2173     528.1581
   1415.60547     791.4603     528.2537   1415.60547     791.4603     528.2537
   1415.59021     790.1840     526.9346   1415.59021     790.1840     526.9346
   1415.57495     789.4152     527.5905   1415.57495     789.4152     527.5905
   1415.55969     788.9679     527.1799   1415.55969     788.9679     527.1799
   1415.54443     787.5235     527.3443   1415.54443     787.5235     527.3443
   1415.52917     785.4200     526.2318   1415.52917     785.4200     526.2318
   1415.51392     784.8647     525.7915   1415.51392     784.8647     525.7915
   1415.49866     784.4270     525.0610   1415.49866     784.4270     525.0610
   1415.48340     781.6199     525.1673   1415.48340     781.6199     525.1673
   1415.46814     782.2854     525.9453   1415.46814     782.2854     525.9453
   1415.45288     781.6985     525.7831   1415.45288     781.6985     525.7831
   1415.43762     779.7631     524.9668   1415.43762     779.7631     524.9668
   1415.42236     778.5237     524.0875   1415.42236     778.5237     524.0875
   1415.40710     777.6978     524.1445   1415.40710     777.6978     524.1445
   1415.39185     775.6083     524.0479   1415.39185     775.6083     524.0479
   1415.37659     774.2307     522.3434   1415.37659     774.2307     522.3434
   1415.36133     772.9536     522.7999   1415.36133     772.9536     522.7999
   1415.34607     771.3810     522.3636   1415.34607     771.3810     522.3636
   1415.33081     772.1028     522.2360   1415.33081     772.1028     522.2360
   1415.31555     769.5229     520.9209   1415.31555     769.5229     520.9209
   1415.30029     768.0459     520.4906   1415.30029     768.0459     520.4906
   1415.28503     768.3765     520.5252   1415.28503     768.3765     520.5252
   1415.26978     767.5970     519.7725   1415.26978     767.5970     519.7725
   1415.25452     765.4784     518.9316   1415.25452     765.4784     518.9316
   1415.23926     764.0220     519.0216   1415.23926     764.0220     519.0216
   1415.22400     762.2562     518.2610   1415.22400     762.2562     518.2610
   1415.20874     762.0029     517.4139   1415.20874     762.0029     517.4139
   1415.19348     758.8928     516.7435   1415.19348     758.8928     516.7435
   1415.17822     758.3748     517.2559   1415.17822     758.3748     517.2559
   1415.16296     756.7448     516.2679   1415.16296     756.7448     516.2679
   1415.14771     756.3551     515.5024   1415.14771     756.3551     515.5024
   1415.13245     755.1382     514.6445   1415.13245     755.1382     514.6445
   1415.11719     752.3438     514.7466   1415.11719     752.3438     514.7466
   1415.10193     749.7771     513.9100   1415.10193     749.7771     513.9100
   1415.08667     749.1282     513.0472   1415.08667     749.1282     513.0472
   1415.07141     748.7962     511.5148   1415.07141     748.7962     511.5148
   1415.05615     746.6978     511.6750   1415.05615     746.6978     511.6750
   1415.04089     743.9038     511.5510   1415.04089     743.9038     511.5510
   1415.02563     743.3577     510.9585   1415.02563     743.3577     510.9585
   1415.01038     741.5923     510.0406   1415.01038     741.5923     510.0406
   1414.99512     740.4147     508.1565   1414.99512     740.4147     508.1565
   1414.97986     739.7745     507.8729   1414.97986     739.7745     507.8729
   1414.96460     736.9941     508.0004   1414.96460     736.9941     508.0004
   1414.94934     736.1110     507.2499   1414.94934     736.1110     507.2499
   1414.93408     733.4128     505.9384   1414.93408     733.4128     505.9384
   1414.91882     732.3275     505.4844   1414.91882     732.3275     505.4844
   1414.90356     729.8787     505.3283   1414.90356     729.8787     505.3283
   1414.88831     728.9414     504.0786   1414.88831     728.9414     504.0786
   1414.87305     726.2044     502.4017   1414.87305     726.2044     502.4017
   1414.85779     724.5400     501.9270   1414.85779     724.5400     501.9270
   1414.84253     722.2103     501.8379   1414.84253     722.2103     501.8379
   1414.82727     721.8929     500.4157   1414.82727     721.8929     500.4157
   1414.81201     720.0991     499.3866   1414.81201     720.0991     499.3866
   1414.79675     718.1583     499.0424   1414.79675     718.1583     499.0424
   1414.78149     715.7860     497.5227   1414.78149     715.7860     497.5227
   1414.76624     714.4745     496.2118   1414.76624     714.4745     496.2118
   1414.75098     712.8779     495.8375   1414.75098     712.8779     495.8375
   1414.73572     709.9621     494.9410   1414.73572     709.9621     494.9410
   1414.72046     709.2187     492.5114   1414.72046     709.2187     492.5114
   1414.70520     706.4744     493.3518   1414.70520     706.4744     493.3518
   1414.68994     704.4398     491.6302   1414.68994     704.4398     491.6302
   1414.67468     703.5123     490.7176   1414.67468     703.5123     490.7176
   1414.65942     699.9680     489.6864   1414.65942     699.9680     489.6864
   1414.64417     700.2013     489.1571   1414.64417     700.2013     489.1571
   1414.62891     697.1162     488.1945   1414.62891     697.1162     488.1945
   1414.61365     695.0431     486.3712   1414.61365     695.0431     486.3712
   1414.59839     692.1923     485.2401   1414.59839     692.1923     485.2401
   1414.58313     691.1571     485.1719   1414.58313     691.1571     485.1719
   1414.56787     687.9006     483.5912   1414.56787     687.9006     483.5912
   1414.55261     686.5303     481.8079   1414.55261     686.5303     481.8079
   1414.53735     683.7503     481.0859   1414.53735     683.7503     481.0859
   1414.52209     681.3341     480.2085   1414.52209     681.3341     480.2085
   1414.50684     680.2502     478.5792   1414.50684     680.2502     478.5792
   1414.49158     677.4739     477.8555   1414.49158     677.4739     477.8555
   1414.47632     675.0013     476.0897   1414.47632     675.0013     476.0897
   1414.46106     673.0845     474.4925   1414.46106     673.0845     474.4925
   1414.44580     670.4909     474.6911   1414.44580     670.4909     474.6911
   1414.43054     668.9008     473.1290   1414.43054     668.9008     473.1290
   1414.41528     666.5284     470.9963   1414.41528     666.5284     470.9963
   1414.40002     663.5789     469.6650   1414.40002     663.5789     469.6650
   1414.38477     662.0323     468.3891   1414.38477     662.0323     468.3891
   1414.36951     659.3589     466.7921   1414.36951     659.3589     466.7921
   1414.35425     656.1682     465.4147   1414.35425     656.1682     465.4147
   1414.33899     654.1915     465.6037   1414.33899     654.1915     465.6037
   1414.32373     653.0255     462.9352   1414.32373     653.0255     462.9352
   1414.30847     649.1294     461.8017   1414.30847     649.1294     461.8017
   1414.29321     647.1428     460.5934   1414.29321     647.1428     460.5934
   1414.27795     644.9271     459.3636   1414.27795     644.9271     459.3636
   1414.26270     642.7305     457.4645   1414.26270     642.7305     457.4645
   1414.24744     640.3301     456.5388   1414.24744     640.3301     456.5388
   1414.23218     636.1976     455.0638   1414.23218     636.1976     455.0638
   1414.21692     634.6116     453.1514   1414.21692     634.6116     453.1514
   1414.20166     632.1838     451.4092   1414.20166     632.1838     451.4092
   1414.18640     630.5989     449.7541   1414.18640     630.5989     449.7541
   1414.17114     626.8466     448.2807   1414.17114     626.8466     448.2807
   1414.15588     624.8928     446.9286   1414.15588     624.8928     446.9286
   1414.14062     623.0550     445.5062   1414.14062     623.0550     445.5062
   1414.12537     618.9439     444.8022   1414.12537     618.9439     444.8022
   1414.11011     615.6650     443.3577   1414.11011     615.6650     443.3577
   1414.09485     614.0284     440.8884   1414.09485     614.0284     440.8884
   1414.07959     612.0647     439.3445   1414.07959     612.0647     439.3445
   1414.06433     608.9441     437.5056   1414.06433     608.9441     437.5056
   1414.04907     606.1162     435.7399   1414.04907     606.1162     435.7399
   1414.03381     603.1694     434.7625   1414.03381     603.1694     434.7625
   1414.01855     602.0023     433.1728   1414.01855     602.0023     433.1728
   1414.00330     628.3571     440.4190   1414.00330     628.3571     440.4190
   1413.98804     596.9139     430.3887   1413.98804     596.9139     430.3887
   1413.97278     593.9177     429.0828   1413.97278     593.9177     429.0828
   1413.95752     589.2803     427.1901   1413.95752     589.2803     427.1901
   1413.94226     587.1835     425.0621   1413.94226     587.1835     425.0621
   1413.92700     584.1959     423.1590   1413.92700     584.1959     423.1590
   1413.91174     581.0671     421.7101   1413.91174     581.0671     421.7101
   1413.89648     578.6999     419.5912   1413.89648     578.6999     419.5912
   1413.88123     575.1755     418.4940   1413.88123     575.1755     418.4940
   1413.86597     572.8782     416.5125   1413.86597     572.8782     416.5125
   1413.85071     570.3329     414.7974   1413.85071     570.3329     414.7974
   1413.83545     568.0461     413.5595   1413.83545     568.0461     413.5595
   1413.82019     563.6569     411.4648   1413.82019     563.6569     411.4648
   1413.80493     561.2682     409.4531   1413.80493     561.2682     409.4531
   1413.78967     558.7843     408.2893   1413.78967     558.7843     408.2893
   1413.77441     555.3669     406.1941   1413.77441     555.3669     406.1941
   1413.75916     553.1630     405.1983   1413.75916     553.1630     405.1983
   1413.74390     550.4590     403.1774   1413.74390     550.4590     403.1774
   1413.72864     547.6917     400.7127   1413.72864     547.6917     400.7127
   1413.71338     544.3969     400.2568   1413.71338     544.3969     400.2568
   1413.69812     542.3058     397.6131   1413.69812     542.3058     397.6131
   1413.68286     538.7435     396.1339   1413.68286     538.7435     396.1339
   1413.66760     535.9725     394.6395   1413.66760     535.9725     394.6395
   1413.65234     533.9016     392.5477   1413.65234     533.9016     392.5477
   1413.63708     530.0496     390.9453   1413.63708     530.0496     390.9453
   1413.62183     527.9250     389.1798   1413.62183     527.9250     389.1798
   1413.60657     524.3877     387.5295   1413.60657     524.3877     387.5295
   1413.59131     521.7757     385.9244   1413.59131     521.7757     385.9244
   1413.57605     519.0734     384.1818   1413.57605     519.0734     384.1818
   1413.56079     515.6916     382.8488   1413.56079     515.6916     382.8488
   1413.54553     512.8140     380.5197   1413.54553     512.8140     380.5197
   1413.53027     511.0642     379.4312   1413.53027     511.0642     379.4312
   1413.51501     507.0880     377.5082   1413.51501     507.0880     377.5082
   1413.49976     504.7595     375.7075   1413.49976     504.7595     375.7075
   1413.48450     502.4038     374.6686   1413.48450     502.4038     374.6686
   1413.46924     498.9026     372.7306   1413.46924     498.9026     372.7306
   1413.45398     496.3766     371.1786   1413.45398     496.3766     371.1786
   1413.43872     493.8570     370.0919   1413.43872     493.8570     370.0919
   1413.42346     491.3267     367.4503   1413.42346     491.3267     367.4503
   1413.40820     488.4598     366.0832   1413.40820     488.4598     366.0832
   1413.39294     485.6680     364.7648   1413.39294     485.6680     364.7648
   1413.37769     483.1860     362.4977   1413.37769     483.1860     362.4977
   1413.36243     480.6429     361.3636   1413.36243     480.6429     361.3636
   1413.34717     477.1387     359.7273   1413.34717     477.1387     359.7273
   1413.33191     475.6954     359.0224   1413.33191     475.6954     359.0224
   1413.31665     472.7700     356.7144   1413.31665     472.7700     356.7144
   1413.30139     469.7059     355.6337   1413.30139     469.7059     355.6337
   1413.28613     467.7625     353.3719   1413.28613     467.7625     353.3719
   1413.27087     465.4601     352.8503   1413.27087     465.4601     352.8503
   1413.25562     461.7720     351.0698   1413.25562     461.7720     351.0698
   1413.24036     459.5695     349.5870   1413.24036     459.5695     349.5870
   1413.22510     457.4223     348.5302   1413.22510     457.4223     348.5302
   1413.20984     455.6377     346.4133   1413.20984     455.6377     346.4133
   1413.19458     452.0319     345.3165   1413.19458     452.0319     345.3165
   1413.17932     449.3813     343.9509   1413.17932     449.3813     343.9509
   1413.16406     447.1127     342.6205   1413.16406     447.1127     342.6205
   1413.14880     445.5154     341.5098   1413.14880     445.5154     341.5098
   1413.13354     443.0945     340.8075   1413.13354     443.0945     340.8075
   1413.11829     439.9886     339.2911   1413.11829     439.9886     339.2911
   1413.10303     437.5470     337.5028   1413.10303     437.5470     337.5028
   1413.08777     436.2380     336.0829   1413.08777     436.2380     336.0829
   1413.07251     433.7842     335.7534   1413.07251     433.7842     335.7534
   1413.05725     431.5912     334.2476   1413.05725     431.5912     334.2476
   1413.04199     429.7838     333.4972   1413.04199     429.7838     333.4972
   1413.02673     427.7305     332.3804   1413.02673     427.7305     332.3804
   1413.01147     425.3020     331.5752   1413.01147     425.3020     331.5752
   1412.99622     423.3180     329.8774   1412.99622     423.3180     329.8774
   1412.98096     421.5187     329.2394   1412.98096     421.5187     329.2394
   1412.96570     419.8206     329.1859   1412.96570     419.8206     329.1859
   1412.95044     417.3432     327.6192   1412.95044     417.3432     327.6192
   1412.93518     415.6590     326.2398   1412.93518     415.6590     326.2398
   1412.91992     413.9680     325.8474   1412.91992     413.9680     325.8474
   1412.90466     411.4820     325.1697   1412.90466     411.4820     325.1697
   1412.88940     409.6783     324.0754   1412.88940     409.6783     324.0754
   1412.87415     408.2776     323.4654   1412.87415     408.2776     323.4654
   1412.85889     406.1812     322.6512   1412.85889     406.1812     322.6512
   1412.84363     404.4420     322.0835   1412.84363     404.4420     322.0835
   1412.82837     403.4809     321.8427   1412.82837     403.4809     321.8427
   1412.81311     401.5023     320.8214   1412.81311     401.5023     320.8214
   1412.79785     400.3296     320.5983   1412.79785     400.3296     320.5983
   1412.78259     398.7836     319.7764   1412.78259     398.7836     319.7764
   1412.76733     397.9236     320.1414   1412.76733     397.9236     320.1414
   1412.75208     396.1132     319.4802   1412.75208     396.1132     319.4802
   1412.73682     394.5738     318.8183   1412.73682     394.5738     318.8183
   1412.72156     392.9409     318.5293   1412.72156     392.9409     318.5293
   1412.70630     392.3187     318.5316   1412.70630     392.3187     318.5316
   1412.69104     391.0883     318.6755   1412.69104     391.0883     318.6755
   1412.67578     389.9582     318.1152   1412.67578     389.9582     318.1152
   1412.66052     388.8376     318.1975   1412.66052     388.8376     318.1975
   1412.64526     387.6205     317.9903   1412.64526     387.6205     317.9903
   1412.63000     386.5108     317.8115   1412.63000     386.5108     317.8115
   1412.61475     385.7905     317.7782   1412.61475     385.7905     317.7782
   1412.59949     385.0786     318.0905   1412.59949     385.0786     318.0905
   1412.58423     384.3965     318.0560   1412.58423     384.3965     318.0560
   1412.56897     383.3863     317.9637   1412.56897     383.3863     317.9637
   1412.55371     382.5876     318.7708   1412.55371     382.5876     318.7708
   1412.53845     381.8998     318.2491   1412.53845     381.8998     318.2491
   1412.52319     381.2154     319.5797   1412.52319     381.2154     319.5797
   1412.50793     381.3161     319.9729   1412.50793     381.3161     319.9729
   1412.49268     379.9285     319.3032   1412.49268     379.9285     319.3032
   1412.47742     379.8930     320.1603   1412.47742     379.8930     320.1603
   1412.46216     379.3604     320.4757   1412.46216     379.3604     320.4757
   1412.44690     378.6476     321.2086   1412.44690     378.6476     321.2086
   1412.43164     378.8755     321.7145   1412.43164     378.8755     321.7145
   1412.41638     378.5543     322.4157   1412.41638     378.5543     322.4157
   1412.40112     378.1905     322.9651   1412.40112     378.1905     322.9651
   1412.38586     378.5370     323.8520   1412.38586     378.5370     323.8520
   1412.37061     378.6895     324.3576   1412.37061     378.6895     324.3576
   1412.35535     377.8110     324.8446   1412.35535     377.8110     324.8446
   1412.34009     377.7917     325.9878   1412.34009     377.7917     325.9878
   1412.32483     377.9642     327.0724   1412.32483     377.9642     327.0724
   1412.30957     378.5348     327.8794   1412.30957     378.5348     327.8794
   1412.29431     379.0986     328.8021   1412.29431     379.0986     328.8021
   1412.27905     378.8327     330.0753   1412.27905     378.8327     330.0753
   1412.26379     379.1853     331.3607   1412.26379     379.1853     331.3607
   1412.24854     380.2301     332.2867   1412.24854     380.2301     332.2867
   1412.23328     380.2703     333.3152   1412.23328     380.2703     333.3152
   1412.21802     380.0349     334.4711   1412.21802     380.0349     334.4711
   1412.20276     380.8325     336.3414   1412.20276     380.8325     336.3414