#     FILENAME=!Skynet_57528_lach-cc-227_20643_21031.cyb.fits
#     BASENAME=Skynet_57528_lach-cc-227_20643_21031
#     SRC_NAME=lach-cc-227
#     OBSERVER=ccmadison16_9505
#     DATE_OBS=2016-05-20T19:38:20.620
#        OBSID=20643
#      SCANNUM=21031
#          MJD=57528.8193
#          UTC=70789
#     SCANTYPE=track
#     DATAMODE=HIRES
#     TUNEFREQ=1420.0000
# Actual_FREQ1=1420.0000
# Actual_FREQ2=1420.0000
#    LO1Tuning=6870.000
#     RFFILTER=1355_1435
#        OBSBW=-15.6250
#        NCHAN=1024 
#        FOCUS=37.0709
#           RA=07:17:29.39
#          DEC=-12:29:37.40
#      RA(hrs)=7.291500
#     DEC(deg)=-12.493700
#    AZIM(deg)=159.911
#    ELEV(deg)=36.748
#     IFattens=10.00, 9.00
#      WARNING=None
#    TCAL_XL1=7.9635
#    TCAL_YR1=9.1340
#    TCAL_XL2=7.9635
#    TCAL_YR2=9.1340
#     TRX_XL1=11.7060
#     TRX_YR1=11.7060
#     TRX_XL2=11.7060
#     TRX_YR2=11.7060
#        TAVE=1.0000
#Freq1(MHz)          XL1          YR1  Freq2(MHz)          XL2          YR2 

   1427.81250     355.1665     276.7014   1427.81250     355.1665     276.7014
   1427.79724     356.6613     275.8626   1427.79724     356.6613     275.8626
   1427.78198     357.0825     277.3120   1427.78198     357.0825     277.3120
   1427.76672     358.2567     277.7881   1427.76672     358.2567     277.7881
   1427.75146     359.0022     278.1783   1427.75146     359.0022     278.1783
   1427.73621     359.6592     279.0136   1427.73621     359.6592     279.0136
   1427.72095     360.6509     279.5591   1427.72095     360.6509     279.5591
   1427.70569     361.7511     280.1316   1427.70569     361.7511     280.1316
   1427.69043     362.1355     280.9250   1427.69043     362.1355     280.9250
   1427.67517     363.6784     281.7415   1427.67517     363.6784     281.7415
   1427.65991     365.3129     282.5995   1427.65991     365.3129     282.5995
   1427.64465     365.6371     283.4281   1427.64465     365.6371     283.4281
   1427.62939     367.6111     283.9032   1427.62939     367.6111     283.9032
   1427.61414     368.6135     285.3879   1427.61414     368.6135     285.3879
   1427.59888     370.1454     286.4236   1427.59888     370.1454     286.4236
   1427.58362     370.4611     287.0024   1427.58362     370.4611     287.0024
   1427.56836     372.2162     287.8493   1427.56836     372.2162     287.8493
   1427.55310     374.0079     288.6356   1427.55310     374.0079     288.6356
   1427.53784     375.9674     290.1847   1427.53784     375.9674     290.1847
   1427.52258     376.9904     291.5180   1427.52258     376.9904     291.5180
   1427.50732     379.0561     292.6049   1427.50732     379.0561     292.6049
   1427.49207     380.8587     293.5288   1427.49207     380.8587     293.5288
   1427.47681     382.7738     294.8743   1427.47681     382.7738     294.8743
   1427.46155     383.7384     296.4851   1427.46155     383.7384     296.4851
   1427.44629     385.7132     297.5001   1427.44629     385.7132     297.5001
   1427.43103     387.8801     298.7126   1427.43103     387.8801     298.7126
   1427.41577     389.3797     300.0347   1427.41577     389.3797     300.0347
   1427.40051     391.8351     301.1232   1427.40051     391.8351     301.1232
   1427.38525     393.1409     303.5689   1427.38525     393.1409     303.5689
   1427.37000     395.2114     304.9563   1427.37000     395.2114     304.9563
   1427.35474     397.6193     305.6397   1427.35474     397.6193     305.6397
   1427.33948     399.6540     307.5225   1427.33948     399.6540     307.5225
   1427.32422     401.2408     309.2984   1427.32422     401.2408     309.2984
   1427.30896     403.5747     310.8277   1427.30896     403.5747     310.8277
   1427.29370     405.2072     311.9420   1427.29370     405.2072     311.9420
   1427.27844     407.8172     313.7851   1427.27844     407.8172     313.7851
   1427.26318     410.3257     315.4436   1427.26318     410.3257     315.4436
   1427.24792     412.1896     317.1280   1427.24792     412.1896     317.1280
   1427.23267     414.8328     319.1517   1427.23267     414.8328     319.1517
   1427.21741     417.4042     321.4659   1427.21741     417.4042     321.4659
   1427.20215     419.1339     323.0389   1427.20215     419.1339     323.0389
   1427.18689     422.0089     324.4722   1427.18689     422.0089     324.4722
   1427.17163     424.0322     326.5780   1427.17163     424.0322     326.5780
   1427.15637     426.7148     328.3540   1427.15637     426.7148     328.3540
   1427.14111     429.2525     329.6581   1427.14111     429.2525     329.6581
   1427.12585     431.9076     331.9322   1427.12585     431.9076     331.9322
   1427.11060     434.7707     334.2964   1427.11060     434.7707     334.2964
   1427.09534     436.8011     336.5435   1427.09534     436.8011     336.5435
   1427.08008     438.8604     337.1284   1427.08008     438.8604     337.1284
   1427.06482     441.9227     340.4419   1427.06482     441.9227     340.4419
   1427.04956     444.5365     342.0014   1427.04956     444.5365     342.0014
   1427.03430     447.0752     344.7917   1427.03430     447.0752     344.7917
   1427.01904     449.4537     346.1769   1427.01904     449.4537     346.1769
   1427.00378     452.6660     348.2116   1427.00378     452.6660     348.2116
   1426.98853     454.7205     350.0399   1426.98853     454.7205     350.0399
   1426.97327     457.2183     352.3338   1426.97327     457.2183     352.3338
   1426.95801     460.7105     354.3730   1426.95801     460.7105     354.3730
   1426.94275     462.8257     356.9756   1426.94275     462.8257     356.9756
   1426.92749     465.9673     359.2708   1426.92749     465.9673     359.2708
   1426.91223     468.9311     361.6556   1426.91223     468.9311     361.6556
   1426.89697     471.3766     363.3505   1426.89697     471.3766     363.3505
   1426.88171     474.4255     364.9442   1426.88171     474.4255     364.9442
   1426.86646     476.6131     368.4184   1426.86646     476.6131     368.4184
   1426.85120     479.8846     370.0863   1426.85120     479.8846     370.0863
   1426.83594     481.8866     372.6249   1426.83594     481.8866     372.6249
   1426.82068     485.4579     374.5268   1426.82068     485.4579     374.5268
   1426.80542     488.1223     377.2578   1426.80542     488.1223     377.2578
   1426.79016     491.4761     378.8947   1426.79016     491.4761     378.8947
   1426.77490     493.6874     381.6777   1426.77490     493.6874     381.6777
   1426.75964     496.3629     384.0012   1426.75964     496.3629     384.0012
   1426.74438     499.4741     386.7466   1426.74438     499.4741     386.7466
   1426.72913     501.8024     388.9203   1426.72913     501.8024     388.9203
   1426.71387     505.6552     391.1282   1426.71387     505.6552     391.1282
   1426.69861     507.7380     393.0481   1426.69861     507.7380     393.0481
   1426.68335     510.7824     395.3763   1426.68335     510.7824     395.3763
   1426.66809     514.1979     398.3407   1426.66809     514.1979     398.3407
   1426.65283     517.4103     400.5774   1426.65283     517.4103     400.5774
   1426.63757     519.8831     403.4564   1426.63757     519.8831     403.4564
   1426.62231     525.1984     408.4405   1426.62231     525.1984     408.4405
   1426.60706     525.6315     408.0430   1426.60706     525.6315     408.0430
   1426.59180     527.9380     409.7180   1426.59180     527.9380     409.7180
   1426.57654     530.4911     412.7453   1426.57654     530.4911     412.7453
   1426.56128     533.7984     414.9794   1426.56128     533.7984     414.9794
   1426.54602     537.1907     417.1469   1426.54602     537.1907     417.1469
   1426.53076     539.9319     420.3892   1426.53076     539.9319     420.3892
   1426.51550     542.2943     421.8777   1426.51550     542.2943     421.8777
   1426.50024     545.1471     424.4514   1426.50024     545.1471     424.4514
   1426.48499     547.8317     427.1115   1426.48499     547.8317     427.1115
   1426.46973     550.1484     429.3589   1426.46973     550.1484     429.3589
   1426.45447     553.2391     431.5874   1426.45447     553.2391     431.5874
   1426.43921     556.2952     434.1547   1426.43921     556.2952     434.1547
   1426.42395     558.3155     436.7729   1426.42395     558.3155     436.7729
   1426.40869     561.4542     438.9802   1426.40869     561.4542     438.9802
   1426.39343     564.0199     441.4924   1426.39343     564.0199     441.4924
   1426.37817     567.9166     443.9937   1426.37817     567.9166     443.9937
   1426.36292     569.9492     446.0599   1426.36292     569.9492     446.0599
   1426.34766     571.8528     449.0210   1426.34766     571.8528     449.0210
   1426.33240     574.9502     450.5896   1426.33240     574.9502     450.5896
   1426.31714     577.7932     453.8991   1426.31714     577.7932     453.8991
   1426.30188     579.9610     456.6425   1426.30188     579.9610     456.6425
   1426.28662     583.0847     458.3439   1426.28662     583.0847     458.3439
   1426.27136     585.3378     461.2639   1426.27136     585.3378     461.2639
   1426.25610     588.2887     463.4912   1426.25610     588.2887     463.4912
   1426.24084     591.0398     466.2608   1426.24084     591.0398     466.2608
   1426.22559     592.9420     468.4892   1426.22559     592.9420     468.4892
   1426.21033     595.8781     470.5139   1426.21033     595.8781     470.5139
   1426.19507     598.4765     473.1135   1426.19507     598.4765     473.1135
   1426.17981     600.1057     475.0298   1426.17981     600.1057     475.0298
   1426.16455     603.5209     477.5250   1426.16455     603.5209     477.5250
   1426.14929     606.1890     480.0179   1426.14929     606.1890     480.0179
   1426.13403     607.7100     482.0760   1426.13403     607.7100     482.0760
   1426.11877     610.2778     484.1892   1426.11877     610.2778     484.1892
   1426.10352     612.0403     487.4129   1426.10352     612.0403     487.4129
   1426.08826     614.2535     489.5005   1426.08826     614.2535     489.5005
   1426.07300     617.2244     491.0877   1426.07300     617.2244     491.0877
   1426.05774     619.4838     493.6936   1426.05774     619.4838     493.6936
   1426.04248     621.8347     495.9036   1426.04248     621.8347     495.9036
   1426.02722     623.5585     498.9289   1426.02722     623.5585     498.9289
   1426.01196     625.7340     500.7333   1426.01196     625.7340     500.7333
   1425.99670     628.8534     502.2497   1425.99670     628.8534     502.2497
   1425.98145     630.6708     505.6512   1425.98145     630.6708     505.6512
   1425.96619     633.1990     507.1779   1425.96619     633.1990     507.1779
   1425.95093     635.5784     509.3362   1425.95093     635.5784     509.3362
   1425.93567     636.9667     511.3245   1425.93567     636.9667     511.3245
   1425.92041     638.7486     513.8294   1425.92041     638.7486     513.8294
   1425.90515     641.5759     516.6811   1425.90515     641.5759     516.6811
   1425.88989     643.0256     518.5195   1425.88989     643.0256     518.5195
   1425.87463     644.8893     520.5800   1425.87463     644.8893     520.5800
   1425.85938     647.3947     522.9910   1425.85938     647.3947     522.9910
   1425.84412     648.8698     524.9258   1425.84412     648.8698     524.9258
   1425.82886     650.5486     527.4354   1425.82886     650.5486     527.4354
   1425.81360     651.9081     529.3881   1425.81360     651.9081     529.3881
   1425.79834     654.3007     531.0185   1425.79834     654.3007     531.0185
   1425.78308     655.9263     533.8161   1425.78308     655.9263     533.8161
   1425.76782     658.6243     536.0218   1425.76782     658.6243     536.0218
   1425.75256     658.7806     537.4074   1425.75256     658.7806     537.4074
   1425.73730     661.0081     539.4048   1425.73730     661.0081     539.4048
   1425.72205     662.5999     541.4913   1425.72205     662.5999     541.4913
   1425.70679     663.1267     544.3991   1425.70679     663.1267     544.3991
   1425.69153     665.3817     544.7692   1425.69153     665.3817     544.7692
   1425.67627     667.5440     548.1352   1425.67627     667.5440     548.1352
   1425.66101     668.9754     550.3546   1425.66101     668.9754     550.3546
   1425.64575     671.9464     551.8108   1425.64575     671.9464     551.8108
   1425.63049     672.4413     554.0960   1425.63049     672.4413     554.0960
   1425.61523     674.2130     555.6204   1425.61523     674.2130     555.6204
   1425.59998     675.4679     557.1647   1425.59998     675.4679     557.1647
   1425.58472     676.5543     559.4441   1425.58472     676.5543     559.4441
   1425.56946     676.9961     561.8472   1425.56946     676.9961     561.8472
   1425.55420     678.6005     564.3821   1425.55420     678.6005     564.3821
   1425.53894     681.6122     564.6443   1425.53894     681.6122     564.6443
   1425.52368     681.8548     566.8189   1425.52368     681.8548     566.8189
   1425.50842     682.9380     569.5270   1425.50842     682.9380     569.5270
   1425.49316     685.1736     571.7092   1425.49316     685.1736     571.7092
   1425.47791     686.6655     573.4629   1425.47791     686.6655     573.4629
   1425.46265     687.1292     574.3499   1425.46265     687.1292     574.3499
   1425.44739     687.9487     577.5446   1425.44739     687.9487     577.5446
   1425.43213     689.4583     578.4374   1425.43213     689.4583     578.4374
   1425.41687     692.4257     581.2590   1425.41687     692.4257     581.2590
   1425.40161     691.0563     582.6573   1425.40161     691.0563     582.6573
   1425.38635     692.8302     584.0726   1425.38635     692.8302     584.0726
   1425.37109     693.6713     585.2012   1425.37109     693.6713     585.2012
   1425.35583     695.4657     587.5639   1425.35583     695.4657     587.5639
   1425.34058     695.9644     589.1837   1425.34058     695.9644     589.1837
   1425.32532     697.2731     591.6494   1425.32532     697.2731     591.6494
   1425.31006     698.0402     592.3689   1425.31006     698.0402     592.3689
   1425.29480     699.2455     594.2299   1425.29480     699.2455     594.2299
   1425.27954     699.0634     596.6533   1425.27954     699.0634     596.6533
   1425.26428     701.0580     598.1441   1425.26428     701.0580     598.1441
   1425.24902     702.2308     600.7235   1425.24902     702.2308     600.7235
   1425.23376     702.5071     601.1119   1425.23376     702.5071     601.1119
   1425.21851     701.8723     601.9693   1425.21851     701.8723     601.9693
   1425.20325     703.7057     603.9131   1425.20325     703.7057     603.9131
   1425.18799     704.5458     605.1900   1425.18799     704.5458     605.1900
   1425.17273     705.2467     607.1977   1425.17273     705.2467     607.1977
   1425.15747     705.7583     609.2603   1425.15747     705.7583     609.2603
   1425.14221     706.8933     610.2559   1425.14221     706.8933     610.2559
   1425.12695     707.0701     611.8259   1425.12695     707.0701     611.8259
   1425.11169     708.2939     612.5687   1425.11169     708.2939     612.5687
   1425.09644     708.3927     615.1071   1425.09644     708.3927     615.1071
   1425.08118     709.7881     616.8198   1425.08118     709.7881     616.8198
   1425.06592     708.9908     618.4218   1425.06592     708.9908     618.4218
   1425.05066     710.0724     620.3123   1425.05066     710.0724     620.3123
   1425.03540     710.6446     620.7612   1425.03540     710.6446     620.7612
   1425.02014     711.4590     621.6138   1425.02014     711.4590     621.6138
   1425.00488     711.6226     623.9532   1425.00488     711.6226     623.9532
   1424.98962     711.2689     625.5690   1424.98962     711.2689     625.5690
   1424.97437     712.3705     627.3058   1424.97437     712.3705     627.3058
   1424.95911     713.3347     628.2858   1424.95911     713.3347     628.2858
   1424.94385     713.9269     629.4474   1424.94385     713.9269     629.4474
   1424.92859     713.5349     629.4409   1424.92859     713.5349     629.4409
   1424.91333     714.0527     632.7607   1424.91333     714.0527     632.7607
   1424.89807     715.6581     632.8146   1424.89807     715.6581     632.8146
   1424.88281     716.4230     633.5638   1424.88281     716.4230     633.5638
   1424.86755     715.2475     635.1840   1424.86755     715.2475     635.1840
   1424.85229     715.8358     636.6647   1424.85229     715.8358     636.6647
   1424.83704     715.8030     637.2311   1424.83704     715.8030     637.2311
   1424.82178     716.6816     639.2416   1424.82178     716.6816     639.2416
   1424.80652     716.3904     640.1671   1424.80652     716.3904     640.1671
   1424.79126     716.4311     640.7777   1424.79126     716.4311     640.7777
   1424.77600     718.3779     642.4152   1424.77600     718.3779     642.4152
   1424.76074     718.2188     643.4384   1424.76074     718.2188     643.4384
   1424.74548     716.6808     643.0110   1424.74548     716.6808     643.0110
   1424.73022     717.9528     646.1108   1424.73022     717.9528     646.1108
   1424.71497     717.9064     646.0671   1424.71497     717.9064     646.0671
   1424.69971     718.5097     647.0610   1424.69971     718.5097     647.0610
   1424.68445     718.7090     647.8958   1424.68445     718.7090     647.8958
   1424.66919     718.2807     649.1479   1424.66919     718.2807     649.1479
   1424.65393     719.3788     649.6405   1424.65393     719.3788     649.6405
   1424.63867     717.9679     651.3813   1424.63867     717.9679     651.3813
   1424.62341     718.9384     652.5105   1424.62341     718.9384     652.5105
   1424.60815     718.8488     653.5896   1424.60815     718.8488     653.5896
   1424.59290     718.8447     653.4707   1424.59290     718.8447     653.4707
   1424.57764     718.8447     654.7441   1424.57764     718.8447     654.7441
   1424.56238     718.2869     656.3729   1424.56238     718.2869     656.3729
   1424.54712     718.5818     656.4437   1424.54712     718.5818     656.4437
   1424.53186     718.5175     657.3467   1424.53186     718.5175     657.3467
   1424.51660     719.2354     657.8572   1424.51660     719.2354     657.8572
   1424.50134     719.8729     658.4664   1424.50134     719.8729     658.4664
   1424.48608     719.5716     659.6354   1424.48608     719.5716     659.6354
   1424.47083     719.4581     660.0410   1424.47083     719.4581     660.0410
   1424.45557     718.6998     661.4554   1424.45557     718.6998     661.4554
   1424.44031     718.6251     661.4199   1424.44031     718.6251     661.4199
   1424.42505     718.8604     662.6025   1424.42505     718.8604     662.6025
   1424.40979     719.0955     662.3552   1424.40979     719.0955     662.3552
   1424.39453     718.1443     662.8423   1424.39453     718.1443     662.8423
   1424.37927     718.9077     662.6307   1424.37927     718.9077     662.6307
   1424.36401     718.1512     664.1948   1424.36401     718.1512     664.1948
   1424.34875     719.0574     664.8555   1424.34875     719.0574     664.8555
   1424.33350     718.4973     665.8663   1424.33350     718.4973     665.8663
   1424.31824     719.7260     665.2406   1424.31824     719.7260     665.2406
   1424.30298     718.4463     666.7656   1424.30298     718.4463     666.7656
   1424.28772     718.9431     667.3087   1424.28772     718.9431     667.3087
   1424.27246     717.6243     667.9146   1424.27246     717.6243     667.9146
   1424.25720     718.6052     668.0646   1424.25720     718.6052     668.0646
   1424.24194     717.3875     668.6649   1424.24194     717.3875     668.6649
   1424.22668     717.9330     667.5829   1424.22668     717.9330     667.5829
   1424.21143     718.0065     669.5283   1424.21143     718.0065     669.5283
   1424.19617     716.8387     669.6735   1424.19617     716.8387     669.6735
   1424.18091     716.8151     668.5854   1424.18091     716.8151     668.5854
   1424.16565     717.0956     670.8472   1424.16565     717.0956     670.8472
   1424.15039     717.5538     670.9622   1424.15039     717.5538     670.9622
   1424.13513     718.1161     671.5961   1424.13513     718.1161     671.5961
   1424.11987     716.3262     670.6370   1424.11987     716.3262     670.6370
   1424.10461     717.5304     670.9280   1424.10461     717.5304     670.9280
   1424.08936     716.6856     670.5836   1424.08936     716.6856     670.5836
   1424.07410     716.3877     670.7713   1424.07410     716.3877     670.7713
   1424.05884     715.4403     672.3452   1424.05884     715.4403     672.3452
   1424.04358     715.9669     671.5332   1424.04358     715.9669     671.5332
   1424.02832     716.3928     670.7964   1424.02832     716.3928     670.7964
   1424.01306     715.8034     671.0792   1424.01306     715.8034     671.0792
   1423.99780     715.2086     671.3286   1423.99780     715.2086     671.3286
   1423.98254     714.6611     672.2579   1423.98254     714.6611     672.2579
   1423.96729     715.3418     672.0882   1423.96729     715.3418     672.0882
   1423.95203     715.1700     670.8657   1423.95203     715.1700     670.8657
   1423.93677     715.5713     671.3468   1423.93677     715.5713     671.3468
   1423.92151     714.4440     671.5154   1423.92151     714.4440     671.5154
   1423.90625     713.2123     671.4684   1423.90625     713.2123     671.4684
   1423.89099     713.9436     671.0272   1423.89099     713.9436     671.0272
   1423.87573     714.2238     672.5214   1423.87573     714.2238     672.5214
   1423.86047     712.6284     672.4531   1423.86047     712.6284     672.4531
   1423.84521     712.7583     671.1542   1423.84521     712.7583     671.1542
   1423.82996     712.5459     671.6718   1423.82996     712.5459     671.6718
   1423.81470     713.1470     670.0570   1423.81470     713.1470     670.0570
   1423.79944     712.8151     670.3677   1423.79944     712.8151     670.3677
   1423.78418     712.2443     670.6616   1423.78418     712.2443     670.6616
   1423.76892     712.9919     670.3281   1423.76892     712.9919     670.3281
   1423.75366     711.4825     669.9092   1423.75366     711.4825     669.9092
   1423.73840     711.8055     669.4999   1423.73840     711.8055     669.4999
   1423.72314     709.9272     670.2097   1423.72314     709.9272     670.2097
   1423.70789     711.6005     669.1177   1423.70789     711.6005     669.1177
   1423.69263     710.6460     669.1264   1423.69263     710.6460     669.1264
   1423.67737     710.6044     669.1407   1423.67737     710.6044     669.1407
   1423.66211     710.5707     668.4466   1423.66211     710.5707     668.4466
   1423.64685     710.4451     666.9661   1423.64685     710.4451     666.9661
   1423.63159     709.4417     667.1411   1423.63159     709.4417     667.1411
   1423.61633     709.7019     666.4016   1423.61633     709.7019     666.4016
   1423.60107     709.1158     666.5613   1423.60107     709.1158     666.5613
   1423.58582     708.7133     666.3124   1423.58582     708.7133     666.3124
   1423.57056     708.9723     665.3885   1423.57056     708.9723     665.3885
   1423.55530     707.8623     665.2460   1423.55530     707.8623     665.2460
   1423.54004     707.7672     665.5204   1423.54004     707.7672     665.5204
   1423.52478     708.3490     663.9869   1423.52478     708.3490     663.9869
   1423.50952     707.7547     661.8032   1423.50952     707.7547     661.8032
   1423.49426     707.8657     663.0647   1423.49426     707.8657     663.0647
   1423.47900     707.4819     662.3109   1423.47900     707.4819     662.3109
   1423.46375     707.2571     661.4850   1423.46375     707.2571     661.4850
   1423.44849     706.6423     660.7264   1423.44849     706.6423     660.7264
   1423.43323     706.0395     660.9373   1423.43323     706.0395     660.9373
   1423.41797     706.0250     659.8807   1423.41797     706.0250     659.8807
   1423.40271     705.5471     658.7372   1423.40271     705.5471     658.7372
   1423.38745     704.9921     658.7452   1423.38745     704.9921     658.7452
   1423.37219     705.0987     657.5400   1423.37219     705.0987     657.5400
   1423.35693     705.2438     656.6075   1423.35693     705.2438     656.6075
   1423.34167     704.3271     656.7503   1423.34167     704.3271     656.7503
   1423.32642     705.7071     654.1534   1423.32642     705.7071     654.1534
   1423.31116     704.2021     654.1990   1423.31116     704.2021     654.1990
   1423.29590     703.9877     654.2729   1423.29590     703.9877     654.2729
   1423.28064     704.0687     652.4077   1423.28064     704.0687     652.4077
   1423.26538     703.0565     652.4540   1423.26538     703.0565     652.4540
   1423.25012     704.1439     651.5282   1423.25012     704.1439     651.5282
   1423.23486     703.1741     651.2952   1423.23486     703.1741     651.2952
   1423.21960     701.6296     649.4026   1423.21960     701.6296     649.4026
   1423.20435     702.5265     649.2932   1423.20435     702.5265     649.2932
   1423.18909     701.9768     647.8768   1423.18909     701.9768     647.8768
   1423.17383     702.1650     646.4973   1423.17383     702.1650     646.4973
   1423.15857     702.1334     646.5302   1423.15857     702.1334     646.5302
   1423.14331     701.3023     645.5240   1423.14331     701.3023     645.5240
   1423.12805     701.3138     644.9421   1423.12805     701.3138     644.9421
   1423.11279     701.1122     644.0031   1423.11279     701.1122     644.0031
   1423.09753     700.0452     642.3436   1423.09753     700.0452     642.3436
   1423.08228     700.1461     640.8618   1423.08228     700.1461     640.8618
   1423.06702     700.0917     639.6542   1423.06702     700.0917     639.6542
   1423.05176     699.8926     639.1601   1423.05176     699.8926     639.1601
   1423.03650     699.1851     638.2864   1423.03650     699.1851     638.2864
   1423.02124     699.1830     637.1857   1423.02124     699.1830     637.1857
   1423.00598     698.4192     636.6112   1423.00598     698.4192     636.6112
   1422.99072     698.4542     634.6465   1422.99072     698.4542     634.6465
   1422.97546     698.0964     634.3240   1422.97546     698.0964     634.3240
   1422.96021     697.8354     632.4260   1422.96021     697.8354     632.4260
   1422.94495     698.8838     632.1685   1422.94495     698.8838     632.1685
   1422.92969     698.1829     630.8661   1422.92969     698.1829     630.8661
   1422.91443     696.9347     630.4916   1422.91443     696.9347     630.4916
   1422.89917     696.7588     628.2662   1422.89917     696.7588     628.2662
   1422.88391     697.4442     628.4986   1422.88391     697.4442     628.4986
   1422.86865     696.1696     625.5278   1422.86865     696.1696     625.5278
   1422.85339     695.6371     625.8644   1422.85339     695.6371     625.8644
   1422.83813     696.4721     624.0554   1422.83813     696.4721     624.0554
   1422.82288     696.2225     623.2257   1422.82288     696.2225     623.2257
   1422.80762     694.5463     621.2086   1422.80762     694.5463     621.2086
   1422.79236     695.6586     620.3929   1422.79236     695.6586     620.3929
   1422.77710     694.7427     619.9386   1422.77710     694.7427     619.9386
   1422.76184     695.5268     618.8525   1422.76184     695.5268     618.8525
   1422.74658     694.8381     617.2650   1422.74658     694.8381     617.2650
   1422.73132     694.7468     614.9554   1422.73132     694.7468     614.9554
   1422.71606     693.9530     614.8559   1422.71606     693.9530     614.8559
   1422.70081     693.8329     612.8823   1422.70081     693.8329     612.8823
   1422.68555     694.6127     613.1784   1422.68555     694.6127     613.1784
   1422.67029     693.8865     610.9849   1422.67029     693.8865     610.9849
   1422.65503     692.4617     610.1586   1422.65503     692.4617     610.1586
   1422.63977     692.7299     608.0253   1422.63977     692.7299     608.0253
   1422.62451     692.2578     607.9375   1422.62451     692.2578     607.9375
   1422.60925     691.6865     605.7422   1422.60925     691.6865     605.7422
   1422.59399     691.8753     604.5031   1422.59399     691.8753     604.5031
   1422.57874     691.0775     602.9585   1422.57874     691.0775     602.9585
   1422.56348     690.7650     601.6443   1422.56348     690.7650     601.6443
   1422.54822     690.3417     600.2803   1422.54822     690.3417     600.2803
   1422.53296     690.9357     600.0237   1422.53296     690.9357     600.0237
   1422.51770     690.6493     597.2866   1422.51770     690.6493     597.2866
   1422.50244     689.8798     597.2817   1422.50244     689.8798     597.2817
   1422.48718     690.1318     594.9493   1422.48718     690.1318     594.9493
   1422.47192     690.1389     594.0261   1422.47192     690.1389     594.0261
   1422.45667     689.5338     591.9945   1422.45667     689.5338     591.9945
   1422.44141     689.0043     592.2713   1422.44141     689.0043     592.2713
   1422.42615     689.5040     589.8687   1422.42615     689.5040     589.8687
   1422.41089     689.0723     588.9373   1422.41089     689.0723     588.9373
   1422.39563     688.4996     587.4965   1422.39563     688.4996     587.4965
   1422.38037     687.8694     585.3495   1422.38037     687.8694     585.3495
   1422.36511     688.1657     584.3776   1422.36511     688.1657     584.3776
   1422.34985     688.3278     583.8512   1422.34985     688.3278     583.8512
   1422.33459     687.3220     582.7391   1422.33459     687.3220     582.7391
   1422.31934     688.5428     580.4119   1422.31934     688.5428     580.4119
   1422.30408     686.5393     579.8151   1422.30408     686.5393     579.8151
   1422.28882     686.3841     577.5931   1422.28882     686.3841     577.5931
   1422.27356     687.0494     576.4084   1422.27356     687.0494     576.4084
   1422.25830     686.4039     575.4542   1422.25830     686.4039     575.4542
   1422.24304     686.3903     573.8014   1422.24304     686.3903     573.8014
   1422.22778     686.1859     573.0276   1422.22778     686.1859     573.0276
   1422.21252     685.4655     571.4124   1422.21252     685.4655     571.4124
   1422.19727     686.2662     570.3275   1422.19727     686.2662     570.3275
   1422.18201     685.9202     568.6903   1422.18201     685.9202     568.6903
   1422.16675     685.2553     567.7124   1422.16675     685.2553     567.7124
   1422.15149     685.5618     565.8905   1422.15149     685.5618     565.8905
   1422.13623     685.0330     564.5911   1422.13623     685.0330     564.5911
   1422.12097     685.5148     563.6159   1422.12097     685.5148     563.6159
   1422.10571     684.1115     562.2308   1422.10571     684.1115     562.2308
   1422.09045     683.3538     560.3063   1422.09045     683.3538     560.3063
   1422.07520     684.1472     559.2559   1422.07520     684.1472     559.2559
   1422.05994     683.0468     557.3828   1422.05994     683.0468     557.3828
   1422.04468     683.7366     556.8108   1422.04468     683.7366     556.8108
   1422.02942     684.2369     554.7217   1422.02942     684.2369     554.7217
   1422.01416     683.0215     554.2076   1422.01416     683.0215     554.2076
   1421.99890     682.6210     552.1599   1421.99890     682.6210     552.1599
   1421.98364     682.5403     550.4424   1421.98364     682.5403     550.4424
   1421.96838     682.4597     549.0685   1421.96838     682.4597     549.0685
   1421.95312     681.5769     547.9005   1421.95312     681.5769     547.9005
   1421.93787     681.0549     545.5723   1421.93787     681.0549     545.5723
   1421.92261     681.4435     543.9283   1421.92261     681.4435     543.9283
   1421.90735     680.8661     544.2075   1421.90735     680.8661     544.2075
   1421.89209     680.0510     542.2551   1421.89209     680.0510     542.2551
   1421.87683     680.2714     541.2823   1421.87683     680.2714     541.2823
   1421.86157     680.7245     539.6702   1421.86157     680.7245     539.6702
   1421.84631     679.2314     538.2770   1421.84631     679.2314     538.2770
   1421.83105     679.9547     537.2510   1421.83105     679.9547     537.2510
   1421.81580     679.0298     535.6829   1421.81580     679.0298     535.6829
   1421.80054     679.4689     534.2445   1421.80054     679.4689     534.2445
   1421.78528     680.1272     533.3217   1421.78528     680.1272     533.3217
   1421.77002     678.9172     531.9313   1421.77002     678.9172     531.9313
   1421.75476     678.2624     530.0945   1421.75476     678.2624     530.0945
   1421.73950     679.7953     529.9792   1421.73950     679.7953     529.9792
   1421.72424     678.2454     527.9255   1421.72424     678.2454     527.9255
   1421.70898     677.8035     526.3952   1421.70898     677.8035     526.3952
   1421.69373     677.0920     525.1874   1421.69373     677.0920     525.1874
   1421.67847     677.5022     524.0411   1421.67847     677.5022     524.0411
   1421.66321     676.4265     522.9810   1421.66321     676.4265     522.9810
   1421.64795     676.7696     521.7383   1421.64795     676.7696     521.7383
   1421.63269     676.2523     519.5853   1421.63269     676.2523     519.5853
   1421.61743     676.4413     518.6677   1421.61743     676.4413     518.6677
   1421.60217     677.0966     517.6808   1421.60217     677.0966     517.6808
   1421.58691     675.3520     516.0632   1421.58691     675.3520     516.0632
   1421.57166     675.4654     514.4385   1421.57166     675.4654     514.4385
   1421.55640     675.1964     513.0958   1421.55640     675.1964     513.0958
   1421.54114     675.4661     511.5633   1421.54114     675.4661     511.5633
   1421.52588     673.8043     510.8596   1421.52588     673.8043     510.8596
   1421.51062     674.3551     509.7887   1421.51062     674.3551     509.7887
   1421.49536     674.0823     507.2450   1421.49536     674.0823     507.2450
   1421.48010     673.0753     507.0550   1421.48010     673.0753     507.0550
   1421.46484     673.2260     505.7029   1421.46484     673.2260     505.7029
   1421.44958     673.6024     504.4189   1421.44958     673.6024     504.4189
   1421.43433     672.9630     503.9271   1421.43433     672.9630     503.9271
   1421.41907     671.5845     502.3191   1421.41907     671.5845     502.3191
   1421.40381     672.4866     501.1666   1421.40381     672.4866     501.1666
   1421.38855     671.8582     499.6223   1421.38855     671.8582     499.6223
   1421.37329     672.7354     500.1791   1421.37329     672.7354     500.1791
   1421.35803     673.2546     497.5712   1421.35803     673.2546     497.5712
   1421.34277     669.8433     496.7967   1421.34277     669.8433     496.7967
   1421.32751     670.9705     494.4918   1421.32751     670.9705     494.4918
   1421.31226     671.2443     493.7301   1421.31226     671.2443     493.7301
   1421.29700     671.1736     493.3286   1421.29700     671.1736     493.3286
   1421.28174     670.8463     491.3633   1421.28174     670.8463     491.3633
   1421.26648     670.0656     490.0966   1421.26648     670.0656     490.0966
   1421.25122     670.2468     488.8379   1421.25122     670.2468     488.8379
   1421.23596     669.6514     488.0978   1421.23596     669.6514     488.0978
   1421.22070     668.9580     486.9644   1421.22070     668.9580     486.9644
   1421.20544     668.7048     485.9331   1421.20544     668.7048     485.9331
   1421.19019     668.4709     484.6177   1421.19019     668.4709     484.6177
   1421.17493     667.5122     483.1341   1421.17493     667.5122     483.1341
   1421.15967     668.4312     482.5356   1421.15967     668.4312     482.5356
   1421.14441     668.1514     480.5096   1421.14441     668.1514     480.5096
   1421.12915     667.5206     479.4241   1421.12915     667.5206     479.4241
   1421.11389     666.7493     479.2032   1421.11389     666.7493     479.2032
   1421.09863     666.7669     477.4688   1421.09863     666.7669     477.4688
   1421.08337     666.8300     477.3204   1421.08337     666.8300     477.3204
   1421.06812     666.5869     475.2497   1421.06812     666.5869     475.2497
   1421.05286     666.5876     474.5182   1421.05286     666.5876     474.5182
   1421.03760     665.4288     473.0553   1421.03760     665.4288     473.0553
   1421.02234     664.6323     472.5767   1421.02234     664.6323     472.5767
   1421.00708     665.9295     471.9543   1421.00708     665.9295     471.9543
   1420.99182     664.4818     470.1153   1420.99182     664.4818     470.1153
   1420.97656     664.9680     468.9765   1420.97656     664.9680     468.9765
   1420.96130     664.3631     468.2676   1420.96130     664.3631     468.2676
   1420.94604     666.1571     466.6659   1420.94604     666.1571     466.6659
   1420.93079     664.4265     465.7032   1420.93079     664.4265     465.7032
   1420.91553     663.6017     465.0888   1420.91553     663.6017     465.0888
   1420.90027     663.1060     463.6314   1420.90027     663.1060     463.6314
   1420.88501     663.8589     462.6162   1420.88501     663.8589     462.6162
   1420.86975     663.2941     462.3820   1420.86975     663.2941     462.3820
   1420.85449     663.6439     461.6638   1420.85449     663.6439     461.6638
   1420.83923     663.7032     460.5565   1420.83923     663.7032     460.5565
   1420.82397     664.1432     459.4231   1420.82397     664.1432     459.4231
   1420.80872     663.5742     459.0002   1420.80872     663.5742     459.0002
   1420.79346     662.9041     457.5796   1420.79346     662.9041     457.5796
   1420.77820     662.7230     456.7288   1420.77820     662.7230     456.7288
   1420.76294     662.2510     457.1545   1420.76294     662.2510     457.1545
   1420.74768     663.3064     455.4394   1420.74768     663.3064     455.4394
   1420.73242     663.5283     455.1454   1420.73242     663.5283     455.1454
   1420.71716     663.3028     454.1942   1420.71716     663.3028     454.1942
   1420.70190     663.1546     453.2244   1420.70190     663.1546     453.2244
   1420.68665     662.7516     451.6682   1420.68665     662.7516     451.6682
   1420.67139     662.8809     451.5623   1420.67139     662.8809     451.5623
   1420.65613     662.1838     450.7532   1420.65613     662.1838     450.7532
   1420.64087     662.0477     450.0410   1420.64087     662.0477     450.0410
   1420.62561     661.2274     448.5438   1420.62561     661.2274     448.5438
   1420.61035     661.8190     447.6116   1420.61035     661.8190     447.6116
   1420.59509     660.9685     447.3181   1420.59509     660.9685     447.3181
   1420.57983     663.1149     446.5724   1420.57983     663.1149     446.5724
   1420.56458     663.3594     446.9832   1420.56458     663.3594     446.9832
   1420.54932     664.7507     447.4456   1420.54932     664.7507     447.4456
   1420.53406     665.6401     447.5291   1420.53406     665.6401     447.5291
   1420.51880     666.7318     446.9404   1420.51880     666.7318     446.9404
   1420.50354     666.8492     446.5412   1420.50354     666.8492     446.5412
   1420.48828     666.9620     445.1956   1420.48828     666.9620     445.1956
   1420.47302     665.3053     443.9682   1420.47302     665.3053     443.9682
   1420.45776     665.1179     442.6514   1420.45776     665.1179     442.6514
   1420.44250     664.6465     441.0770   1420.44250     664.6465     441.0770
   1420.42725     663.6763     440.5547   1420.42725     663.6763     440.5547
   1420.41199     663.0515     439.9544   1420.41199     663.0515     439.9544
   1420.39673     665.2327     439.2541   1420.39673     665.2327     439.2541
   1420.38147     664.2255     438.3727   1420.38147     664.2255     438.3727
   1420.36621     663.0194     438.4970   1420.36621     663.0194     438.4970
   1420.35095     664.5222     438.6523   1420.35095     664.5222     438.6523
   1420.33569     666.0403     438.2585   1420.33569     666.0403     438.2585
   1420.32043     667.4025     439.2001   1420.32043     667.4025     439.2001
   1420.30518     670.8232     440.9461   1420.30518     670.8232     440.9461
   1420.28992     677.0583     443.8908   1420.28992     677.0583     443.8908
   1420.27466     689.9093     450.2962   1420.27466     689.9093     450.2962
   1420.25940     719.1607     467.8908   1420.25940     719.1607     467.8908
   1420.24414     819.2274     530.4762   1420.24414     819.2274     530.4762
   1420.22888    1140.3103     730.9056   1420.22888    1140.3103     730.9056
   1420.21362    1349.7180     859.1992   1420.21362    1349.7180     859.1992
   1420.19836    1084.2479     690.9625   1420.19836    1084.2479     690.9625
   1420.18311    1112.6831     709.1826   1420.18311    1112.6831     709.1826
   1420.16785    1547.6472     979.1363   1420.16785    1547.6472     979.1363
   1420.15259    1995.2891    1253.2195   1420.15259    1995.2891    1253.2195
   1420.13733    1949.3192    1229.0638   1420.13733    1949.3192    1229.0638
   1420.12207    1428.3030     903.4443   1420.12207    1428.3030     903.4443
   1420.10681    1058.7285     673.3419   1420.10681    1058.7285     673.3419
   1420.09155     979.9678     623.0822   1420.09155     979.9678     623.0822
   1420.07629    1027.2700     650.7549   1420.07629    1027.2700     650.7549
   1420.06104    1181.4042     744.5146   1420.06104    1181.4042     744.5146
   1420.04578    1247.2771     785.3300   1420.04578    1247.2771     785.3300
   1420.03052    1111.5127     702.9957   1420.03052    1111.5127     702.9957
   1420.01526    1077.7798     679.7888   1420.01526    1077.7798     679.7888
   1420.00000    1245.3724     782.1603   1420.00000    1245.3724     782.1603
   1419.98474    1412.9661     884.5315   1419.98474    1412.9661     884.5315
   1419.96948    1345.8868     843.2875   1419.96948    1345.8868     843.2875
   1419.95422    1178.7823     736.5068   1419.95422    1178.7823     736.5068
   1419.93896    1109.0112     695.5050   1419.93896    1109.0112     695.5050
   1419.92371    1245.2729     776.8123   1419.92371    1245.2729     776.8123
   1419.90845    1410.0739     874.1637   1419.90845    1410.0739     874.1637
   1419.89319    1336.3989     830.4771   1419.89319    1336.3989     830.4771
   1419.87793    1141.8490     712.1984   1419.87793    1141.8490     712.1984
   1419.86267     982.7430     612.3025   1419.86267     982.7430     612.3025
   1419.84741     865.3797     541.3018   1419.84741     865.3797     541.3018
   1419.83215     794.5167     498.7903   1419.83215     794.5167     498.7903
   1419.81689     749.4691     471.5293   1419.81689     749.4691     471.5293
   1419.80164     720.6706     453.9954   1419.80164     720.6706     453.9954
   1419.78638     704.3616     442.2460   1419.78638     704.3616     442.2460
   1419.77112     694.7733     436.2161   1419.77112     694.7733     436.2161
   1419.75586     688.8776     432.1528   1419.75586     688.8776     432.1528
   1419.74060     682.9299     428.8355   1419.74060     682.9299     428.8355
   1419.72534     678.4091     426.0531   1419.72534     678.4091     426.0531
   1419.71008     672.6305     421.8853   1419.71008     672.6305     421.8853
   1419.69482     667.9897     419.3351   1419.69482     667.9897     419.3351
   1419.67957     664.7453     416.0400   1419.67957     664.7453     416.0400
   1419.66431     661.8450     414.2951   1419.66431     661.8450     414.2951
   1419.64905     660.2206     411.8789   1419.64905     660.2206     411.8789
   1419.63379     659.4268     410.7296   1419.63379     659.4268     410.7296
   1419.61853     657.8578     410.2697   1419.61853     657.8578     410.2697
   1419.60327     657.7451     409.8141   1419.60327     657.7451     409.8141
   1419.58801     657.3482     409.7056   1419.58801     657.3482     409.7056
   1419.57275     657.1730     409.3462   1419.57275     657.1730     409.3462
   1419.55750     657.3308     409.7202   1419.55750     657.3308     409.7202
   1419.54224     657.1860     409.1900   1419.54224     657.1860     409.1900
   1419.52698     659.0546     408.8282   1419.52698     659.0546     408.8282
   1419.51172     657.9667     408.4010   1419.51172     657.9667     408.4010
   1419.49646     658.8227     407.9964   1419.49646     658.8227     407.9964
   1419.48120     659.6137     407.7567   1419.48120     659.6137     407.7567
   1419.46594     659.0830     407.9111   1419.46594     659.0830     407.9111
   1419.45068     659.2247     407.1743   1419.45068     659.2247     407.1743
   1419.43542     659.6761     407.3959   1419.43542     659.6761     407.3959
   1419.42017     660.3228     407.3370   1419.42017     660.3228     407.3370
   1419.40491     660.2827     407.5086   1419.40491     660.2827     407.5086
   1419.38965     659.7870     407.0830   1419.38965     659.7870     407.0830
   1419.37439     660.8082     407.1063   1419.37439     660.8082     407.1063
   1419.35913     661.7612     406.8008   1419.35913     661.7612     406.8008
   1419.34387     662.0856     406.4990   1419.34387     662.0856     406.4990
   1419.32861     663.3711     407.0445   1419.32861     663.3711     407.0445
   1419.31335     663.2898     407.4789   1419.31335     663.2898     407.4789
   1419.29810     663.6828     407.0365   1419.29810     663.6828     407.0365
   1419.28284     664.0217     407.4160   1419.28284     664.0217     407.4160
   1419.26758     664.4225     407.5893   1419.26758     664.4225     407.5893
   1419.25232     664.7510     406.5779   1419.25232     664.7510     406.5779
   1419.23706     666.0764     407.9461   1419.23706     666.0764     407.9461
   1419.22180     665.6562     406.7668   1419.22180     665.6562     406.7668
   1419.20654     665.4210     406.5682   1419.20654     665.4210     406.5682
   1419.19128     667.4994     407.9118   1419.19128     667.4994     407.9118
   1419.17603     667.4865     407.0508   1419.17603     667.4865     407.0508
   1419.16077     668.2603     407.1331   1419.16077     668.2603     407.1331
   1419.14551     668.0411     406.9094   1419.14551     668.0411     406.9094
   1419.13025     668.4660     407.5740   1419.13025     668.4660     407.5740
   1419.11499     669.5239     407.7314   1419.11499     669.5239     407.7314
   1419.09973     669.4310     407.7034   1419.09973     669.4310     407.7034
   1419.08447     670.3512     407.9463   1419.08447     670.3512     407.9463
   1419.06921     671.3870     408.5941   1419.06921     671.3870     408.5941
   1419.05396     671.0681     408.3914   1419.05396     671.0681     408.3914
   1419.03870     672.6682     408.2007   1419.03870     672.6682     408.2007
   1419.02344     672.9176     409.1253   1419.02344     672.9176     409.1253
   1419.00818     673.1401     409.1363   1419.00818     673.1401     409.1363
   1418.99292     674.2679     409.2140   1418.99292     674.2679     409.2140
   1418.97766     675.1904     408.8494   1418.97766     675.1904     408.8494
   1418.96240     674.9866     409.4908   1418.96240     674.9866     409.4908
   1418.94714     676.2028     409.2987   1418.94714     676.2028     409.2987
   1418.93188     677.1048     410.3393   1418.93188     677.1048     410.3393
   1418.91663     678.1051     410.8128   1418.91663     678.1051     410.8128
   1418.90137     677.9099     410.6518   1418.90137     677.9099     410.6518
   1418.88611     679.0990     411.0027   1418.88611     679.0990     411.0027
   1418.87085     679.5859     411.2825   1418.87085     679.5859     411.2825
   1418.85559     680.2965     410.9087   1418.85559     680.2965     410.9087
   1418.84033     681.2819     412.6583   1418.84033     681.2819     412.6583
   1418.82507     681.7657     411.9167   1418.82507     681.7657     411.9167
   1418.80981     683.3157     412.6476   1418.80981     683.3157     412.6476
   1418.79456     684.9094     413.0383   1418.79456     684.9094     413.0383
   1418.77930     685.2552     413.0898   1418.77930     685.2552     413.0898
   1418.76404     685.7516     412.8308   1418.76404     685.7516     412.8308
   1418.74878     685.6071     414.0674   1418.74878     685.6071     414.0674
   1418.73352     687.0369     414.4432   1418.73352     687.0369     414.4432
   1418.71826     687.7684     414.2470   1418.71826     687.7684     414.2470
   1418.70300     688.8312     414.4820   1418.70300     688.8312     414.4820
   1418.68774     688.7833     414.8907   1418.68774     688.7833     414.8907
   1418.67249     691.2259     416.0248   1418.67249     691.2259     416.0248
   1418.65723     690.5950     415.8162   1418.65723     690.5950     415.8162
   1418.64197     691.2281     416.1211   1418.64197     691.2281     416.1211
   1418.62671     691.7313     416.7905   1418.62671     691.7313     416.7905
   1418.61145     692.9166     417.1538   1418.61145     692.9166     417.1538
   1418.59619     695.1727     417.6493   1418.59619     695.1727     417.6493
   1418.58093     695.6056     417.5022   1418.58093     695.6056     417.5022
   1418.56567     696.2803     418.7536   1418.56567     696.2803     418.7536
   1418.55042     697.4872     419.0323   1418.55042     697.4872     419.0323
   1418.53516     698.3243     418.8845   1418.53516     698.3243     418.8845
   1418.51990     699.4786     419.9016   1418.51990     699.4786     419.9016
   1418.50464     701.1406     419.9712   1418.50464     701.1406     419.9712
   1418.48938     700.9697     420.6495   1418.48938     700.9697     420.6495
   1418.47412     701.7896     420.6172   1418.47412     701.7896     420.6172
   1418.45886     703.3948     421.9684   1418.45886     703.3948     421.9684
   1418.44360     703.7439     421.6585   1418.44360     703.7439     421.6585
   1418.42834     706.0791     422.3065   1418.42834     706.0791     422.3065
   1418.41309     706.4966     423.0085   1418.41309     706.4966     423.0085
   1418.39783     707.7054     423.6949   1418.39783     707.7054     423.6949
   1418.38257     708.5237     423.8732   1418.38257     708.5237     423.8732
   1418.36731     709.6981     424.2636   1418.36731     709.6981     424.2636
   1418.35205     710.0169     425.1089   1418.35205     710.0169     425.1089
   1418.33679     710.5686     426.0946   1418.33679     710.5686     426.0946
   1418.32153     712.5675     426.2462   1418.32153     712.5675     426.2462
   1418.30627     713.3708     426.1342   1418.30627     713.3708     426.1342
   1418.29102     714.3959     427.6599   1418.29102     714.3959     427.6599
   1418.27576     715.6670     427.0530   1418.27576     715.6670     427.0530
   1418.26050     715.8713     428.1919   1418.26050     715.8713     428.1919
   1418.24524     716.9892     429.1973   1418.24524     716.9892     429.1973
   1418.22998     718.9780     429.1122   1418.22998     718.9780     429.1122
   1418.21472     720.2135     430.5499   1418.21472     720.2135     430.5499
   1418.19946     720.9180     430.7556   1418.19946     720.9180     430.7556
   1418.18420     721.2408     430.7762   1418.18420     721.2408     430.7762
   1418.16895     723.8218     431.1623   1418.16895     723.8218     431.1623
   1418.15369     723.7957     431.4499   1418.15369     723.7957     431.4499
   1418.13843     726.2708     433.1995   1418.13843     726.2708     433.1995
   1418.12317     726.6850     434.0983   1418.12317     726.6850     434.0983
   1418.10791     727.4968     434.6024   1418.10791     727.4968     434.6024
   1418.09265     729.1571     433.7970   1418.09265     729.1571     433.7970
   1418.07739     730.2791     435.1998   1418.07739     730.2791     435.1998
   1418.06213     731.5989     435.5214   1418.06213     731.5989     435.5214
   1418.04688     732.4504     435.9140   1418.04688     732.4504     435.9140
   1418.03162     733.6959     436.4926   1418.03162     733.6959     436.4926
   1418.01636     733.8674     437.2953   1418.01636     733.8674     437.2953
   1418.00110     735.7237     437.8979   1418.00110     735.7237     437.8979
   1417.98584     738.3016     438.8107   1417.98584     738.3016     438.8107
   1417.97058     738.7955     439.0532   1417.97058     738.7955     439.0532
   1417.95532     739.6830     440.3213   1417.95532     739.6830     440.3213
   1417.94006     741.1975     441.5078   1417.94006     741.1975     441.5078
   1417.92480     742.1863     441.0596   1417.92480     742.1863     441.0596
   1417.90955     742.8086     441.4317   1417.90955     742.8086     441.4317
   1417.89429     744.6682     442.6236   1417.89429     744.6682     442.6236
   1417.87903     744.9153     443.4690   1417.87903     744.9153     443.4690
   1417.86377     746.9918     443.4426   1417.86377     746.9918     443.4426
   1417.84851     748.3510     444.9655   1417.84851     748.3510     444.9655
   1417.83325     749.8144     445.0810   1417.83325     749.8144     445.0810
   1417.81799     750.2123     445.8634   1417.81799     750.2123     445.8634
   1417.80273     752.1996     446.2175   1417.80273     752.1996     446.2175
   1417.78748     752.5420     447.5790   1417.78748     752.5420     447.5790
   1417.77222     754.9352     448.1563   1417.77222     754.9352     448.1563
   1417.75696     755.4344     448.8976   1417.75696     755.4344     448.8976
   1417.74170     756.4308     450.1120   1417.74170     756.4308     450.1120
   1417.72644     758.3220     450.0627   1417.72644     758.3220     450.0627
   1417.71118     759.0080     450.2611   1417.71118     759.0080     450.2611
   1417.69592     760.0512     451.8750   1417.69592     760.0512     451.8750
   1417.68066     762.4264     451.8828   1417.68066     762.4264     451.8828
   1417.66541     761.7407     451.4599   1417.66541     761.7407     451.4599
   1417.65015     763.6955     453.0269   1417.65015     763.6955     453.0269
   1417.63489     764.9482     453.6898   1417.63489     764.9482     453.6898
   1417.61963     765.4254     454.3270   1417.61963     765.4254     454.3270
   1417.60437     767.3336     455.5485   1417.60437     767.3336     455.5485
   1417.58911     769.3197     455.5848   1417.58911     769.3197     455.5848
   1417.57385     769.9968     455.8155   1417.57385     769.9968     455.8155
   1417.55859     771.5349     456.4565   1417.55859     771.5349     456.4565
   1417.54333     772.0833     457.6966   1417.54333     772.0833     457.6966
   1417.52808     773.8599     458.3239   1417.52808     773.8599     458.3239
   1417.51282     774.1595     458.9618   1417.51282     774.1595     458.9618
   1417.49756     774.8228     459.3527   1417.49756     774.8228     459.3527
   1417.48230     776.4186     459.7971   1417.48230     776.4186     459.7971
   1417.46704     778.9900     460.5052   1417.46704     778.9900     460.5052
   1417.45178     779.6924     461.1342   1417.45178     779.6924     461.1342
   1417.43652     780.1332     461.6461   1417.43652     780.1332     461.6461
   1417.42126     782.6099     462.4112   1417.42126     782.6099     462.4112
   1417.40601     782.0095     462.3369   1417.40601     782.0095     462.3369
   1417.39075     784.6921     463.2408   1417.39075     784.6921     463.2408
   1417.37549     784.6846     464.2050   1417.37549     784.6846     464.2050
   1417.36023     786.0958     464.7590   1417.36023     786.0958     464.7590
   1417.34497     788.1389     465.9548   1417.34497     788.1389     465.9548
   1417.32971     788.1873     465.5508   1417.32971     788.1873     465.5508
   1417.31445     788.8238     466.3100   1417.31445     788.8238     466.3100
   1417.29919     789.7615     467.3145   1417.29919     789.7615     467.3145
   1417.28394     790.1844     467.9636   1417.28394     790.1844     467.9636
   1417.26868     792.3849     468.5320   1417.26868     792.3849     468.5320
   1417.25342     792.5706     468.9644   1417.25342     792.5706     468.9644
   1417.23816     795.1943     469.3905   1417.23816     795.1943     469.3905
   1417.22290     796.5919     470.4240   1417.22290     796.5919     470.4240
   1417.20764     796.1663     470.8014   1417.20764     796.1663     470.8014
   1417.19238     796.9862     471.0320   1417.19238     796.9862     471.0320
   1417.17712     798.7373     471.8300   1417.17712     798.7373     471.8300
   1417.16187     798.1018     472.2513   1417.16187     798.1018     472.2513
   1417.14661     799.9747     472.0728   1417.14661     799.9747     472.0728
   1417.13135     800.6164     473.1797   1417.13135     800.6164     473.1797
   1417.11609     801.2182     473.7016   1417.11609     801.2182     473.7016
   1417.10083     803.0287     474.1912   1417.10083     803.0287     474.1912
   1417.08557     804.2475     474.8711   1417.08557     804.2475     474.8711
   1417.07031     804.6596     474.5461   1417.07031     804.6596     474.5461
   1417.05505     804.4975     476.0341   1417.05505     804.4975     476.0341
   1417.03979     806.5731     475.6178   1417.03979     806.5731     475.6178
   1417.02454     805.7089     476.6076   1417.02454     805.7089     476.6076
   1417.00928     808.1849     476.5540   1417.00928     808.1849     476.5540
   1416.99402     808.6248     475.5851   1416.99402     808.6248     475.5851
   1416.97876     809.3135     477.6599   1416.97876     809.3135     477.6599
   1416.96350     809.5160     478.2878   1416.96350     809.5160     478.2878
   1416.94824     810.3061     478.0509   1416.94824     810.3061     478.0509
   1416.93298     811.0066     478.5525   1416.93298     811.0066     478.5525
   1416.91772     812.3781     479.0178   1416.91772     812.3781     479.0178
   1416.90247     812.2545     479.1328   1416.90247     812.2545     479.1328
   1416.88721     813.4038     479.6138   1416.88721     813.4038     479.6138
   1416.87195     813.9656     480.7227   1416.87195     813.9656     480.7227
   1416.85669     813.1302     480.2095   1416.85669     813.1302     480.2095
   1416.84143     815.2582     481.1866   1416.84143     815.2582     481.1866
   1416.82617     814.2471     481.0831   1416.82617     814.2471     481.0831
   1416.81091     814.3174     481.3204   1416.81091     814.3174     481.3204
   1416.79565     816.1282     482.5167   1416.79565     816.1282     482.5167
   1416.78040     816.8904     481.9868   1416.78040     816.8904     481.9868
   1416.76514     817.6158     480.9977   1416.76514     817.6158     480.9977
   1416.74988     818.2350     482.4731   1416.74988     818.2350     482.4731
   1416.73462     819.1723     482.1758   1416.73462     819.1723     482.1758
   1416.71936     817.6367     482.5425   1416.71936     817.6367     482.5425
   1416.70410     819.8888     483.0793   1416.70410     819.8888     483.0793
   1416.68884     819.8610     482.9492   1416.68884     819.8610     482.9492
   1416.67358     819.6030     483.7295   1416.67358     819.6030     483.7295
   1416.65833     821.0275     483.6173   1416.65833     821.0275     483.6173
   1416.64307     820.5964     483.9753   1416.64307     820.5964     483.9753
   1416.62781     819.9075     484.1201   1416.62781     819.9075     484.1201
   1416.61255     821.1292     483.5388   1416.61255     821.1292     483.5388
   1416.59729     820.9538     483.7550   1416.59729     820.9538     483.7550
   1416.58203     821.1601     483.7724   1416.58203     821.1601     483.7724
   1416.56677     821.4376     484.0091   1416.56677     821.4376     484.0091
   1416.55151     822.2002     484.7791   1416.55151     822.2002     484.7791
   1416.53625     821.3669     483.5187   1416.53625     821.3669     483.5187
   1416.52100     821.9060     483.6195   1416.52100     821.9060     483.6195
   1416.50574     820.9764     483.4250   1416.50574     820.9764     483.4250
   1416.49048     822.3512     483.6100   1416.49048     822.3512     483.6100
   1416.47522     820.7815     483.8454   1416.47522     820.7815     483.8454
   1416.45996     820.5736     484.0895   1416.45996     820.5736     484.0895
   1416.44470     821.9525     483.6769   1416.44470     821.9525     483.6769
   1416.42944     820.9254     483.6182   1416.42944     820.9254     483.6182
   1416.41418     821.4021     483.8086   1416.41418     821.4021     483.8086
   1416.39893     820.9870     483.6376   1416.39893     820.9870     483.6376
   1416.38367     821.9457     484.3896   1416.38367     821.9457     484.3896
   1416.36841     821.5264     484.4380   1416.36841     821.5264     484.4380
   1416.35315     820.3098     483.9604   1416.35315     820.3098     483.9604
   1416.33789     820.0584     483.5040   1416.33789     820.0584     483.5040
   1416.32263     821.6727     483.6802   1416.32263     821.6727     483.6802
   1416.30737     820.4800     483.5606   1416.30737     820.4800     483.5606
   1416.29211     819.2141     483.1270   1416.29211     819.2141     483.1270
   1416.27686     819.4362     483.3889   1416.27686     819.4362     483.3889
   1416.26160     820.7944     483.1582   1416.26160     820.7944     483.1582
   1416.24634     818.9523     482.4569   1416.24634     818.9523     482.4569
   1416.23108     818.4641     483.3421   1416.23108     818.4641     483.3421
   1416.21582     819.3896     482.4489   1416.21582     819.3896     482.4489
   1416.20056     817.7761     482.6065   1416.20056     817.7761     482.6065
   1416.18530     817.0660     481.6053   1416.18530     817.0660     481.6053
   1416.17004     817.0730     482.0122   1416.17004     817.0730     482.0122
   1416.15479     816.6659     481.0579   1416.15479     816.6659     481.0579
   1416.13953     816.2605     481.8150   1416.13953     816.2605     481.8150
   1416.12427     815.6446     481.7277   1416.12427     815.6446     481.7277
   1416.10901     816.1637     481.1425   1416.10901     816.1637     481.1425
   1416.09375     814.7667     481.8768   1416.09375     814.7667     481.8768
   1416.07849     813.4666     480.8771   1416.07849     813.4666     480.8771
   1416.06323     813.6231     480.0660   1416.06323     813.6231     480.0660
   1416.04797     813.0565     480.7733   1416.04797     813.0565     480.7733
   1416.03271     812.6976     479.8362   1416.03271     812.6976     479.8362
   1416.01746     813.1445     480.8586   1416.01746     813.1445     480.8586
   1416.00220     811.8729     480.0644   1416.00220     811.8729     480.0644
   1415.98694     809.9147     478.9470   1415.98694     809.9147     478.9470
   1415.97168     808.9185     478.8672   1415.97168     808.9185     478.8672
   1415.95642     809.8096     479.3713   1415.95642     809.8096     479.3713
   1415.94116     808.9866     478.6652   1415.94116     808.9866     478.6652
   1415.92590     809.2295     478.8605   1415.92590     809.2295     478.8605
   1415.91064     808.8623     478.3412   1415.91064     808.8623     478.3412
   1415.89539     806.6188     477.8771   1415.89539     806.6188     477.8771
   1415.88013     805.6778     478.1418   1415.88013     805.6778     478.1418
   1415.86487     806.0505     478.5954   1415.86487     806.0505     478.5954
   1415.84961     805.0787     478.1893   1415.84961     805.0787     478.1893
   1415.83435     804.5958     477.7461   1415.83435     804.5958     477.7461
   1415.81909     803.0847     477.2917   1415.81909     803.0847     477.2917
   1415.80383     802.6451     476.9514   1415.80383     802.6451     476.9514
   1415.78857     802.4548     477.0889   1415.78857     802.4548     477.0889
   1415.77332     800.3683     476.4135   1415.77332     800.3683     476.4135
   1415.75806     800.9599     475.8058   1415.75806     800.9599     475.8058
   1415.74280     798.1702     475.8149   1415.74280     798.1702     475.8149
   1415.72754     798.8816     475.4401   1415.72754     798.8816     475.4401
   1415.71228     797.8688     475.1787   1415.71228     797.8688     475.1787
   1415.69702     797.8893     474.6677   1415.69702     797.8893     474.6677
   1415.68176     794.6649     474.2317   1415.68176     794.6649     474.2317
   1415.66650     795.9453     474.8174   1415.66650     795.9453     474.8174
   1415.65125     793.8378     473.9591   1415.65125     793.8378     473.9591
   1415.63599     792.3646     473.4305   1415.63599     792.3646     473.4305
   1415.62073     792.1908     473.5804   1415.62073     792.1908     473.5804
   1415.60547     791.7995     473.8082   1415.60547     791.7995     473.8082
   1415.59021     790.4422     472.0931   1415.59021     790.4422     472.0931
   1415.57495     789.2499     472.8426   1415.57495     789.2499     472.8426
   1415.55969     788.3470     472.3152   1415.55969     788.3470     472.3152
   1415.54443     786.7704     471.4506   1415.54443     786.7704     471.4506
   1415.52917     786.6364     471.5737   1415.52917     786.6364     471.5737
   1415.51392     784.3474     471.0507   1415.51392     784.3474     471.0507
   1415.49866     783.7356     471.1263   1415.49866     783.7356     471.1263
   1415.48340     783.3148     470.2607   1415.48340     783.3148     470.2607
   1415.46814     781.9628     470.2675   1415.46814     781.9628     470.2675
   1415.45288     781.4116     470.7260   1415.45288     781.4116     470.7260
   1415.43762     779.6556     470.4035   1415.43762     779.6556     470.4035
   1415.42236     778.1657     468.6342   1415.42236     778.1657     468.6342
   1415.40710     776.7968     469.2907   1415.40710     776.7968     469.2907
   1415.39185     775.4607     469.4007   1415.39185     775.4607     469.4007
   1415.37659     774.0906     468.4940   1415.37659     774.0906     468.4940
   1415.36133     771.7162     468.4911   1415.36133     771.7162     468.4911
   1415.34607     771.6249     468.1720   1415.34607     771.6249     468.1720
   1415.33081     770.9274     467.3242   1415.33081     770.9274     467.3242
   1415.31555     770.0109     467.4282   1415.31555     770.0109     467.4282
   1415.30029     768.0781     466.3582   1415.30029     768.0781     466.3582
   1415.28503     765.7093     466.3276   1415.28503     765.7093     466.3276
   1415.26978     765.1885     466.2189   1415.26978     765.1885     466.2189
   1415.25452     763.9615     466.0842   1415.25452     763.9615     466.0842
   1415.23926     762.1611     464.9073   1415.23926     762.1611     464.9073
   1415.22400     760.3789     464.3386   1415.22400     760.3789     464.3386
   1415.20874     758.4681     463.8904   1415.20874     758.4681     463.8904
   1415.19348     757.8079     463.8223   1415.19348     757.8079     463.8223
   1415.17822     756.8931     463.2318   1415.17822     756.8931     463.2318
   1415.16296     754.9504     461.9994   1415.16296     754.9504     461.9994
   1415.14771     753.5040     462.8953   1415.14771     753.5040     462.8953
   1415.13245     751.6787     461.6082   1415.13245     751.6787     461.6082
   1415.11719     750.0115     461.2336   1415.11719     750.0115     461.2336
   1415.10193     747.8297     461.3167   1415.10193     747.8297     461.3167
   1415.08667     747.8229     460.6783   1415.08667     747.8229     460.6783
   1415.07141     744.9682     459.9159   1415.07141     744.9682     459.9159
   1415.05615     744.4977     459.4128   1415.05615     744.4977     459.4128
   1415.04089     742.7601     458.9610   1415.04089     742.7601     458.9610
   1415.02563     739.8787     459.0069   1415.02563     739.8787     459.0069
   1415.01038     738.1478     458.3867   1415.01038     738.1478     458.3867
   1414.99512     736.7850     457.4662   1414.99512     736.7850     457.4662
   1414.97986     734.3248     457.2646   1414.97986     734.3248     457.2646
   1414.96460     733.6922     456.0478   1414.96460     733.6922     456.0478
   1414.94934     731.8124     456.0609   1414.94934     731.8124     456.0609
   1414.93408     728.5858     455.6080   1414.93408     728.5858     455.6080
   1414.91882     727.3134     454.2759   1414.91882     727.3134     454.2759
   1414.90356     726.0150     454.1408   1414.90356     726.0150     454.1408
   1414.88831     724.5359     453.4297   1414.88831     724.5359     453.4297
   1414.87305     721.1270     452.5212   1414.87305     721.1270     452.5212
   1414.85779     720.5351     451.8019   1414.85779     720.5351     451.8019
   1414.84253     717.7619     452.5345   1414.84253     717.7619     452.5345
   1414.82727     715.9801     451.2138   1414.82727     715.9801     451.2138
   1414.81201     715.3231     450.6884   1414.81201     715.3231     450.6884
   1414.79675     712.9212     450.2471   1414.79675     712.9212     450.2471
   1414.78149     711.1874     448.8714   1414.78149     711.1874     448.8714
   1414.76624     707.9548     448.0184   1414.76624     707.9548     448.0184
   1414.75098     705.6943     447.1584   1414.75098     705.6943     447.1584
   1414.73572     704.4892     446.5300   1414.73572     704.4892     446.5300
   1414.72046     701.7031     445.4858   1414.72046     701.7031     445.4858
   1414.70520     698.9752     445.4180   1414.70520     698.9752     445.4180
   1414.68994     697.2390     443.8318   1414.68994     697.2390     443.8318
   1414.67468     695.4874     443.5427   1414.67468     695.4874     443.5427
   1414.65942     692.8963     442.0284   1414.65942     692.8963     442.0284
   1414.64417     689.8956     441.4140   1414.64417     689.8956     441.4140
   1414.62891     688.5743     440.8612   1414.62891     688.5743     440.8612
   1414.61365     687.2561     440.6516   1414.61365     687.2561     440.6516
   1414.59839     684.4164     439.2721   1414.59839     684.4164     439.2721
   1414.58313     681.8730     438.6084   1414.58313     681.8730     438.6084
   1414.56787     679.5624     437.5344   1414.56787     679.5624     437.5344
   1414.55261     677.0334     437.7385   1414.55261     677.0334     437.7385
   1414.53735     675.0063     435.8307   1414.53735     675.0063     435.8307
   1414.52209     671.9048     435.6573   1414.52209     671.9048     435.6573
   1414.50684     669.2756     434.9731   1414.50684     669.2756     434.9731
   1414.49158     666.8025     433.8624   1414.49158     666.8025     433.8624
   1414.47632     665.7299     432.3682   1414.47632     665.7299     432.3682
   1414.46106     662.2451     431.3236   1414.46106     662.2451     431.3236
   1414.44580     658.7327     430.6654   1414.44580     658.7327     430.6654
   1414.43054     656.9277     429.5800   1414.43054     656.9277     429.5800
   1414.41528     654.9995     428.5724   1414.41528     654.9995     428.5724
   1414.40002     651.9396     427.1638   1414.40002     651.9396     427.1638
   1414.38477     649.5540     426.0192   1414.38477     649.5540     426.0192
   1414.36951     646.9138     425.3801   1414.36951     646.9138     425.3801
   1414.35425     643.5016     424.1034   1414.35425     643.5016     424.1034
   1414.33899     641.3326     423.3065   1414.33899     641.3326     423.3065
   1414.32373     638.5690     422.0087   1414.32373     638.5690     422.0087
   1414.30847     636.1074     420.9625   1414.30847     636.1074     420.9625
   1414.29321     632.9203     419.8054   1414.29321     632.9203     419.8054
   1414.27795     630.6706     418.5635   1414.27795     630.6706     418.5635
   1414.26270     626.9176     417.8615   1414.26270     626.9176     417.8615
   1414.24744     624.1664     416.8517   1414.24744     624.1664     416.8517
   1414.23218     621.7975     415.4388   1414.23218     621.7975     415.4388
   1414.21692     619.4189     414.0519   1414.21692     619.4189     414.0519
   1414.20166     616.5045     413.3638   1414.20166     616.5045     413.3638
   1414.18640     613.7590     411.1178   1414.18640     613.7590     411.1178
   1414.17114     611.2035     411.3670   1414.17114     611.2035     411.3670
   1414.15588     608.4141     409.6534   1414.15588     608.4141     409.6534
   1414.14062     604.4305     408.4438   1414.14062     604.4305     408.4438
   1414.12537     601.8502     406.9601   1414.12537     601.8502     406.9601
   1414.11011     598.6637     406.1112   1414.11011     598.6637     406.1112
   1414.09485     596.6420     404.7565   1414.09485     596.6420     404.7565
   1414.07959     593.6423     403.2223   1414.07959     593.6423     403.2223
   1414.06433     589.9163     402.4910   1414.06433     589.9163     402.4910
   1414.04907     586.7880     401.4513   1414.04907     586.7880     401.4513
   1414.03381     584.7296     399.9049   1414.03381     584.7296     399.9049
   1414.01855     582.0775     397.7274   1414.01855     582.0775     397.7274
   1414.00330     608.2158     402.9864   1414.00330     608.2158     402.9864
   1413.98804     577.9209     395.6716   1413.98804     577.9209     395.6716
   1413.97278     573.6469     393.6968   1413.97278     573.6469     393.6968
   1413.95752     569.1198     392.7745   1413.95752     569.1198     392.7745
   1413.94226     566.5277     391.4417   1413.94226     566.5277     391.4417
   1413.92700     563.4929     390.0068   1413.92700     563.4929     390.0068
   1413.91174     560.4381     388.4278   1413.91174     560.4381     388.4278
   1413.89648     558.4462     387.0692   1413.89648     558.4462     387.0692
   1413.88123     553.8884     385.6022   1413.88123     553.8884     385.6022
   1413.86597     551.1697     384.7664   1413.86597     551.1697     384.7664
   1413.85071     548.3566     382.7292   1413.85071     548.3566     382.7292
   1413.83545     544.6860     381.7346   1413.83545     544.6860     381.7346
   1413.82019     542.4114     380.1752   1413.82019     542.4114     380.1752
   1413.80493     539.4686     378.6383   1413.80493     539.4686     378.6383
   1413.78967     534.6752     376.9105   1413.78967     534.6752     376.9105
   1413.77441     532.1984     375.6301   1413.77441     532.1984     375.6301
   1413.75916     529.6179     374.2313   1413.75916     529.6179     374.2313
   1413.74390     527.0554     372.9303   1413.74390     527.0554     372.9303
   1413.72864     523.9009     371.1030   1413.72864     523.9009     371.1030
   1413.71338     519.9086     370.0535   1413.71338     519.9086     370.0535
   1413.69812     517.4901     367.9775   1413.69812     517.4901     367.9775
   1413.68286     514.5037     366.6902   1413.68286     514.5037     366.6902
   1413.66760     511.6926     365.3386   1413.66760     511.6926     365.3386
   1413.65234     508.2223     363.8285   1413.65234     508.2223     363.8285
   1413.63708     505.0888     362.4209   1413.63708     505.0888     362.4209
   1413.62183     502.6976     361.1056   1413.62183     502.6976     361.1056
   1413.60657     498.1210     358.5183   1413.60657     498.1210     358.5183
   1413.59131     496.5406     357.7786   1413.59131     496.5406     357.7786
   1413.57605     492.6034     355.9704   1413.57605     492.6034     355.9704
   1413.56079     489.4066     354.6732   1413.56079     489.4066     354.6732
   1413.54553     487.1308     352.9631   1413.54553     487.1308     352.9631
   1413.53027     483.6900     351.5819   1413.53027     483.6900     351.5819
   1413.51501     481.3908     350.2167   1413.51501     481.3908     350.2167
   1413.49976     477.2942     348.4536   1413.49976     477.2942     348.4536
   1413.48450     475.1067     347.1060   1413.48450     475.1067     347.1060
   1413.46924     473.2644     345.0883   1413.46924     473.2644     345.0883
   1413.45398     470.3371     344.3877   1413.45398     470.3371     344.3877
   1413.43872     466.7981     341.9663   1413.43872     466.7981     341.9663
   1413.42346     463.4888     340.8484   1413.42346     463.4888     340.8484
   1413.40820     460.9943     339.3216   1413.40820     460.9943     339.3216
   1413.39294     458.2536     338.2522   1413.39294     458.2536     338.2522
   1413.37769     454.8373     336.1768   1413.37769     454.8373     336.1768
   1413.36243     452.7525     334.9953   1413.36243     452.7525     334.9953
   1413.34717     449.7040     333.1033   1413.34717     449.7040     333.1033
   1413.33191     446.7206     331.4490   1413.33191     446.7206     331.4490
   1413.31665     444.2041     330.4793   1413.31665     444.2041     330.4793
   1413.30139     440.5834     328.7381   1413.30139     440.5834     328.7381
   1413.28613     437.8299     327.0237   1413.28613     437.8299     327.0237
   1413.27087     436.6831     326.2303   1413.27087     436.6831     326.2303
   1413.25562     433.5168     324.7263   1413.25562     433.5168     324.7263
   1413.24036     430.8915     322.6294   1413.24036     430.8915     322.6294
   1413.22510     428.2685     321.7417   1413.22510     428.2685     321.7417
   1413.20984     426.3791     320.0156   1413.20984     426.3791     320.0156
   1413.19458     423.1040     318.1758   1413.19458     423.1040     318.1758
   1413.17932     420.8801     317.6155   1413.17932     420.8801     317.6155
   1413.16406     418.5667     315.8943   1413.16406     418.5667     315.8943
   1413.14880     416.2951     314.7278   1413.14880     416.2951     314.7278
   1413.13354     414.2761     313.4940   1413.13354     414.2761     313.4940
   1413.11829     411.6501     311.9628   1413.11829     411.6501     311.9628
   1413.10303     408.8542     310.3732   1413.10303     408.8542     310.3732
   1413.08777     406.6089     308.5649   1413.08777     406.6089     308.5649
   1413.07251     404.6841     308.0137   1413.07251     404.6841     308.0137
   1413.05725     402.5347     306.4002   1413.05725     402.5347     306.4002
   1413.04199     400.2790     305.2481   1413.04199     400.2790     305.2481
   1413.02673     397.7827     303.9985   1413.02673     397.7827     303.9985
   1413.01147     396.2968     302.5205   1413.01147     396.2968     302.5205
   1412.99622     394.1784     301.6026   1412.99622     394.1784     301.6026
   1412.98096     391.9270     300.3021   1412.98096     391.9270     300.3021
   1412.96570     390.3850     298.9337   1412.96570     390.3850     298.9337
   1412.95044     388.0891     297.6901   1412.95044     388.0891     297.6901
   1412.93518     386.3167     296.4809   1412.93518     386.3167     296.4809
   1412.91992     384.6898     295.7654   1412.91992     384.6898     295.7654
   1412.90466     382.9276     294.6105   1412.90466     382.9276     294.6105
   1412.88940     381.6155     293.4969   1412.88940     381.6155     293.4969
   1412.87415     379.7451     292.8857   1412.87415     379.7451     292.8857
   1412.85889     377.4493     291.6924   1412.85889     377.4493     291.6924
   1412.84363     376.0515     290.7004   1412.84363     376.0515     290.7004
   1412.82837     374.8839     289.3027   1412.82837     374.8839     289.3027
   1412.81311     373.4243     288.5549   1412.81311     373.4243     288.5549
   1412.79785     371.6587     287.9001   1412.79785     371.6587     287.9001
   1412.78259     370.0113     286.0615   1412.78259     370.0113     286.0615
   1412.76733     368.5981     286.2739   1412.76733     368.5981     286.2739
   1412.75208     367.5611     284.7822   1412.75208     367.5611     284.7822
   1412.73682     366.4904     283.9903   1412.73682     366.4904     283.9903
   1412.72156     365.1659     282.8336   1412.72156     365.1659     282.8336
   1412.70630     363.4944     282.6929   1412.70630     363.4944     282.6929
   1412.69104     362.8285     281.7372   1412.69104     362.8285     281.7372
   1412.67578     361.8295     281.0858   1412.67578     361.8295     281.0858
   1412.66052     360.6399     280.2141   1412.66052     360.6399     280.2141
   1412.64526     359.5612     279.3897   1412.64526     359.5612     279.3897
   1412.63000     359.3134     278.8633   1412.63000     359.3134     278.8633
   1412.61475     357.9810     278.6710   1412.61475     357.9810     278.6710
   1412.59949     357.3910     278.1130   1412.59949     357.3910     278.1130
   1412.58423     356.1050     277.2252   1412.58423     356.1050     277.2252
   1412.56897     355.8643     277.1202   1412.56897     355.8643     277.1202
   1412.55371     355.1091     276.4669   1412.55371     355.1091     276.4669
   1412.53845     355.2261     276.3612   1412.53845     355.2261     276.3612
   1412.52319     354.0235     275.6237   1412.52319     354.0235     275.6237
   1412.50793     353.3124     275.2384   1412.50793     353.3124     275.2384
   1412.49268     352.7711     275.1145   1412.49268     352.7711     275.1145
   1412.47742     351.9724     274.5772   1412.47742     351.9724     274.5772
   1412.46216     352.8803     274.4991   1412.46216     352.8803     274.4991
   1412.44690     351.7418     274.0607   1412.44690     351.7418     274.0607
   1412.43164     351.8888     274.2426   1412.43164     351.8888     274.2426
   1412.41638     351.6894     273.9947   1412.41638     351.6894     273.9947
   1412.40112     351.0003     273.9343   1412.40112     351.0003     273.9343
   1412.38586     351.5244     273.7227   1412.38586     351.5244     273.7227
   1412.37061     351.0896     273.5664   1412.37061     351.0896     273.5664
   1412.35535     351.7798     273.8951   1412.35535     351.7798     273.8951
   1412.34009     351.7942     273.7577   1412.34009     351.7942     273.7577
   1412.32483     351.5462     273.7278   1412.32483     351.5462     273.7278
   1412.30957     352.0128     274.1736   1412.30957     352.0128     274.1736
   1412.29431     351.9134     274.1349   1412.29431     351.9134     274.1349
   1412.27905     352.4560     274.4615   1412.27905     352.4560     274.4615
   1412.26379     352.7945     274.2096   1412.26379     352.7945     274.2096
   1412.24854     353.5148     274.6878   1412.24854     353.5148     274.6878
   1412.23328     353.8968     274.9869   1412.23328     353.8968     274.9869
   1412.21802     353.6859     275.4885   1412.21802     353.6859     275.4885
   1412.20276     354.9627     275.8967   1412.20276     354.9627     275.8967