#     FILENAME=!Skynet_57528_lach-hhg-174_20559_20997.cyb.fits
#     BASENAME=Skynet_57528_lach-hhg-174_20559_20997
#     SRC_NAME=lach-hhg-174
#     OBSERVER=hhgmadison16_9500
#     DATE_OBS=2016-05-20T18:28:04.870
#        OBSID=20559
#      SCANNUM=20997
#          MJD=57528.7705
#          UTC=66573
#     SCANTYPE=track
#     DATAMODE=HIRES
#     TUNEFREQ=1420.0000
# Actual_FREQ1=1420.0000
# Actual_FREQ2=1420.0000
#    LO1Tuning=6870.000
#     RFFILTER=1355_1435
#        OBSBW=-15.6250
#        NCHAN=1024 
#        FOCUS=37.0709
#           RA=05:30:30.15
#          DEC=34:00:18.39
#      RA(hrs)=5.508400
#     DEC(deg)=34.005100
#    AZIM(deg)=126.215
#    ELEV(deg)=82.823
#     IFattens=11.00, 9.00
#      WARNING=None
#    TCAL_XL1=7.9635
#    TCAL_YR1=9.1340
#    TCAL_XL2=7.9635
#    TCAL_YR2=9.1340
#     TRX_XL1=11.7060
#     TRX_YR1=11.7060
#     TRX_XL2=11.7060
#     TRX_YR2=11.7060
#        TAVE=1.0000
#Freq1(MHz)          XL1          YR1  Freq2(MHz)          XL2          YR2 

   1427.81250     383.5577     278.0764   1427.81250     383.5577     278.0764
   1427.79724     383.8242     279.3669   1427.79724     383.8242     279.3669
   1427.78198     384.5523     280.5388   1427.78198     384.5523     280.5388
   1427.76672     385.8452     282.3088   1427.76672     385.8452     282.3088
   1427.75146     385.9801     283.5431   1427.75146     385.9801     283.5431
   1427.73621     386.7575     284.8957   1427.73621     386.7575     284.8957
   1427.72095     388.1942     286.3532   1427.72095     388.1942     286.3532
   1427.70569     388.9594     288.4186   1427.70569     388.9594     288.4186
   1427.69043     389.6931     289.4714   1427.69043     389.6931     289.4714
   1427.67517     389.9511     291.6709   1427.67517     389.9511     291.6709
   1427.65991     391.6696     292.8991   1427.65991     391.6696     292.8991
   1427.64465     393.4077     294.9029   1427.64465     393.4077     294.9029
   1427.62939     394.5038     296.0286   1427.62939     394.5038     296.0286
   1427.61414     395.5780     298.5261   1427.61414     395.5780     298.5261
   1427.59888     397.1802     300.3454   1427.59888     397.1802     300.3454
   1427.58362     398.0514     302.1118   1427.58362     398.0514     302.1118
   1427.56836     399.0064     303.5764   1427.56836     399.0064     303.5764
   1427.55310     400.8854     305.5295   1427.55310     400.8854     305.5295
   1427.53784     402.3322     307.3481   1427.53784     402.3322     307.3481
   1427.52258     404.0587     309.6911   1427.52258     404.0587     309.6911
   1427.50732     405.4715     311.5360   1427.50732     405.4715     311.5360
   1427.49207     407.8130     313.9926   1427.49207     407.8130     313.9926
   1427.47681     408.9679     315.9674   1427.47681     408.9679     315.9674
   1427.46155     411.4149     318.0338   1427.46155     411.4149     318.0338
   1427.44629     412.6420     320.1598   1427.44629     412.6420     320.1598
   1427.43103     415.1544     322.5612   1427.43103     415.1544     322.5612
   1427.41577     416.8479     324.4005   1427.41577     416.8479     324.4005
   1427.40051     418.9100     326.8704   1427.40051     418.9100     326.8704
   1427.38525     420.2340     328.8830   1427.38525     420.2340     328.8830
   1427.37000     422.4952     330.6351   1427.37000     422.4952     330.6351
   1427.35474     424.3665     333.3944   1427.35474     424.3665     333.3944
   1427.33948     426.7216     336.1152   1427.33948     426.7216     336.1152
   1427.32422     429.0464     338.2440   1427.32422     429.0464     338.2440
   1427.30896     431.3621     340.5615   1427.30896     431.3621     340.5615
   1427.29370     433.4819     343.0058   1427.29370     433.4819     343.0058
   1427.27844     435.5319     344.8358   1427.27844     435.5319     344.8358
   1427.26318     437.4223     347.2036   1427.26318     437.4223     347.2036
   1427.24792     440.4788     349.9051   1427.24792     440.4788     349.9051
   1427.23267     442.7361     352.1989   1427.23267     442.7361     352.1989
   1427.21741     445.3631     354.6360   1427.21741     445.3631     354.6360
   1427.20215     447.3084     356.4346   1427.20215     447.3084     356.4346
   1427.18689     450.7284     359.6037   1427.18689     450.7284     359.6037
   1427.17163     452.3072     362.3396   1427.17163     452.3072     362.3396
   1427.15637     455.6022     363.0715   1427.15637     455.6022     363.0715
   1427.14111     457.6253     366.8162   1427.14111     457.6253     366.8162
   1427.12585     459.9836     369.2972   1427.12585     459.9836     369.2972
   1427.11060     462.7667     371.4689   1427.11060     462.7667     371.4689
   1427.09534     465.2730     374.1001   1427.09534     465.2730     374.1001
   1427.08008     468.3046     376.7003   1427.08008     468.3046     376.7003
   1427.06482     470.7101     379.3940   1427.06482     470.7101     379.3940
   1427.04956     473.6358     381.7875   1427.04956     473.6358     381.7875
   1427.03430     476.7377     384.0323   1427.03430     476.7377     384.0323
   1427.01904     479.7263     386.3190   1427.01904     479.7263     386.3190
   1427.00378     482.7175     388.6552   1427.00378     482.7175     388.6552
   1426.98853     484.7740     391.1026   1426.98853     484.7740     391.1026
   1426.97327     488.1415     393.7263   1426.97327     488.1415     393.7263
   1426.95801     491.4203     396.0032   1426.95801     491.4203     396.0032
   1426.94275     493.9447     398.8210   1426.94275     493.9447     398.8210
   1426.92749     496.6142     400.8301   1426.92749     496.6142     400.8301
   1426.91223     500.0136     403.4120   1426.91223     500.0136     403.4120
   1426.89697     502.6085     406.2742   1426.89697     502.6085     406.2742
   1426.88171     505.4269     408.6089   1426.88171     505.4269     408.6089
   1426.86646     508.8655     411.0712   1426.86646     508.8655     411.0712
   1426.85120     512.3483     412.6949   1426.85120     512.3483     412.6949
   1426.83594     514.4598     415.2620   1426.83594     514.4598     415.2620
   1426.82068     518.0648     417.7699   1426.82068     518.0648     417.7699
   1426.80542     520.6390     420.0476   1426.80542     520.6390     420.0476
   1426.79016     523.9561     422.1099   1426.79016     523.9561     422.1099
   1426.77490     527.4503     424.4609   1426.77490     527.4503     424.4609
   1426.75964     529.3209     427.6185   1426.75964     529.3209     427.6185
   1426.74438     533.5475     429.0784   1426.74438     533.5475     429.0784
   1426.72913     536.6392     431.0114   1426.72913     536.6392     431.0114
   1426.71387     539.4379     433.3917   1426.71387     539.4379     433.3917
   1426.69861     541.9371     435.7690   1426.69861     541.9371     435.7690
   1426.68335     545.0874     437.8411   1426.68335     545.0874     437.8411
   1426.66809     549.6176     440.8090   1426.66809     549.6176     440.8090
   1426.65283     552.2792     442.5405   1426.65283     552.2792     442.5405
   1426.63757     554.9001     444.0641   1426.63757     554.9001     444.0641
   1426.62231     559.8217     447.4093   1426.62231     559.8217     447.4093
   1426.60706     561.5165     448.6128   1426.60706     561.5165     448.6128
   1426.59180     564.1750     451.1167   1426.59180     564.1750     451.1167
   1426.57654     568.1554     452.3174   1426.57654     568.1554     452.3174
   1426.56128     570.6833     454.8615   1426.56128     570.6833     454.8615
   1426.54602     574.1211     457.0323   1426.54602     574.1211     457.0323
   1426.53076     576.9680     458.6205   1426.53076     576.9680     458.6205
   1426.51550     580.5717     460.9683   1426.51550     580.5717     460.9683
   1426.50024     583.1051     462.9194   1426.50024     583.1051     462.9194
   1426.48499     586.9808     464.3687   1426.48499     586.9808     464.3687
   1426.46973     589.6741     466.4236   1426.46973     589.6741     466.4236
   1426.45447     592.4863     468.0882   1426.45447     592.4863     468.0882
   1426.43921     595.6976     469.5554   1426.43921     595.6976     469.5554
   1426.42395     598.8657     471.3749   1426.42395     598.8657     471.3749
   1426.40869     602.1024     472.8530   1426.40869     602.1024     472.8530
   1426.39343     605.0393     476.0147   1426.39343     605.0393     476.0147
   1426.37817     607.7131     476.6150   1426.37817     607.7131     476.6150
   1426.36292     610.6840     479.0810   1426.36292     610.6840     479.0810
   1426.34766     613.9130     479.4677   1426.34766     613.9130     479.4677
   1426.33240     616.6240     480.3008   1426.33240     616.6240     480.3008
   1426.31714     620.2891     484.1741   1426.31714     620.2891     484.1741
   1426.30188     623.5942     484.6407   1426.30188     623.5942     484.6407
   1426.28662     625.2271     486.4124   1426.28662     625.2271     486.4124
   1426.27136     628.6410     488.7099   1426.27136     628.6410     488.7099
   1426.25610     630.5232     489.1486   1426.25610     630.5232     489.1486
   1426.24084     632.5814     490.7381   1426.24084     632.5814     490.7381
   1426.22559     636.3226     493.2026   1426.22559     636.3226     493.2026
   1426.21033     640.4556     493.2115   1426.21033     640.4556     493.2115
   1426.19507     642.1859     495.0352   1426.19507     642.1859     495.0352
   1426.17981     645.7198     496.3552   1426.17981     645.7198     496.3552
   1426.16455     648.6936     498.6572   1426.16455     648.6936     498.6572
   1426.14929     651.0107     499.3504   1426.14929     651.0107     499.3504
   1426.13403     654.0585     500.9925   1426.13403     654.0585     500.9925
   1426.11877     656.0673     500.8982   1426.11877     656.0673     500.8982
   1426.10352     659.0805     503.4581   1426.10352     659.0805     503.4581
   1426.08826     661.7786     504.4929   1426.08826     661.7786     504.4929
   1426.07300     664.4876     505.2906   1426.07300     664.4876     505.2906
   1426.05774     667.3803     506.6045   1426.05774     667.3803     506.6045
   1426.04248     669.2159     507.7224   1426.04248     669.2159     507.7224
   1426.02722     671.8949     508.4566   1426.02722     671.8949     508.4566
   1426.01196     675.4196     509.2937   1426.01196     675.4196     509.2937
   1425.99670     677.1970     510.8700   1425.99670     677.1970     510.8700
   1425.98145     680.9181     511.3367   1425.98145     680.9181     511.3367
   1425.96619     682.8727     512.4831   1425.96619     682.8727     512.4831
   1425.95093     684.8146     513.5106   1425.95093     684.8146     513.5106
   1425.93567     685.6182     514.0403   1425.93567     685.6182     514.0403
   1425.92041     689.1039     515.5423   1425.92041     689.1039     515.5423
   1425.90515     693.1625     516.2726   1425.90515     693.1625     516.2726
   1425.88989     693.8592     517.1569   1425.88989     693.8592     517.1569
   1425.87463     695.7327     518.0597   1425.87463     695.7327     518.0597
   1425.85938     697.9280     518.7507   1425.85938     697.9280     518.7507
   1425.84412     701.2333     519.6775   1425.84412     701.2333     519.6775
   1425.82886     702.8151     519.9155   1425.82886     702.8151     519.9155
   1425.81360     705.7583     521.2429   1425.81360     705.7583     521.2429
   1425.79834     706.8718     521.2793   1425.79834     706.8718     521.2793
   1425.78308     709.0164     521.4526   1425.78308     709.0164     521.4526
   1425.76782     710.8732     522.4938   1425.76782     710.8732     522.4938
   1425.75256     714.1592     523.3397   1425.75256     714.1592     523.3397
   1425.73730     715.7500     523.4470   1425.73730     715.7500     523.4470
   1425.72205     717.7310     525.0826   1425.72205     717.7310     525.0826
   1425.70679     719.2153     525.0840   1425.70679     719.2153     525.0840
   1425.69153     722.1973     525.9332   1425.69153     722.1973     525.9332
   1425.67627     722.9796     526.5703   1425.67627     722.9796     526.5703
   1425.66101     725.0880     525.9366   1425.66101     725.0880     525.9366
   1425.64575     726.5822     527.2374   1425.64575     726.5822     527.2374
   1425.63049     728.4327     527.5182   1425.63049     728.4327     527.5182
   1425.61523     730.4926     527.9141   1425.61523     730.4926     527.9141
   1425.59998     732.1408     528.6146   1425.59998     732.1408     528.6146
   1425.58472     733.1652     528.5905   1425.58472     733.1652     528.5905
   1425.56946     734.1090     529.6502   1425.56946     734.1090     529.6502
   1425.55420     737.1038     530.5558   1425.55420     737.1038     530.5558
   1425.53894     737.2795     530.8231   1425.53894     737.2795     530.8231
   1425.52368     739.6340     530.1875   1425.52368     739.6340     530.1875
   1425.50842     741.9504     530.5143   1425.50842     741.9504     530.5143
   1425.49316     743.0602     530.9406   1425.49316     743.0602     530.9406
   1425.47791     745.1465     530.8173   1425.47791     745.1465     530.8173
   1425.46265     743.9284     530.6583   1425.46265     743.9284     530.6583
   1425.44739     746.5940     531.6030   1425.44739     746.5940     531.6030
   1425.43213     747.9888     531.0654   1425.43213     747.9888     531.0654
   1425.41687     751.1270     531.8015   1425.41687     751.1270     531.8015
   1425.40161     752.3021     531.8904   1425.40161     752.3021     531.8904
   1425.38635     751.4622     531.7197   1425.38635     751.4622     531.7197
   1425.37109     753.8943     531.7069   1425.37109     753.8943     531.7069
   1425.35583     753.4073     532.2498   1425.35583     753.4073     532.2498
   1425.34058     755.3298     532.6104   1425.34058     755.3298     532.6104
   1425.32532     756.0831     532.3741   1425.32532     756.0831     532.3741
   1425.31006     758.0576     532.2830   1425.31006     758.0576     532.2830
   1425.29480     759.8583     532.4086   1425.29480     759.8583     532.4086
   1425.27954     760.2042     532.7510   1425.27954     760.2042     532.7510
   1425.26428     760.6625     532.5778   1425.26428     760.6625     532.5778
   1425.24902     761.4133     532.8010   1425.24902     761.4133     532.8010
   1425.23376     763.4261     532.7813   1425.23376     763.4261     532.7813
   1425.21851     764.3158     532.8766   1425.21851     764.3158     532.8766
   1425.20325     765.7377     532.3015   1425.20325     765.7377     532.3015
   1425.18799     765.7573     532.4650   1425.18799     765.7573     532.4650
   1425.17273     765.9915     532.3372   1425.17273     765.9915     532.3372
   1425.15747     766.5081     532.3103   1425.15747     766.5081     532.3103
   1425.14221     767.3643     532.4636   1425.14221     767.3643     532.4636
   1425.12695     767.8555     532.0474   1425.12695     767.8555     532.0474
   1425.11169     768.9075     532.3997   1425.11169     768.9075     532.3997
   1425.09644     769.7416     532.3126   1425.09644     769.7416     532.3126
   1425.08118     769.9001     531.5173   1425.08118     769.9001     531.5173
   1425.06592     770.6042     530.9104   1425.06592     770.6042     530.9104
   1425.05066     771.0444     530.8778   1425.05066     771.0444     530.8778
   1425.03540     772.5464     531.1797   1425.03540     772.5464     531.1797
   1425.02014     772.4359     530.4557   1425.02014     772.4359     530.4557
   1425.00488     773.0639     530.3701   1425.00488     773.0639     530.3701
   1424.98962     773.8383     530.7998   1424.98962     773.8383     530.7998
   1424.97437     774.0142     530.9392   1424.97437     774.0142     530.9392
   1424.95911     774.8967     530.4812   1424.95911     774.8967     530.4812
   1424.94385     775.0679     529.4024   1424.94385     775.0679     529.4024
   1424.92859     776.2112     529.3604   1424.92859     776.2112     529.3604
   1424.91333     775.7356     529.4865   1424.91333     775.7356     529.4865
   1424.89807     777.0240     529.5639   1424.89807     777.0240     529.5639
   1424.88281     776.4547     528.8568   1424.88281     776.4547     528.8568
   1424.86755     776.5427     527.9336   1424.86755     776.5427     527.9336
   1424.85229     776.9174     528.0837   1424.85229     776.9174     528.0837
   1424.83704     776.9531     527.8446   1424.83704     776.9531     527.8446
   1424.82178     775.9533     527.7491   1424.82178     775.9533     527.7491
   1424.80652     776.4636     526.6113   1424.80652     776.4636     526.6113
   1424.79126     777.0329     526.3526   1424.79126     777.0329     526.3526
   1424.77600     778.0245     526.7762   1424.77600     778.0245     526.7762
   1424.76074     779.1521     525.9241   1424.76074     779.1521     525.9241
   1424.74548     778.8539     525.5677   1424.74548     778.8539     525.5677
   1424.73022     778.8910     524.8773   1424.73022     778.8910     524.8773
   1424.71497     777.9499     524.5046   1424.71497     777.9499     524.5046
   1424.69971     778.4758     524.2744   1424.69971     778.4758     524.2744
   1424.68445     777.6425     523.7339   1424.68445     777.6425     523.7339
   1424.66919     778.3841     524.3647   1424.66919     778.3841     524.3647
   1424.65393     777.7654     523.4140   1424.65393     777.7654     523.4140
   1424.63867     778.0248     522.9089   1424.63867     778.0248     522.9089
   1424.62341     778.9103     522.5939   1424.62341     778.9103     522.5939
   1424.60815     777.4879     522.6248   1424.60815     777.4879     522.6248
   1424.59290     777.0477     521.7589   1424.59290     777.0477     521.7589
   1424.57764     778.2859     521.0014   1424.57764     778.2859     521.0014
   1424.56238     778.2997     520.6482   1424.56238     778.2997     520.6482
   1424.54712     776.8518     520.6502   1424.54712     776.8518     520.6502
   1424.53186     778.2561     520.0892   1424.53186     778.2561     520.0892
   1424.51660     778.7568     519.4777   1424.51660     778.7568     519.4777
   1424.50134     776.4095     519.7933   1424.50134     776.4095     519.7933
   1424.48608     777.7903     518.2766   1424.48608     777.7903     518.2766
   1424.47083     776.5925     518.0174   1424.47083     776.5925     518.0174
   1424.45557     775.7675     516.9153   1424.45557     775.7675     516.9153
   1424.44031     777.2999     516.1799   1424.44031     777.2999     516.1799
   1424.42505     775.6814     516.8823   1424.42505     775.6814     516.8823
   1424.40979     776.2601     515.7828   1424.40979     776.2601     515.7828
   1424.39453     775.2891     515.2991   1424.39453     775.2891     515.2991
   1424.37927     774.8242     514.2462   1424.37927     774.8242     514.2462
   1424.36401     775.6281     515.0420   1424.36401     775.6281     515.0420
   1424.34875     775.0043     513.4853   1424.34875     775.0043     513.4853
   1424.33350     775.4529     513.5458   1424.33350     775.4529     513.5458
   1424.31824     774.8416     512.8231   1424.31824     774.8416     512.8231
   1424.30298     774.6452     513.1245   1424.30298     774.6452     513.1245
   1424.28772     774.4060     511.9955   1424.28772     774.4060     511.9955
   1424.27246     774.6563     511.3444   1424.27246     774.6563     511.3444
   1424.25720     773.9755     510.3196   1424.25720     773.9755     510.3196
   1424.24194     771.9200     509.6836   1424.24194     771.9200     509.6836
   1424.22668     772.8278     509.7666   1424.22668     772.8278     509.7666
   1424.21143     772.0650     509.2031   1424.21143     772.0650     509.2031
   1424.19617     773.1320     508.8654   1424.19617     773.1320     508.8654
   1424.18091     771.6492     507.5141   1424.18091     771.6492     507.5141
   1424.16565     772.0483     507.4356   1424.16565     772.0483     507.4356
   1424.15039     771.4889     506.6178   1424.15039     771.4889     506.6178
   1424.13513     769.8314     505.4015   1424.13513     769.8314     505.4015
   1424.11987     769.5791     506.2009   1424.11987     769.5791     506.2009
   1424.10461     769.4615     504.2827   1424.10461     769.4615     504.2827
   1424.08936     769.4317     504.5916   1424.08936     769.4317     504.5916
   1424.07410     769.5354     504.3969   1424.07410     769.5354     504.3969
   1424.05884     768.3740     502.8311   1424.05884     768.3740     502.8311
   1424.04358     768.2173     502.6337   1424.04358     768.2173     502.6337
   1424.02832     767.6927     501.8719   1424.02832     767.6927     501.8719
   1424.01306     766.9359     501.4703   1424.01306     766.9359     501.4703
   1423.99780     766.8578     500.4492   1423.99780     766.8578     500.4492
   1423.98254     766.3008     500.1533   1423.98254     766.3008     500.1533
   1423.96729     766.1891     500.2929   1423.96729     766.1891     500.2929
   1423.95203     765.7237     498.9330   1423.95203     765.7237     498.9330
   1423.93677     765.4525     498.9951   1423.93677     765.4525     498.9951
   1423.92151     765.3039     497.6293   1423.92151     765.3039     497.6293
   1423.90625     765.3036     496.3612   1423.90625     765.3036     496.3612
   1423.89099     763.3049     496.0167   1423.89099     763.3049     496.0167
   1423.87573     763.0629     496.4643   1423.87573     763.0629     496.4643
   1423.86047     761.2305     495.4202   1423.86047     761.2305     495.4202
   1423.84521     763.0045     495.6456   1423.84521     763.0045     495.6456
   1423.82996     762.5268     494.1314   1423.82996     762.5268     494.1314
   1423.81470     759.4166     492.9691   1423.81470     759.4166     492.9691
   1423.79944     759.7663     491.6788   1423.79944     759.7663     491.6788
   1423.78418     760.8408     492.7137   1423.78418     760.8408     492.7137
   1423.76892     760.7221     491.6862   1423.76892     760.7221     491.6862
   1423.75366     759.9835     491.0647   1423.75366     759.9835     491.0647
   1423.73840     758.4319     490.8304   1423.73840     758.4319     490.8304
   1423.72314     758.6774     489.3470   1423.72314     758.6774     489.3470
   1423.70789     758.7010     489.5030   1423.70789     758.7010     489.5030
   1423.69263     757.4290     488.1371   1423.69263     757.4290     488.1371
   1423.67737     758.1105     487.5561   1423.67737     758.1105     487.5561
   1423.66211     755.8476     487.3694   1423.66211     755.8476     487.3694
   1423.64685     757.1107     486.6520   1423.64685     757.1107     486.6520
   1423.63159     756.1344     485.7037   1423.63159     756.1344     485.7037
   1423.61633     755.5833     485.5156   1423.61633     755.5833     485.5156
   1423.60107     754.3006     484.4187   1423.60107     754.3006     484.4187
   1423.58582     755.1196     484.8512   1423.58582     755.1196     484.8512
   1423.57056     754.9044     484.2142   1423.57056     754.9044     484.2142
   1423.55530     754.5775     483.1747   1423.55530     754.5775     483.1747
   1423.54004     753.4158     482.2630   1423.54004     753.4158     482.2630
   1423.52478     752.9219     481.6221   1423.52478     752.9219     481.6221
   1423.50952     751.7147     480.7256   1423.50952     751.7147     480.7256
   1423.49426     752.3318     480.1854   1423.49426     752.3318     480.1854
   1423.47900     751.5084     480.0579   1423.47900     751.5084     480.0579
   1423.46375     750.8231     479.0633   1423.46375     750.8231     479.0633
   1423.44849     751.8700     478.8904   1423.44849     751.8700     478.8904
   1423.43323     750.0249     477.8654   1423.43323     750.0249     477.8654
   1423.41797     749.8530     477.7084   1423.41797     749.8530     477.7084
   1423.40271     748.9645     477.0731   1423.40271     748.9645     477.0731
   1423.38745     748.8348     476.2155   1423.38745     748.8348     476.2155
   1423.37219     750.6649     475.1698   1423.37219     750.6649     475.1698
   1423.35693     749.0333     475.2979   1423.35693     749.0333     475.2979
   1423.34167     748.7243     473.7944   1423.34167     748.7243     473.7944
   1423.32642     747.7774     473.4349   1423.32642     747.7774     473.4349
   1423.31116     746.8544     472.4836   1423.31116     746.8544     472.4836
   1423.29590     747.1273     471.4742   1423.29590     747.1273     471.4742
   1423.28064     746.4430     472.2150   1423.28064     746.4430     472.2150
   1423.26538     745.1533     471.1170   1423.26538     745.1533     471.1170
   1423.25012     745.8141     470.3613   1423.25012     745.8141     470.3613
   1423.23486     745.0609     469.2231   1423.23486     745.0609     469.2231
   1423.21960     744.9137     469.0166   1423.21960     744.9137     469.0166
   1423.20435     745.2104     467.9337   1423.20435     745.2104     467.9337
   1423.18909     743.2471     467.5831   1423.18909     743.2471     467.5831
   1423.17383     744.7714     466.0452   1423.17383     744.7714     466.0452
   1423.15857     743.7110     466.0264   1423.15857     743.7110     466.0264
   1423.14331     742.7307     465.8351   1423.14331     742.7307     465.8351
   1423.12805     742.1528     464.7865   1423.12805     742.1528     464.7865
   1423.11279     742.0627     464.3968   1423.11279     742.0627     464.3968
   1423.09753     741.8939     463.8309   1423.09753     741.8939     463.8309
   1423.08228     741.4498     462.6241   1423.08228     741.4498     462.6241
   1423.06702     741.3140     462.8236   1423.06702     741.3140     462.8236
   1423.05176     741.2253     461.3770   1423.05176     741.2253     461.3770
   1423.03650     740.2995     460.8696   1423.03650     740.2995     460.8696
   1423.02124     741.4398     460.9412   1423.02124     741.4398     460.9412
   1423.00598     739.8764     459.7675   1423.00598     739.8764     459.7675
   1422.99072     739.6052     458.6295   1422.99072     739.6052     458.6295
   1422.97546     739.3133     458.2325   1422.97546     739.3133     458.2325
   1422.96021     739.5234     458.0657   1422.96021     739.5234     458.0657
   1422.94495     738.3717     457.9177   1422.94495     738.3717     457.9177
   1422.92969     738.6774     457.0355   1422.92969     738.6774     457.0355
   1422.91443     738.8694     455.4022   1422.91443     738.8694     455.4022
   1422.89917     738.0485     455.6183   1422.89917     738.0485     455.6183
   1422.88391     737.7925     454.3542   1422.88391     737.7925     454.3542
   1422.86865     738.1003     453.5661   1422.86865     738.1003     453.5661
   1422.85339     737.6365     452.5242   1422.85339     737.6365     452.5242
   1422.83813     738.8038     452.9020   1422.83813     738.8038     452.9020
   1422.82288     737.5717     451.9248   1422.82288     737.5717     451.9248
   1422.80762     736.9865     451.8753   1422.80762     736.9865     451.8753
   1422.79236     736.5358     450.4186   1422.79236     736.5358     450.4186
   1422.77710     736.2476     450.4546   1422.77710     736.2476     450.4546
   1422.76184     736.6108     449.4833   1422.76184     736.6108     449.4833
   1422.74658     736.6200     448.9376   1422.74658     736.6200     448.9376
   1422.73132     734.7964     447.9708   1422.73132     734.7964     447.9708
   1422.71606     734.9628     448.3201   1422.71606     734.9628     448.3201
   1422.70081     735.2553     446.7183   1422.70081     735.2553     446.7183
   1422.68555     734.8705     446.1980   1422.68555     734.8705     446.1980
   1422.67029     733.7755     445.9529   1422.67029     733.7755     445.9529
   1422.65503     735.1730     445.3421   1422.65503     735.1730     445.3421
   1422.63977     734.4149     444.9378   1422.63977     734.4149     444.9378
   1422.62451     734.3783     443.9529   1422.62451     734.3783     443.9529
   1422.60925     733.1063     442.2045   1422.60925     733.1063     442.2045
   1422.59399     732.5925     442.7129   1422.59399     732.5925     442.7129
   1422.57874     734.4928     442.1666   1422.57874     734.4928     442.1666
   1422.56348     733.6637     440.5318   1422.56348     733.6637     440.5318
   1422.54822     732.7194     440.5508   1422.54822     732.7194     440.5508
   1422.53296     732.2539     440.0766   1422.53296     732.2539     440.0766
   1422.51770     733.6993     438.9340   1422.51770     733.6993     438.9340
   1422.50244     732.0279     438.2032   1422.50244     732.0279     438.2032
   1422.48718     731.5983     437.4520   1422.48718     731.5983     437.4520
   1422.47192     731.8304     437.1895   1422.47192     731.8304     437.1895
   1422.45667     733.0031     436.0409   1422.45667     733.0031     436.0409
   1422.44141     732.6852     435.2374   1422.44141     732.6852     435.2374
   1422.42615     731.3246     435.0495   1422.42615     731.3246     435.0495
   1422.41089     731.6998     433.8252   1422.41089     731.6998     433.8252
   1422.39563     730.9932     433.8815   1422.39563     730.9932     433.8815
   1422.38037     731.1361     432.9312   1422.38037     731.1361     432.9312
   1422.36511     732.5217     432.5116   1422.36511     732.5217     432.5116
   1422.34985     730.1875     431.5945   1422.34985     730.1875     431.5945
   1422.33459     732.1458     430.3645   1422.33459     732.1458     430.3645
   1422.31934     731.0557     430.4747   1422.31934     731.0557     430.4747
   1422.30408     730.1036     429.1134   1422.30408     730.1036     429.1134
   1422.28882     731.4823     429.1884   1422.28882     731.4823     429.1884
   1422.27356     730.6487     428.4971   1422.27356     730.6487     428.4971
   1422.25830     729.8053     428.3039   1422.25830     729.8053     428.3039
   1422.24304     730.8214     427.3615   1422.24304     730.8214     427.3615
   1422.22778     731.2950     425.9301   1422.22778     731.2950     425.9301
   1422.21252     729.9200     426.1697   1422.21252     729.9200     426.1697
   1422.19727     730.9518     424.9751   1422.19727     730.9518     424.9751
   1422.18201     728.8002     425.1606   1422.18201     728.8002     425.1606
   1422.16675     728.6715     423.6313   1422.16675     728.6715     423.6313
   1422.15149     729.0123     422.6334   1422.15149     729.0123     422.6334
   1422.13623     729.9570     422.8306   1422.13623     729.9570     422.8306
   1422.12097     728.7440     421.8135   1422.12097     728.7440     421.8135
   1422.10571     729.9916     421.0201   1422.10571     729.9916     421.0201
   1422.09045     728.8441     420.1255   1422.09045     728.8441     420.1255
   1422.07520     729.7284     419.4058   1422.07520     729.7284     419.4058
   1422.05994     728.5536     418.6122   1422.05994     728.5536     418.6122
   1422.04468     729.3741     418.1695   1422.04468     729.3741     418.1695
   1422.02942     728.7997     417.3584   1422.02942     728.7997     417.3584
   1422.01416     727.4449     416.6155   1422.01416     727.4449     416.6155
   1421.99890     727.4755     415.9105   1421.99890     727.4755     415.9105
   1421.98364     727.9427     415.8052   1421.98364     727.9427     415.8052
   1421.96838     727.1973     415.7485   1421.96838     727.1973     415.7485
   1421.95312     727.3307     414.4040   1421.95312     727.3307     414.4040
   1421.93787     727.0697     413.2184   1421.93787     727.0697     413.2184
   1421.92261     728.0904     412.9541   1421.92261     728.0904     412.9541
   1421.90735     728.4922     411.9781   1421.90735     728.4922     411.9781
   1421.89209     727.5020     411.2491   1421.89209     727.5020     411.2491
   1421.87683     727.8087     410.4945   1421.87683     727.8087     410.4945
   1421.86157     727.3915     409.1994   1421.86157     727.3915     409.1994
   1421.84631     727.2890     409.4205   1421.84631     727.2890     409.4205
   1421.83105     727.8152     408.7926   1421.83105     727.8152     408.7926
   1421.81580     725.3998     407.8961   1421.81580     725.3998     407.8961
   1421.80054     727.2736     407.6770   1421.80054     727.2736     407.6770
   1421.78528     726.3759     406.5996   1421.78528     726.3759     406.5996
   1421.77002     728.1395     406.5030   1421.77002     728.1395     406.5030
   1421.75476     726.9339     405.7448   1421.75476     726.9339     405.7448
   1421.73950     727.1149     403.8647   1421.73950     727.1149     403.8647
   1421.72424     725.7562     403.5180   1421.72424     725.7562     403.5180
   1421.70898     726.3028     403.1677   1421.70898     726.3028     403.1677
   1421.69373     725.5688     402.9410   1421.69373     725.5688     402.9410
   1421.67847     726.1768     402.1998   1421.67847     726.1768     402.1998
   1421.66321     724.8843     400.6116   1421.66321     724.8843     400.6116
   1421.64795     725.3333     400.5963   1421.64795     725.3333     400.5963
   1421.63269     725.5219     399.3492   1421.63269     725.5219     399.3492
   1421.61743     724.1547     399.6898   1421.61743     724.1547     399.6898
   1421.60217     725.0740     398.4782   1421.60217     725.0740     398.4782
   1421.58691     724.6341     397.6531   1421.58691     724.6341     397.6531
   1421.57166     724.6679     397.0109   1421.57166     724.6679     397.0109
   1421.55640     725.1387     396.5366   1421.55640     725.1387     396.5366
   1421.54114     725.3716     395.7702   1421.54114     725.3716     395.7702
   1421.52588     723.8035     395.2474   1421.52588     723.8035     395.2474
   1421.51062     723.9349     394.4608   1421.51062     723.9349     394.4608
   1421.49536     723.9675     394.0406   1421.49536     723.9675     394.0406
   1421.48010     724.3387     393.3273   1421.48010     724.3387     393.3273
   1421.46484     724.5401     392.5977   1421.46484     724.5401     392.5977
   1421.44958     723.9839     391.6581   1421.44958     723.9839     391.6581
   1421.43433     722.4446     391.0731   1421.43433     722.4446     391.0731
   1421.41907     723.0814     390.4088   1421.41907     723.0814     390.4088
   1421.40381     723.5620     390.0204   1421.40381     723.5620     390.0204
   1421.38855     723.3773     389.0471   1421.38855     723.3773     389.0471
   1421.37329     723.3879     388.5421   1421.37329     723.3879     388.5421
   1421.35803     722.5276     387.5857   1421.35803     722.5276     387.5857
   1421.34277     722.9993     386.7536   1421.34277     722.9993     386.7536
   1421.32751     724.0875     386.0854   1421.32751     724.0875     386.0854
   1421.31226     723.3929     385.7404   1421.31226     723.3929     385.7404
   1421.29700     721.9516     384.9480   1421.29700     721.9516     384.9480
   1421.28174     722.0677     384.2668   1421.28174     722.0677     384.2668
   1421.26648     722.3800     383.2640   1421.26648     722.3800     383.2640
   1421.25122     721.9178     382.5230   1421.25122     721.9178     382.5230
   1421.23596     720.8123     382.6434   1421.23596     720.8123     382.6434
   1421.22070     719.9553     381.7568   1421.22070     719.9553     381.7568
   1421.20544     720.2389     381.5747   1421.20544     720.2389     381.5747
   1421.19019     720.7701     380.5562   1421.19019     720.7701     380.5562
   1421.17493     719.9263     379.1278   1421.17493     719.9263     379.1278
   1421.15967     720.1222     379.2256   1421.15967     720.1222     379.2256
   1421.14441     719.7733     378.2584   1421.14441     719.7733     378.2584
   1421.12915     719.9287     377.5665   1421.12915     719.9287     377.5665
   1421.11389     719.7302     376.7042   1421.11389     719.7302     376.7042
   1421.09863     719.2762     376.3141   1421.09863     719.2762     376.3141
   1421.08337     717.7003     375.5534   1421.08337     717.7003     375.5534
   1421.06812     720.0779     375.0962   1421.06812     720.0779     375.0962
   1421.05286     718.8270     374.3374   1421.05286     718.8270     374.3374
   1421.03760     718.3647     373.6051   1421.03760     718.3647     373.6051
   1421.02234     719.1663     373.1069   1421.02234     719.1663     373.1069
   1421.00708     719.3058     372.5240   1421.00708     719.3058     372.5240
   1420.99182     719.4337     371.6919   1420.99182     719.4337     371.6919
   1420.97656     718.4733     370.7489   1420.97656     718.4733     370.7489
   1420.96130     717.4984     370.4832   1420.96130     717.4984     370.4832
   1420.94604     717.1317     369.6050   1420.94604     717.1317     369.6050
   1420.93079     717.5754     369.3937   1420.93079     717.5754     369.3937
   1420.91553     717.5436     368.5128   1420.91553     717.5436     368.5128
   1420.90027     717.7786     367.8185   1420.90027     717.7786     367.8185
   1420.88501     717.7698     367.2002   1420.88501     717.7698     367.2002
   1420.86975     716.8199     366.8874   1420.86975     716.8199     366.8874
   1420.85449     716.5384     365.6611   1420.85449     716.5384     365.6611
   1420.83923     716.9681     365.8791   1420.83923     716.9681     365.8791
   1420.82397     716.0117     365.5616   1420.82397     716.0117     365.5616
   1420.80872     717.3451     364.8400   1420.80872     717.3451     364.8400
   1420.79346     717.4565     364.6173   1420.79346     717.4565     364.6173
   1420.77820     717.1847     363.5643   1420.77820     717.1847     363.5643
   1420.76294     717.2295     363.1271   1420.76294     717.2295     363.1271
   1420.74768     717.6771     362.9666   1420.74768     717.6771     362.9666
   1420.73242     717.8450     362.6066   1420.73242     717.8450     362.6066
   1420.71716     718.4208     361.8183   1420.71716     718.4208     361.8183
   1420.70190     718.3646     361.2736   1420.70190     718.3646     361.2736
   1420.68665     718.6280     361.6137   1420.68665     718.6280     361.6137
   1420.67139     719.7262     361.0118   1420.67139     719.7262     361.0118
   1420.65613     719.8181     360.9641   1420.65613     719.8181     360.9641
   1420.64087     721.8948     360.4940   1420.64087     721.8948     360.4940
   1420.62561     721.5466     361.0225   1420.62561     721.5466     361.0225
   1420.61035     724.0422     360.5380   1420.61035     724.0422     360.5380
   1420.59509     726.0466     361.6498   1420.59509     726.0466     361.6498
   1420.57983     730.9959     361.9832   1420.57983     730.9959     361.9832
   1420.56458     735.5648     364.5934   1420.56458     735.5648     364.5934
   1420.54932     744.4199     367.9227   1420.54932     744.4199     367.9227
   1420.53406     752.7334     372.5535   1420.53406     752.7334     372.5535
   1420.51880     763.9100     376.6277   1420.51880     763.9100     376.6277
   1420.50354     777.9122     382.6147   1420.50354     777.9122     382.6147
   1420.48828     795.5648     390.3878   1420.48828     795.5648     390.3878
   1420.47302     824.5596     403.8497   1420.47302     824.5596     403.8497
   1420.45776     855.9795     418.1008   1420.45776     855.9795     418.1008
   1420.44250     915.4867     445.2179   1420.44250     915.4867     445.2179
   1420.42725    1089.0236     525.8793   1420.42725    1089.0236     525.8793
   1420.41199    1497.2090     719.2796   1420.41199    1497.2090     719.2796
   1420.39673    1999.2036     956.2640   1420.39673    1999.2036     956.2640
   1420.38147    2256.1824    1077.3237   1420.38147    2256.1824    1077.3237
   1420.36621    2335.8530    1114.5795   1420.36621    2335.8530    1114.5795
   1420.35095    2369.0989    1126.5853   1420.35095    2369.0989    1126.5853
   1420.33569    2553.9714    1210.5986   1420.33569    2553.9714    1210.5986
   1420.32043    2541.4514    1205.0701   1420.32043    2541.4514    1205.0701
   1420.30518    2391.0566    1134.6956   1420.30518    2391.0566    1134.6956
   1420.28992    2207.1750    1044.4517   1420.28992    2207.1750    1044.4517
   1420.27466    1621.9749     772.0804   1420.27466    1621.9749     772.0804
   1420.25940    1088.3059     520.2645   1420.25940    1088.3059     520.2645
   1420.24414     880.2443     422.3267   1420.24414     880.2443     422.3267
   1420.22888     797.3029     383.2114   1420.22888     797.3029     383.2114
   1420.21362     758.1470     363.4651   1420.21362     758.1470     363.4651
   1420.19836     738.3778     354.5100   1420.19836     738.3778     354.5100
   1420.18311     728.4654     348.8609   1420.18311     728.4654     348.8609
   1420.16785     721.4700     345.2432   1420.16785     721.4700     345.2432
   1420.15259     717.1390     343.1357   1420.15259     717.1390     343.1357
   1420.13733     715.5618     341.3278   1420.13733     715.5618     341.3278
   1420.12207     712.6590     339.8615   1420.12207     712.6590     339.8615
   1420.10681     710.6617     338.4997   1420.10681     710.6617     338.4997
   1420.09155     709.5068     337.7906   1420.09155     709.5068     337.7906
   1420.07629     707.5331     336.0782   1420.07629     707.5331     336.0782
   1420.06104     707.1696     334.8172   1420.06104     707.1696     334.8172
   1420.04578     706.9221     334.4272   1420.04578     706.9221     334.4272
   1420.03052     705.1719     334.6896   1420.03052     705.1719     334.6896
   1420.01526     705.4017     334.6516   1420.01526     705.4017     334.6516
   1420.00000     706.5235     334.9246   1420.00000     706.5235     334.9246
   1419.98474     707.6455     335.1974   1419.98474     707.6455     335.1974
   1419.96948     707.8324     333.2698   1419.96948     707.8324     333.2698
   1419.95422     704.0882     331.3938   1419.95422     704.0882     331.3938
   1419.93896     702.9845     330.5175   1419.93896     702.9845     330.5175
   1419.92371     704.8722     329.7375   1419.92371     704.8722     329.7375
   1419.90845     703.9730     329.5637   1419.90845     703.9730     329.5637
   1419.89319     703.1105     328.8697   1419.89319     703.1105     328.8697
   1419.87793     702.7331     328.7833   1419.87793     702.7331     328.7833
   1419.86267     702.9014     327.6487   1419.86267     702.9014     327.6487
   1419.84741     703.5518     327.2330   1419.84741     703.5518     327.2330
   1419.83215     703.5645     327.2316   1419.83215     703.5645     327.2316
   1419.81689     702.9689     326.7725   1419.81689     702.9689     326.7725
   1419.80164     702.9854     326.2015   1419.80164     702.9854     326.2015
   1419.78638     702.8610     325.6447   1419.78638     702.8610     325.6447
   1419.77112     702.0816     325.1201   1419.77112     702.0816     325.1201
   1419.75586     702.0546     324.9258   1419.75586     702.0546     324.9258
   1419.74060     702.9608     324.7102   1419.74060     702.9608     324.7102
   1419.72534     702.9490     324.5928   1419.72534     702.9490     324.5928
   1419.71008     702.2346     323.5879   1419.71008     702.2346     323.5879
   1419.69482     702.2433     323.6601   1419.69482     702.2433     323.6601
   1419.67957     701.6328     322.9129   1419.67957     701.6328     322.9129
   1419.66431     702.7146     322.6830   1419.66431     702.7146     322.6830
   1419.64905     702.1609     322.5951   1419.64905     702.1609     322.5951
   1419.63379     703.0588     322.0043   1419.63379     703.0588     322.0043
   1419.61853     703.0288     322.3391   1419.61853     703.0288     322.3391
   1419.60327     703.7008     321.1620   1419.60327     703.7008     321.1620
   1419.58801     702.8250     321.0331   1419.58801     702.8250     321.0331
   1419.57275     704.3125     321.0539   1419.57275     704.3125     321.0539
   1419.55750     703.6074     320.6188   1419.55750     703.6074     320.6188
   1419.54224     704.3517     320.7178   1419.54224     704.3517     320.7178
   1419.52698     703.2675     320.1627   1419.52698     703.2675     320.1627
   1419.51172     703.6452     320.2636   1419.51172     703.6452     320.2636
   1419.49646     704.2335     319.9243   1419.49646     704.2335     319.9243
   1419.48120     703.6778     319.2094   1419.48120     703.6778     319.2094
   1419.46594     703.3335     318.8916   1419.46594     703.3335     318.8916
   1419.45068     704.4774     319.2476   1419.45068     704.4774     319.2476
   1419.43542     704.4663     318.8336   1419.43542     704.4663     318.8336
   1419.42017     704.4508     318.0840   1419.42017     704.4508     318.0840
   1419.40491     703.1592     318.1808   1419.40491     703.1592     318.1808
   1419.38965     706.0291     318.2789   1419.38965     706.0291     318.2789
   1419.37439     707.2551     317.8940   1419.37439     707.2551     317.8940
   1419.35913     705.7744     318.1009   1419.35913     705.7744     318.1009
   1419.34387     706.8860     317.8571   1419.34387     706.8860     317.8571
   1419.32861     705.9775     317.6954   1419.32861     705.9775     317.6954
   1419.31335     706.6979     316.7123   1419.31335     706.6979     316.7123
   1419.29810     706.9046     316.8398   1419.29810     706.9046     316.8398
   1419.28284     707.7546     316.8479   1419.28284     707.7546     316.8479
   1419.26758     708.8428     316.8914   1419.26758     708.8428     316.8914
   1419.25232     707.6814     316.6607   1419.25232     707.6814     316.6607
   1419.23706     707.6834     316.5396   1419.23706     707.6834     316.5396
   1419.22180     707.4169     316.1651   1419.22180     707.4169     316.1651
   1419.20654     709.1024     316.3640   1419.20654     709.1024     316.3640
   1419.19128     709.6500     316.5833   1419.19128     709.6500     316.5833
   1419.17603     709.4648     316.4106   1419.17603     709.4648     316.4106
   1419.16077     708.9390     315.8046   1419.16077     708.9390     315.8046
   1419.14551     709.3931     315.6396   1419.14551     709.3931     315.6396
   1419.13025     710.6055     316.2435   1419.13025     710.6055     316.2435
   1419.11499     711.2270     315.8607   1419.11499     711.2270     315.8607
   1419.09973     711.7543     315.6513   1419.09973     711.7543     315.6513
   1419.08447     711.8483     315.3648   1419.08447     711.8483     315.3648
   1419.06921     711.9017     316.1297   1419.06921     711.9017     316.1297
   1419.05396     711.7884     316.2228   1419.05396     711.7884     316.2228
   1419.03870     711.6995     316.0321   1419.03870     711.6995     316.0321
   1419.02344     713.1827     315.6074   1419.02344     713.1827     315.6074
   1419.00818     713.0816     315.5949   1419.00818     713.0816     315.5949
   1418.99292     714.4700     315.5157   1418.99292     714.4700     315.5157
   1418.97766     713.4340     315.7629   1418.97766     713.4340     315.7629
   1418.96240     713.9548     315.6128   1418.96240     713.9548     315.6128
   1418.94714     715.1122     315.9023   1418.94714     715.1122     315.9023
   1418.93188     716.0414     316.4344   1418.93188     716.0414     316.4344
   1418.91663     715.7578     315.5843   1418.91663     715.7578     315.5843
   1418.90137     716.2321     315.8265   1418.90137     716.2321     315.8265
   1418.88611     716.6224     315.5501   1418.88611     716.6224     315.5501
   1418.87085     717.5995     316.1863   1418.87085     717.5995     316.1863
   1418.85559     717.6445     316.1306   1418.85559     717.6445     316.1306
   1418.84033     718.3472     316.4007   1418.84033     718.3472     316.4007
   1418.82507     718.4335     316.4727   1418.82507     718.4335     316.4727
   1418.80981     718.7847     316.4262   1418.80981     718.7847     316.4262
   1418.79456     720.2860     316.4390   1418.79456     720.2860     316.4390
   1418.77930     719.4613     316.2746   1418.77930     719.4613     316.2746
   1418.76404     720.6510     316.5912   1418.76404     720.6510     316.5912
   1418.74878     721.3363     316.4497   1418.74878     721.3363     316.4497
   1418.73352     721.0338     316.5233   1418.73352     721.0338     316.5233
   1418.71826     722.4974     316.8686   1418.71826     722.4974     316.8686
   1418.70300     723.5703     317.3979   1418.70300     723.5703     317.3979
   1418.68774     722.0684     317.5818   1418.68774     722.0684     317.5818
   1418.67249     724.5776     317.4526   1418.67249     724.5776     317.4526
   1418.65723     724.8071     318.4518   1418.65723     724.8071     318.4518
   1418.64197     724.5583     318.0962   1418.64197     724.5583     318.0962
   1418.62671     725.9241     318.2235   1418.62671     725.9241     318.2235
   1418.61145     725.2670     319.0659   1418.61145     725.2670     319.0659
   1418.59619     726.4899     318.7332   1418.59619     726.4899     318.7332
   1418.58093     726.7002     319.0765   1418.58093     726.7002     319.0765
   1418.56567     727.7238     319.4555   1418.56567     727.7238     319.4555
   1418.55042     728.0591     319.4942   1418.55042     728.0591     319.4942
   1418.53516     729.9382     319.3694   1418.53516     729.9382     319.3694
   1418.51990     730.3547     319.8532   1418.51990     730.3547     319.8532
   1418.50464     730.0521     319.9324   1418.50464     730.0521     319.9324
   1418.48938     730.4070     320.5114   1418.48938     730.4070     320.5114
   1418.47412     731.9301     320.8228   1418.47412     731.9301     320.8228
   1418.45886     733.2288     321.1568   1418.45886     733.2288     321.1568
   1418.44360     732.8162     321.2489   1418.44360     732.8162     321.2489
   1418.42834     733.7624     321.8586   1418.42834     733.7624     321.8586
   1418.41309     733.7591     322.3777   1418.41309     733.7591     322.3777
   1418.39783     735.2543     322.5331   1418.39783     735.2543     322.5331
   1418.38257     735.1669     322.3554   1418.38257     735.1669     322.3554
   1418.36731     737.4577     323.0293   1418.36731     737.4577     323.0293
   1418.35205     735.6383     323.4675   1418.35205     735.6383     323.4675
   1418.33679     737.5130     324.0127   1418.33679     737.5130     324.0127
   1418.32153     738.8766     324.3633   1418.32153     738.8766     324.3633
   1418.30627     738.8853     324.6197   1418.30627     738.8853     324.6197
   1418.29102     739.1605     324.6282   1418.29102     739.1605     324.6282
   1418.27576     740.7469     325.7272   1418.27576     740.7469     325.7272
   1418.26050     741.3758     325.4446   1418.26050     741.3758     325.4446
   1418.24524     741.8182     326.0561   1418.24524     741.8182     326.0561
   1418.22998     742.1299     326.4807   1418.22998     742.1299     326.4807
   1418.21472     742.8553     327.3045   1418.21472     742.8553     327.3045
   1418.19946     743.4778     327.6196   1418.19946     743.4778     327.6196
   1418.18420     743.8756     328.0209   1418.18420     743.8756     328.0209
   1418.16895     744.6682     328.5335   1418.16895     744.6682     328.5335
   1418.15369     745.1666     329.1197   1418.15369     745.1666     329.1197
   1418.13843     746.7853     329.1032   1418.13843     746.7853     329.1032
   1418.12317     747.0178     330.2170   1418.12317     747.0178     330.2170
   1418.10791     747.7806     330.7368   1418.10791     747.7806     330.7368
   1418.09265     749.3248     330.6631   1418.09265     749.3248     330.6631
   1418.07739     749.9455     331.1028   1418.07739     749.9455     331.1028
   1418.06213     751.4182     332.3981   1418.06213     751.4182     332.3981
   1418.04688     751.7092     332.6678   1418.04688     751.7092     332.6678
   1418.03162     751.8701     333.1030   1418.03162     751.8701     333.1030
   1418.01636     752.6501     333.5939   1418.01636     752.6501     333.5939
   1418.00110     754.2625     333.9314   1418.00110     754.2625     333.9314
   1417.98584     755.2975     334.8437   1417.98584     755.2975     334.8437
   1417.97058     754.4161     335.1727   1417.97058     754.4161     335.1727
   1417.95532     755.4899     335.6195   1417.95532     755.4899     335.6195
   1417.94006     757.2354     336.1554   1417.94006     757.2354     336.1554
   1417.92480     758.9741     336.5013   1417.92480     758.9741     336.5013
   1417.90955     758.2472     337.3334   1417.90955     758.2472     337.3334
   1417.89429     757.4472     338.0254   1417.89429     757.4472     338.0254
   1417.87903     759.8212     339.0994   1417.87903     759.8212     339.0994
   1417.86377     760.8530     339.4373   1417.86377     760.8530     339.4373
   1417.84851     762.1563     339.8888   1417.84851     762.1563     339.8888
   1417.83325     761.8707     341.2725   1417.83325     761.8707     341.2725
   1417.81799     762.2737     341.1676   1417.81799     762.2737     341.1676
   1417.80273     764.2581     341.5613   1417.80273     764.2581     341.5613
   1417.78748     765.4283     342.2563   1417.78748     765.4283     342.2563
   1417.77222     766.4743     343.1783   1417.77222     766.4743     343.1783
   1417.75696     765.8123     343.6792   1417.75696     765.8123     343.6792
   1417.74170     767.3946     344.4783   1417.74170     767.3946     344.4783
   1417.72644     768.9447     345.2971   1417.72644     768.9447     345.2971
   1417.71118     768.6205     345.6739   1417.71118     768.6205     345.6739
   1417.69592     769.0156     346.4784   1417.69592     769.0156     346.4784
   1417.68066     771.2875     347.3683   1417.68066     771.2875     347.3683
   1417.66541     771.6116     348.3392   1417.66541     771.6116     348.3392
   1417.65015     772.2031     349.2408   1417.65015     772.2031     349.2408
   1417.63489     772.5471     349.1784   1417.63489     772.5471     349.1784
   1417.61963     773.3076     350.0891   1417.61963     773.3076     350.0891
   1417.60437     775.3064     350.5204   1417.60437     775.3064     350.5204
   1417.58911     774.7223     351.5976   1417.58911     774.7223     351.5976
   1417.57385     775.3380     352.3712   1417.57385     775.3380     352.3712
   1417.55859     777.7878     352.8813   1417.55859     777.7878     352.8813
   1417.54333     777.9739     353.7610   1417.54333     777.9739     353.7610
   1417.52808     776.7891     354.4398   1417.52808     776.7891     354.4398
   1417.51282     779.3021     355.6371   1417.51282     779.3021     355.6371
   1417.49756     780.6616     356.0127   1417.49756     780.6616     356.0127
   1417.48230     780.5632     356.6217   1417.48230     780.5632     356.6217
   1417.46704     781.8779     357.7750   1417.46704     781.8779     357.7750
   1417.45178     782.3687     358.4429   1417.45178     782.3687     358.4429
   1417.43652     782.9272     359.1671   1417.43652     782.9272     359.1671
   1417.42126     783.3686     359.9346   1417.42126     783.3686     359.9346
   1417.40601     784.9814     360.9198   1417.40601     784.9814     360.9198
   1417.39075     786.1147     361.4605   1417.39075     786.1147     361.4605
   1417.37549     785.5865     362.6150   1417.37549     785.5865     362.6150
   1417.36023     785.9480     363.3901   1417.36023     785.9480     363.3901
   1417.34497     787.6710     364.0744   1417.34497     787.6710     364.0744
   1417.32971     787.8643     364.6108   1417.32971     787.8643     364.6108
   1417.31445     789.6235     365.6235   1417.31445     789.6235     365.6235
   1417.29919     789.9414     366.2837   1417.29919     789.9414     366.2837
   1417.28394     790.5985     367.4214   1417.28394     790.5985     367.4214
   1417.26868     789.8718     368.1573   1417.26868     789.8718     368.1573
   1417.25342     790.9550     368.8142   1417.25342     790.9550     368.8142
   1417.23816     792.3778     368.8594   1417.23816     792.3778     368.8594
   1417.22290     792.5831     370.1262   1417.22290     792.5831     370.1262
   1417.20764     792.8279     370.4715   1417.20764     792.8279     370.4715
   1417.19238     794.1508     372.1984   1417.19238     794.1508     372.1984
   1417.17712     795.3271     372.7859   1417.17712     795.3271     372.7859
   1417.16187     795.6763     373.2404   1417.16187     795.6763     373.2404
   1417.14661     796.1426     374.7418   1417.14661     796.1426     374.7418
   1417.13135     796.9875     375.7499   1417.13135     796.9875     375.7499
   1417.11609     797.3774     376.0595   1417.11609     797.3774     376.0595
   1417.10083     797.4381     376.9793   1417.10083     797.4381     376.9793
   1417.08557     798.2354     377.9021   1417.08557     798.2354     377.9021
   1417.07031     799.2998     378.2594   1417.07031     799.2998     378.2594
   1417.05505     798.8837     378.6570   1417.05505     798.8837     378.6570
   1417.03979     799.9686     380.2391   1417.03979     799.9686     380.2391
   1417.02454     800.5959     380.9692   1417.02454     800.5959     380.9692
   1417.00928     800.8036     381.4615   1417.00928     800.8036     381.4615
   1416.99402     801.4319     382.3400   1416.99402     801.4319     382.3400
   1416.97876     801.2920     383.5269   1416.97876     801.2920     383.5269
   1416.96350     804.1622     383.6778   1416.96350     804.1622     383.6778
   1416.94824     804.5029     384.8565   1416.94824     804.5029     384.8565
   1416.93298     803.0146     385.9443   1416.93298     803.0146     385.9443
   1416.91772     803.2773     386.4404   1416.91772     803.2773     386.4404
   1416.90247     805.2495     387.1425   1416.90247     805.2495     387.1425
   1416.88721     805.3151     388.1277   1416.88721     805.3151     388.1277
   1416.87195     805.7297     388.6834   1416.87195     805.7297     388.6834
   1416.85669     805.3678     389.1588   1416.85669     805.3678     389.1588
   1416.84143     806.2966     389.7897   1416.84143     806.2966     389.7897
   1416.82617     805.3170     390.5842   1416.82617     805.3170     390.5842
   1416.81091     806.7114     391.8625   1416.81091     806.7114     391.8625
   1416.79565     806.6953     392.1477   1416.79565     806.6953     392.1477
   1416.78040     807.9509     392.7875   1416.78040     807.9509     392.7875
   1416.76514     808.0880     393.5758   1416.76514     808.0880     393.5758
   1416.74988     806.9729     393.6876   1416.74988     806.9729     393.6876
   1416.73462     808.2316     395.0561   1416.73462     808.2316     395.0561
   1416.71936     807.6846     395.1558   1416.71936     807.6846     395.1558
   1416.70410     808.9838     395.5358   1416.70410     808.9838     395.5358
   1416.68884     808.1005     397.2461   1416.68884     808.1005     397.2461
   1416.67358     809.0928     397.3908   1416.67358     809.0928     397.3908
   1416.65833     808.5688     398.2020   1416.65833     808.5688     398.2020
   1416.64307     808.6918     398.3326   1416.64307     808.6918     398.3326
   1416.62781     810.5112     398.4369   1416.62781     810.5112     398.4369
   1416.61255     809.2944     399.7102   1416.61255     809.2944     399.7102
   1416.59729     809.8844     400.4395   1416.59729     809.8844     400.4395
   1416.58203     810.5617     400.6601   1416.58203     810.5617     400.6601
   1416.56677     809.1512     401.4058   1416.56677     809.1512     401.4058
   1416.55151     809.8354     401.2170   1416.55151     809.8354     401.2170
   1416.53625     812.3700     402.5182   1416.53625     812.3700     402.5182
   1416.52100     811.7742     403.5739   1416.52100     811.7742     403.5739
   1416.50574     811.7568     403.8925   1416.50574     811.7568     403.8925
   1416.49048     810.5781     403.5976   1416.49048     810.5781     403.5976
   1416.47522     810.5848     404.3239   1416.47522     810.5848     404.3239
   1416.45996     811.1739     404.4388   1416.45996     811.1739     404.4388
   1416.44470     810.2302     405.4828   1416.44470     810.2302     405.4828
   1416.42944     810.0378     405.8554   1416.42944     810.0378     405.8554
   1416.41418     810.8310     405.8249   1416.41418     810.8310     405.8249
   1416.39893     811.1071     407.1774   1416.39893     811.1071     407.1774
   1416.38367     811.2463     406.9605   1416.38367     811.2463     406.9605
   1416.36841     810.9486     407.3238   1416.36841     810.9486     407.3238
   1416.35315     810.4680     407.7052   1416.35315     810.4680     407.7052
   1416.33789     809.6081     408.2164   1416.33789     809.6081     408.2164
   1416.32263     808.9658     408.0903   1416.32263     808.9658     408.0903
   1416.30737     809.6562     409.4724   1416.30737     809.6562     409.4724
   1416.29211     809.1241     408.9082   1416.29211     809.1241     408.9082
   1416.27686     809.6283     409.5199   1416.27686     809.6283     409.5199
   1416.26160     810.6085     410.1503   1416.26160     810.6085     410.1503
   1416.24634     809.2058     410.4805   1416.24634     809.2058     410.4805
   1416.23108     808.4886     410.3986   1416.23108     808.4886     410.3986
   1416.21582     810.2128     410.1182   1416.21582     810.2128     410.1182
   1416.20056     807.6708     410.3290   1416.20056     807.6708     410.3290
   1416.18530     807.3793     411.1303   1416.18530     807.3793     411.1303
   1416.17004     807.0291     411.4907   1416.17004     807.0291     411.4907
   1416.15479     807.7377     411.5924   1416.15479     807.7377     411.5924
   1416.13953     807.2902     411.8113   1416.13953     807.2902     411.8113
   1416.12427     806.6412     412.9482   1416.12427     806.6412     412.9482
   1416.10901     807.0416     411.8379   1416.10901     807.0416     411.8379
   1416.09375     805.7459     412.5324   1416.09375     805.7459     412.5324
   1416.07849     805.8125     412.0476   1416.07849     805.8125     412.0476
   1416.06323     804.1995     412.1719   1416.06323     804.1995     412.1719
   1416.04797     805.5821     412.1884   1416.04797     805.5821     412.1884
   1416.03271     805.7180     412.8203   1416.03271     805.7180     412.8203
   1416.01746     802.9574     412.4924   1416.01746     802.9574     412.4924
   1416.00220     802.4052     413.3034   1416.00220     802.4052     413.3034
   1415.98694     803.7634     412.8234   1415.98694     803.7634     412.8234
   1415.97168     802.0491     413.2186   1415.97168     802.0491     413.2186
   1415.95642     801.3857     414.0646   1415.95642     801.3857     414.0646
   1415.94116     800.7726     413.2508   1415.94116     800.7726     413.2508
   1415.92590     802.1063     413.4616   1415.92590     802.1063     413.4616
   1415.91064     798.8260     413.3781   1415.91064     798.8260     413.3781
   1415.89539     799.7648     413.9764   1415.89539     799.7648     413.9764
   1415.88013     799.9960     413.1781   1415.88013     799.9960     413.1781
   1415.86487     798.6291     413.4651   1415.86487     798.6291     413.4651
   1415.84961     797.7206     413.8417   1415.84961     797.7206     413.8417
   1415.83435     797.6454     413.2335   1415.83435     797.6454     413.2335
   1415.81909     796.5576     414.3972   1415.81909     796.5576     414.3972
   1415.80383     796.3746     413.6987   1415.80383     796.3746     413.6987
   1415.78857     795.1431     413.2419   1415.78857     795.1431     413.2419
   1415.77332     795.2833     413.6874   1415.77332     795.2833     413.6874
   1415.75806     793.6353     413.7190   1415.75806     793.6353     413.7190
   1415.74280     792.6359     413.4904   1415.74280     792.6359     413.4904
   1415.72754     793.1544     413.8394   1415.72754     793.1544     413.8394
   1415.71228     792.7105     413.7865   1415.71228     792.7105     413.7865
   1415.69702     791.3347     413.5127   1415.69702     791.3347     413.5127
   1415.68176     790.7679     413.8221   1415.68176     790.7679     413.8221
   1415.66650     790.3207     413.7961   1415.66650     790.3207     413.7961
   1415.65125     789.2861     414.3343   1415.65125     789.2861     414.3343
   1415.63599     788.8970     413.0900   1415.63599     788.8970     413.0900
   1415.62073     786.9721     413.0823   1415.62073     786.9721     413.0823
   1415.60547     786.2932     413.4708   1415.60547     786.2932     413.4708
   1415.59021     785.8098     413.0056   1415.59021     785.8098     413.0056
   1415.57495     785.7076     413.1833   1415.57495     785.7076     413.1833
   1415.55969     783.4073     413.2607   1415.55969     783.4073     413.2607
   1415.54443     782.7181     412.5857   1415.54443     782.7181     412.5857
   1415.52917     781.6811     412.6794   1415.52917     781.6811     412.6794
   1415.51392     779.7881     412.2078   1415.51392     779.7881     412.2078
   1415.49866     779.2300     412.5157   1415.49866     779.2300     412.5157
   1415.48340     779.7736     411.7386   1415.48340     779.7736     411.7386
   1415.46814     777.3271     412.8755   1415.46814     777.3271     412.8755
   1415.45288     777.3107     411.6723   1415.45288     777.3107     411.6723
   1415.43762     776.8484     411.4660   1415.43762     776.8484     411.4660
   1415.42236     775.8132     411.6226   1415.42236     775.8132     411.6226
   1415.40710     775.0568     411.6254   1415.40710     775.0568     411.6254
   1415.39185     772.8577     411.7383   1415.39185     772.8577     411.7383
   1415.37659     771.9965     411.3517   1415.37659     771.9965     411.3517
   1415.36133     770.8193     410.1356   1415.36133     770.8193     410.1356
   1415.34607     771.1032     409.8102   1415.34607     771.1032     409.8102
   1415.33081     769.9560     410.0759   1415.33081     769.9560     410.0759
   1415.31555     767.5082     409.9042   1415.31555     767.5082     409.9042
   1415.30029     766.4877     409.8808   1415.30029     766.4877     409.8808
   1415.28503     765.9688     409.7338   1415.28503     765.9688     409.7338
   1415.26978     764.4587     409.4419   1415.26978     764.4587     409.4419
   1415.25452     764.2276     408.6639   1415.25452     764.2276     408.6639
   1415.23926     762.8781     408.4897   1415.23926     762.8781     408.4897
   1415.22400     759.9383     408.4886   1415.22400     759.9383     408.4886
   1415.20874     760.3153     408.3208   1415.20874     760.3153     408.3208
   1415.19348     759.0815     408.1791   1415.19348     759.0815     408.1791
   1415.17822     757.4702     407.2112   1415.17822     757.4702     407.2112
   1415.16296     757.1409     407.2281   1415.16296     757.1409     407.2281
   1415.14771     754.4511     406.9871   1415.14771     754.4511     406.9871
   1415.13245     753.8232     406.3663   1415.13245     753.8232     406.3663
   1415.11719     753.6581     405.7525   1415.11719     753.6581     405.7525
   1415.10193     750.4028     405.4138   1415.10193     750.4028     405.4138
   1415.08667     749.9755     405.2707   1415.08667     749.9755     405.2707
   1415.07141     748.8273     405.1356   1415.07141     748.8273     405.1356
   1415.05615     747.7807     404.4894   1415.05615     747.7807     404.4894
   1415.04089     746.1625     405.5215   1415.04089     746.1625     405.5215
   1415.02563     743.2722     402.9181   1415.02563     743.2722     402.9181
   1415.01038     742.6231     403.8934   1415.01038     742.6231     403.8934
   1414.99512     741.9212     402.7970   1414.99512     741.9212     402.7970
   1414.97986     741.3978     402.4288   1414.97986     741.3978     402.4288
   1414.96460     739.2491     401.7303   1414.96460     739.2491     401.7303
   1414.94934     736.3758     401.0629   1414.94934     736.3758     401.0629
   1414.93408     735.7307     400.9995   1414.93408     735.7307     400.9995
   1414.91882     733.6858     400.7827   1414.91882     733.6858     400.7827
   1414.90356     731.5588     399.6337   1414.90356     731.5588     399.6337
   1414.88831     731.5270     399.5975   1414.88831     731.5270     399.5975
   1414.87305     728.9047     398.7407   1414.87305     728.9047     398.7407
   1414.85779     728.3832     398.1264   1414.85779     728.3832     398.1264
   1414.84253     725.8670     397.6826   1414.84253     725.8670     397.6826
   1414.82727     723.6660     397.4435   1414.82727     723.6660     397.4435
   1414.81201     720.9855     396.0957   1414.81201     720.9855     396.0957
   1414.79675     720.2548     396.6714   1414.79675     720.2548     396.6714
   1414.78149     718.9114     395.4105   1414.78149     718.9114     395.4105
   1414.76624     717.0759     394.9829   1414.76624     717.0759     394.9829
   1414.75098     716.1021     394.2038   1414.75098     716.1021     394.2038
   1414.73572     714.4464     393.3333   1414.73572     714.4464     393.3333
   1414.72046     712.0628     393.2269   1414.72046     712.0628     393.2269
   1414.70520     709.3876     391.6187   1414.70520     709.3876     391.6187
   1414.68994     707.0191     391.6859   1414.68994     707.0191     391.6859
   1414.67468     707.2346     390.9901   1414.67468     707.2346     390.9901
   1414.65942     704.6178     390.0105   1414.65942     704.6178     390.0105
   1414.64417     702.5165     389.3405   1414.64417     702.5165     389.3405
   1414.62891     699.9484     388.9826   1414.62891     699.9484     388.9826
   1414.61365     699.0706     387.9218   1414.61365     699.0706     387.9218
   1414.59839     696.3607     387.3873   1414.59839     696.3607     387.3873
   1414.58313     693.8129     386.3196   1414.58313     693.8129     386.3196
   1414.56787     691.7503     385.4546   1414.56787     691.7503     385.4546
   1414.55261     691.3073     385.2722   1414.55261     691.3073     385.2722
   1414.53735     688.0220     383.7903   1414.53735     688.0220     383.7903
   1414.52209     686.9944     383.1611   1414.52209     686.9944     383.1611
   1414.50684     683.0140     382.1877   1414.50684     683.0140     382.1877
   1414.49158     681.4130     381.6356   1414.49158     681.4130     381.6356
   1414.47632     679.9799     379.7767   1414.47632     679.9799     379.7767
   1414.46106     677.3200     380.5085   1414.46106     677.3200     380.5085
   1414.44580     674.6286     379.0499   1414.44580     674.6286     379.0499
   1414.43054     671.7546     378.4792   1414.43054     671.7546     378.4792
   1414.41528     669.6705     376.8714   1414.41528     669.6705     376.8714
   1414.40002     669.0374     376.5187   1414.40002     669.0374     376.5187
   1414.38477     666.5012     375.9828   1414.38477     666.5012     375.9828
   1414.36951     664.3338     374.2165   1414.36951     664.3338     374.2165
   1414.35425     660.8545     373.1339   1414.35425     660.8545     373.1339
   1414.33899     660.3788     372.7031   1414.33899     660.3788     372.7031
   1414.32373     656.7904     371.1868   1414.32373     656.7904     371.1868
   1414.30847     654.4863     370.2879   1414.30847     654.4863     370.2879
   1414.29321     651.4441     369.7148   1414.29321     651.4441     369.7148
   1414.27795     649.5188     368.9885   1414.27795     649.5188     368.9885
   1414.26270     647.1380     367.3503   1414.26270     647.1380     367.3503
   1414.24744     646.1328     366.1303   1414.24744     646.1328     366.1303
   1414.23218     643.0207     364.7243   1414.23218     643.0207     364.7243
   1414.21692     640.6666     364.2423   1414.21692     640.6666     364.2423
   1414.20166     637.0892     362.6913   1414.20166     637.0892     362.6913
   1414.18640     634.5237     361.8383   1414.18640     634.5237     361.8383
   1414.17114     632.4557     361.2700   1414.17114     632.4557     361.2700
   1414.15588     630.3182     359.9337   1414.15588     630.3182     359.9337
   1414.14062     627.3210     358.4885   1414.14062     627.3210     358.4885
   1414.12537     623.8143     357.3023   1414.12537     623.8143     357.3023
   1414.11011     621.1532     356.1407   1414.11011     621.1532     356.1407
   1414.09485     620.5302     354.8095   1414.09485     620.5302     354.8095
   1414.07959     618.6243     354.0719   1414.07959     618.6243     354.0719
   1414.06433     614.8856     352.7324   1414.06433     614.8856     352.7324
   1414.04907     611.9111     351.2371   1414.04907     611.9111     351.2371
   1414.03381     610.8297     350.5455   1414.03381     610.8297     350.5455
   1414.01855     607.6582     349.6330   1414.01855     607.6582     349.6330
   1414.00330     624.2233     355.0446   1414.00330     624.2233     355.0446
   1413.98804     603.1010     347.7018   1413.98804     603.1010     347.7018
   1413.97278     598.3204     345.7703   1413.97278     598.3204     345.7703
   1413.95752     595.4212     344.3914   1413.95752     595.4212     344.3914
   1413.94226     593.0588     343.4247   1413.94226     593.0588     343.4247
   1413.92700     588.8278     341.7611   1413.92700     588.8278     341.7611
   1413.91174     587.6129     340.3595   1413.91174     587.6129     340.3595
   1413.89648     584.5287     339.4888   1413.89648     584.5287     339.4888
   1413.88123     582.1640     337.8930   1413.88123     582.1640     337.8930
   1413.86597     578.3134     336.6992   1413.86597     578.3134     336.6992
   1413.85071     576.0531     335.6117   1413.85071     576.0531     335.6117
   1413.83545     573.3197     334.3752   1413.83545     573.3197     334.3752
   1413.82019     570.3931     332.8537   1413.82019     570.3931     332.8537
   1413.80493     567.7206     331.3816   1413.80493     567.7206     331.3816
   1413.78967     563.8912     330.6375   1413.78967     563.8912     330.6375
   1413.77441     560.4753     328.9449   1413.77441     560.4753     328.9449
   1413.75916     559.3271     327.6431   1413.75916     559.3271     327.6431
   1413.74390     556.9900     326.2477   1413.74390     556.9900     326.2477
   1413.72864     553.6970     325.3486   1413.72864     553.6970     325.3486
   1413.71338     550.6523     323.3926   1413.71338     550.6523     323.3926
   1413.69812     546.7887     322.1906   1413.69812     546.7887     322.1906
   1413.68286     544.2540     321.2918   1413.68286     544.2540     321.2918
   1413.66760     542.4623     319.9609   1413.66760     542.4623     319.9609
   1413.65234     539.8777     318.1929   1413.65234     539.8777     318.1929
   1413.63708     535.9340     317.4608   1413.63708     535.9340     317.4608
   1413.62183     533.2003     315.9879   1413.62183     533.2003     315.9879
   1413.60657     530.1553     314.5563   1413.60657     530.1553     314.5563
   1413.59131     527.3491     313.1316   1413.59131     527.3491     313.1316
   1413.57605     524.7733     311.8924   1413.57605     524.7733     311.8924
   1413.56079     521.9146     310.3744   1413.56079     521.9146     310.3744
   1413.54553     518.6078     309.3892   1413.54553     518.6078     309.3892
   1413.53027     516.2141     308.3987   1413.53027     516.2141     308.3987
   1413.51501     513.7598     306.4622   1413.51501     513.7598     306.4622
   1413.49976     510.2474     305.9312   1413.49976     510.2474     305.9312
   1413.48450     508.0504     303.8633   1413.48450     508.0504     303.8633
   1413.46924     504.5840     302.7857   1413.46924     504.5840     302.7857
   1413.45398     501.0926     301.2312   1413.45398     501.0926     301.2312
   1413.43872     499.2672     300.4753   1413.43872     499.2672     300.4753
   1413.42346     496.3181     298.7772   1413.42346     496.3181     298.7772
   1413.40820     493.0142     297.5371   1413.40820     493.0142     297.5371
   1413.39294     491.0197     296.2650   1413.39294     491.0197     296.2650
   1413.37769     488.3433     295.1984   1413.37769     488.3433     295.1984
   1413.36243     485.6296     293.8156   1413.36243     485.6296     293.8156
   1413.34717     483.6374     292.5060   1413.34717     483.6374     292.5060
   1413.33191     480.8312     291.3155   1413.33191     480.8312     291.3155
   1413.31665     478.2315     290.7075   1413.31665     478.2315     290.7075
   1413.30139     475.4619     288.9810   1413.30139     475.4619     288.9810
   1413.28613     473.0078     288.1577   1413.28613     473.0078     288.1577
   1413.27087     469.5317     286.4112   1413.27087     469.5317     286.4112
   1413.25562     467.2739     285.4151   1413.25562     467.2739     285.4151
   1413.24036     464.8769     284.6388   1413.24036     464.8769     284.6388
   1413.22510     462.3926     283.8166   1413.22510     462.3926     283.8166
   1413.20984     459.1047     282.6342   1413.20984     459.1047     282.6342
   1413.19458     457.3778     281.3738   1413.19458     457.3778     281.3738
   1413.17932     454.4067     280.2329   1413.17932     454.4067     280.2329
   1413.16406     452.3326     279.4052   1413.16406     452.3326     279.4052
   1413.14880     450.7856     278.3203   1413.14880     450.7856     278.3203
   1413.13354     447.5367     276.9651   1413.13354     447.5367     276.9651
   1413.11829     445.2082     276.2990   1413.11829     445.2082     276.2990
   1413.10303     443.0470     274.9073   1413.10303     443.0470     274.9073
   1413.08777     439.8458     273.9394   1413.08777     439.8458     273.9394
   1413.07251     438.5798     273.4330   1413.07251     438.5798     273.4330
   1413.05725     435.7599     272.1166   1413.05725     435.7599     272.1166
   1413.04199     432.7123     271.8578   1413.04199     432.7123     271.8578
   1413.02673     430.9137     271.0386   1413.02673     430.9137     271.0386
   1413.01147     429.3339     269.8712   1413.01147     429.3339     269.8712
   1412.99622     427.1401     268.9579   1412.99622     427.1401     268.9579
   1412.98096     425.2453     268.0889   1412.98096     425.2453     268.0889
   1412.96570     422.5859     267.4005   1412.96570     422.5859     267.4005
   1412.95044     420.7386     266.6185   1412.95044     420.7386     266.6185
   1412.93518     419.2766     266.1207   1412.93518     419.2766     266.1207
   1412.91992     417.8962     265.2083   1412.91992     417.8962     265.2083
   1412.90466     415.3577     264.4527   1412.90466     415.3577     264.4527
   1412.88940     413.4385     263.9864   1412.88940     413.4385     263.9864
   1412.87415     411.7946     263.4237   1412.87415     411.7946     263.4237
   1412.85889     410.3889     262.6582   1412.85889     410.3889     262.6582
   1412.84363     408.8685     262.4699   1412.84363     408.8685     262.4699
   1412.82837     406.6631     262.1667   1412.82837     406.6631     262.1667
   1412.81311     405.1895     261.4704   1412.81311     405.1895     261.4704
   1412.79785     403.5419     261.1887   1412.79785     403.5419     261.1887
   1412.78259     402.2716     260.6320   1412.78259     402.2716     260.6320
   1412.76733     400.4091     260.3213   1412.76733     400.4091     260.3213
   1412.75208     399.1912     260.1327   1412.75208     399.1912     260.1327
   1412.73682     397.9224     259.7556   1412.73682     397.9224     259.7556
   1412.72156     397.0293     259.7723   1412.72156     397.0293     259.7723
   1412.70630     394.8250     259.5441   1412.70630     394.8250     259.5441
   1412.69104     393.7884     259.4595   1412.69104     393.7884     259.4595
   1412.67578     392.7242     259.1450   1412.67578     392.7242     259.1450
   1412.66052     392.1136     258.9547   1412.66052     392.1136     258.9547
   1412.64526     391.0321     259.0136   1412.64526     391.0321     259.0136
   1412.63000     389.6974     258.7799   1412.63000     389.6974     258.7799
   1412.61475     388.3327     259.2845   1412.61475     388.3327     259.2845
   1412.59949     386.9115     259.0862   1412.59949     386.9115     259.0862
   1412.58423     387.2434     259.7481   1412.58423     387.2434     259.7481
   1412.56897     385.4146     259.5960   1412.56897     385.4146     259.5960
   1412.55371     385.8783     259.9686   1412.55371     385.8783     259.9686
   1412.53845     384.6603     260.3243   1412.53845     384.6603     260.3243
   1412.52319     383.9556     259.9314   1412.52319     383.9556     259.9314
   1412.50793     382.8330     260.9030   1412.50793     382.8330     260.9030
   1412.49268     383.4915     260.7172   1412.49268     383.4915     260.7172
   1412.47742     382.0680     261.4368   1412.47742     382.0680     261.4368
   1412.46216     381.7401     262.0471   1412.46216     381.7401     262.0471
   1412.44690     381.1740     262.2339   1412.44690     381.1740     262.2339
   1412.43164     381.3872     262.8828   1412.43164     381.3872     262.8828
   1412.41638     380.9109     263.5954   1412.41638     380.9109     263.5954
   1412.40112     380.0060     264.1107   1412.40112     380.0060     264.1107
   1412.38586     380.0272     265.1426   1412.38586     380.0272     265.1426
   1412.37061     379.8000     265.8620   1412.37061     379.8000     265.8620
   1412.35535     379.5571     266.5305   1412.35535     379.5571     266.5305
   1412.34009     379.7978     267.4453   1412.34009     379.7978     267.4453
   1412.32483     380.5670     268.6146   1412.32483     380.5670     268.6146
   1412.30957     380.6025     269.2265   1412.30957     380.6025     269.2265
   1412.29431     380.0528     269.9675   1412.29431     380.0528     269.9675
   1412.27905     381.0652     270.9247   1412.27905     381.0652     270.9247
   1412.26379     381.2282     272.0362   1412.26379     381.2282     272.0362
   1412.24854     381.5826     273.3117   1412.24854     381.5826     273.3117
   1412.23328     381.5413     274.1688   1412.23328     381.5413     274.1688
   1412.21802     382.0588     275.7140   1412.21802     382.0588     275.7140
   1412.20276     382.0854     276.5732   1412.20276     382.0854     276.5732