#     FILENAME=!Skynet_57528_lach-cc-81_20522_20927.cyb.fits
#     BASENAME=Skynet_57528_lach-cc-81_20522_20927
#     SRC_NAME=lach-cc-81
#     OBSERVER=ccmadison16_9505
#     DATE_OBS=2016-05-20T16:03:39.620
#        OBSID=20522
#      SCANNUM=20927
#          MJD=57528.6703
#          UTC=57908
#     SCANTYPE=track
#     DATAMODE=HIRES
#     TUNEFREQ=1420.0000
# Actual_FREQ1=1420.0000
# Actual_FREQ2=1420.0000
#    LO1Tuning=6870.000
#     RFFILTER=1355_1435
#        OBSBW=-15.6250
#        NCHAN=1024 
#        FOCUS=37.0709
#           RA=20:39:02.80
#          DEC=41:27:35.61
#      RA(hrs)=20.650800
#     DEC(deg)=41.459900
#    AZIM(deg)=304.177
#    ELEV(deg)=24.264
#     IFattens=12.00, 11.00
#      WARNING=None
#    TCAL_XL1=7.9635
#    TCAL_YR1=9.1340
#    TCAL_XL2=7.9635
#    TCAL_YR2=9.1340
#     TRX_XL1=11.7060
#     TRX_YR1=11.7060
#     TRX_XL2=11.7060
#     TRX_YR2=11.7060
#        TAVE=1.0000
#Freq1(MHz)          XL1          YR1  Freq2(MHz)          XL2          YR2 

   1427.81250     306.4364     256.3133   1427.81250     306.4364     256.3133
   1427.79724     306.5177     256.6776   1427.79724     306.5177     256.6776
   1427.78198     306.8470     257.0904   1427.78198     306.8470     257.0904
   1427.76672     307.9047     258.4197   1427.76672     307.9047     258.4197
   1427.75146     308.5501     258.7026   1427.75146     308.5501     258.7026
   1427.73621     309.0996     259.8340   1427.73621     309.0996     259.8340
   1427.72095     309.7333     260.5503   1427.72095     309.7333     260.5503
   1427.70569     310.1341     260.8117   1427.70569     310.1341     260.8117
   1427.69043     311.4272     261.5003   1427.69043     311.4272     261.5003
   1427.67517     311.8416     261.9178   1427.67517     311.8416     261.9178
   1427.65991     313.6771     262.5918   1427.65991     313.6771     262.5918
   1427.64465     314.0213     263.8037   1427.64465     314.0213     263.8037
   1427.62939     315.0530     265.2503   1427.62939     315.0530     265.2503
   1427.61414     315.9623     265.4296   1427.61414     315.9623     265.4296
   1427.59888     316.8797     266.6346   1427.59888     316.8797     266.6346
   1427.58362     317.9810     267.5545   1427.58362     317.9810     267.5545
   1427.56836     319.2581     268.7458   1427.56836     319.2581     268.7458
   1427.55310     319.6406     269.8317   1427.55310     319.6406     269.8317
   1427.53784     321.6530     271.2808   1427.53784     321.6530     271.2808
   1427.52258     322.0405     272.3303   1427.52258     322.0405     272.3303
   1427.50732     323.8410     273.3286   1427.50732     323.8410     273.3286
   1427.49207     325.0738     274.5764   1427.49207     325.0738     274.5764
   1427.47681     326.6371     275.7335   1427.47681     326.6371     275.7335
   1427.46155     328.4538     277.2854   1427.46155     328.4538     277.2854
   1427.44629     329.2333     278.3179   1427.44629     329.2333     278.3179
   1427.43103     330.8934     279.5244   1427.43103     330.8934     279.5244
   1427.41577     331.8817     280.8602   1427.41577     331.8817     280.8602
   1427.40051     334.2504     283.0962   1427.40051     334.2504     283.0962
   1427.38525     335.5840     283.9401   1427.38525     335.5840     283.9401
   1427.37000     337.2537     285.5269   1427.37000     337.2537     285.5269
   1427.35474     338.8870     286.8380   1427.35474     338.8870     286.8380
   1427.33948     340.0910     288.5550   1427.33948     340.0910     288.5550
   1427.32422     342.5551     290.0791   1427.32422     342.5551     290.0791
   1427.30896     344.1225     291.2285   1427.30896     344.1225     291.2285
   1427.29370     345.6650     293.1762   1427.29370     345.6650     293.1762
   1427.27844     348.1140     294.9714   1427.27844     348.1140     294.9714
   1427.26318     349.0562     296.4224   1427.26318     349.0562     296.4224
   1427.24792     351.4570     298.0474   1427.24792     351.4570     298.0474
   1427.23267     353.0914     300.2429   1427.23267     353.0914     300.2429
   1427.21741     355.4711     301.3037   1427.21741     355.4711     301.3037
   1427.20215     356.8727     303.2588   1427.20215     356.8727     303.2588
   1427.18689     358.7166     305.0024   1427.18689     358.7166     305.0024
   1427.17163     360.7621     306.8649   1427.17163     360.7621     306.8649
   1427.15637     362.8126     308.8600   1427.15637     362.8126     308.8600
   1427.14111     364.9118     310.7050   1427.14111     364.9118     310.7050
   1427.12585     366.9950     312.3810   1427.12585     366.9950     312.3810
   1427.11060     369.2639     313.8693   1427.11060     369.2639     313.8693
   1427.09534     370.8793     315.8474   1427.09534     370.8793     315.8474
   1427.08008     373.5055     318.1051   1427.08008     373.5055     318.1051
   1427.06482     375.9062     320.0291   1427.06482     375.9062     320.0291
   1427.04956     377.6621     321.7892   1427.04956     377.6621     321.7892
   1427.03430     380.6701     323.7685   1427.03430     380.6701     323.7685
   1427.01904     381.7193     325.7349   1427.01904     381.7193     325.7349
   1427.00378     384.2270     327.8956   1427.00378     384.2270     327.8956
   1426.98853     387.0040     329.8587   1426.98853     387.0040     329.8587
   1426.97327     389.4432     331.5155   1426.97327     389.4432     331.5155
   1426.95801     391.3834     333.5731   1426.95801     391.3834     333.5731
   1426.94275     393.5270     335.6026   1426.94275     393.5270     335.6026
   1426.92749     396.2523     337.9791   1426.92749     396.2523     337.9791
   1426.91223     398.2166     340.1548   1426.91223     398.2166     340.1548
   1426.89697     400.9276     341.8867   1426.89697     400.9276     341.8867
   1426.88171     403.4260     343.7101   1426.88171     403.4260     343.7101
   1426.86646     405.6455     345.7534   1426.86646     405.6455     345.7534
   1426.85120     407.9018     348.1852   1426.85120     407.9018     348.1852
   1426.83594     410.1024     350.6730   1426.83594     410.1024     350.6730
   1426.82068     412.2227     352.5104   1426.82068     412.2227     352.5104
   1426.80542     415.1605     353.8915   1426.80542     415.1605     353.8915
   1426.79016     417.5741     356.1695   1426.79016     417.5741     356.1695
   1426.77490     419.6179     358.5245   1426.77490     419.6179     358.5245
   1426.75964     422.7718     360.1349   1426.75964     422.7718     360.1349
   1426.74438     424.0848     362.5181   1426.74438     424.0848     362.5181
   1426.72913     427.5436     365.1227   1426.72913     427.5436     365.1227
   1426.71387     429.1874     366.9723   1426.71387     429.1874     366.9723
   1426.69861     431.8434     369.1696   1426.69861     431.8434     369.1696
   1426.68335     434.4426     371.4083   1426.68335     434.4426     371.4083
   1426.66809     436.9563     373.3748   1426.66809     436.9563     373.3748
   1426.65283     439.7542     375.0831   1426.65283     439.7542     375.0831
   1426.63757     441.8221     377.8113   1426.63757     441.8221     377.8113
   1426.62231     444.6573     379.5910   1426.62231     444.6573     379.5910
   1426.60706     446.0191     382.1656   1426.60706     446.0191     382.1656
   1426.59180     449.2535     383.2931   1426.59180     449.2535     383.2931
   1426.57654     450.9552     386.0271   1426.57654     450.9552     386.0271
   1426.56128     453.5308     388.2247   1426.56128     453.5308     388.2247
   1426.54602     456.8799     389.6629   1426.54602     456.8799     389.6629
   1426.53076     458.8514     391.4162   1426.53076     458.8514     391.4162
   1426.51550     461.2784     394.1926   1426.51550     461.2784     394.1926
   1426.50024     463.5113     395.8575   1426.50024     463.5113     395.8575
   1426.48499     466.1305     397.8591   1426.48499     466.1305     397.8591
   1426.46973     468.8525     399.9577   1426.46973     468.8525     399.9577
   1426.45447     471.1450     402.2153   1426.45447     471.1450     402.2153
   1426.43921     473.4722     404.4778   1426.43921     473.4722     404.4778
   1426.42395     475.9618     406.2162   1426.42395     475.9618     406.2162
   1426.40869     478.3094     407.7666   1426.40869     478.3094     407.7666
   1426.39343     480.6517     410.3683   1426.39343     480.6517     410.3683
   1426.37817     483.6201     412.5025   1426.37817     483.6201     412.5025
   1426.36292     485.5198     413.6925   1426.36292     485.5198     413.6925
   1426.34766     487.7840     415.6677   1426.34766     487.7840     415.6677
   1426.33240     489.3390     417.2338   1426.33240     489.3390     417.2338
   1426.31714     492.0709     419.0647   1426.31714     492.0709     419.0647
   1426.30188     494.3762     420.8072   1426.30188     494.3762     420.8072
   1426.28662     497.2312     423.1380   1426.28662     497.2312     423.1380
   1426.27136     498.9390     425.2755   1426.27136     498.9390     425.2755
   1426.25610     501.0534     426.5400   1426.25610     501.0534     426.5400
   1426.24084     503.1940     428.8959   1426.24084     503.1940     428.8959
   1426.22559     505.6958     431.1508   1426.22559     505.6958     431.1508
   1426.21033     507.7874     431.6802   1426.21033     507.7874     431.6802
   1426.19507     510.7862     434.7274   1426.19507     510.7862     434.7274
   1426.17981     512.1776     436.0587   1426.17981     512.1776     436.0587
   1426.16455     513.9167     438.3560   1426.16455     513.9167     438.3560
   1426.14929     516.6538     439.2747   1426.14929     516.6538     439.2747
   1426.13403     518.8066     441.7480   1426.13403     518.8066     441.7480
   1426.11877     520.7963     442.8476   1426.11877     520.7963     442.8476
   1426.10352     522.9922     445.5038   1426.10352     522.9922     445.5038
   1426.08826     524.8395     446.6443   1426.08826     524.8395     446.6443
   1426.07300     527.6646     448.1197   1426.07300     527.6646     448.1197
   1426.05774     528.9007     449.5499   1426.05774     528.9007     449.5499
   1426.04248     530.6043     451.1877   1426.04248     530.6043     451.1877
   1426.02722     533.1172     453.0172   1426.02722     533.1172     453.0172
   1426.01196     534.2397     455.0714   1426.01196     534.2397     455.0714
   1425.99670     536.4564     456.3087   1425.99670     536.4564     456.3087
   1425.98145     538.2143     457.8867   1425.98145     538.2143     457.8867
   1425.96619     540.4366     459.7060   1425.96619     540.4366     459.7060
   1425.95093     542.2762     461.1394   1425.95093     542.2762     461.1394
   1425.93567     544.6771     462.0825   1425.93567     544.6771     462.0825
   1425.92041     546.8068     464.2736   1425.92041     546.8068     464.2736
   1425.90515     547.3011     465.3559   1425.90515     547.3011     465.3559
   1425.88989     548.9813     467.0871   1425.88989     548.9813     467.0871
   1425.87463     550.4951     468.9375   1425.87463     550.4951     468.9375
   1425.85938     553.0262     469.8093   1425.85938     553.0262     469.8093
   1425.84412     555.0668     472.0527   1425.84412     555.0668     472.0527
   1425.82886     556.7986     473.7659   1425.82886     556.7986     473.7659
   1425.81360     557.4708     474.9288   1425.81360     557.4708     474.9288
   1425.79834     560.1498     475.6566   1425.79834     560.1498     475.6566
   1425.78308     560.7005     476.5058   1425.78308     560.7005     476.5058
   1425.76782     562.4720     479.6974   1425.76782     562.4720     479.6974
   1425.75256     563.7666     479.2162   1425.75256     563.7666     479.2162
   1425.73730     565.0607     480.9426   1425.73730     565.0607     480.9426
   1425.72205     566.5615     482.8960   1425.72205     566.5615     482.8960
   1425.70679     568.5334     484.3214   1425.70679     568.5334     484.3214
   1425.69153     570.0251     485.2845   1425.69153     570.0251     485.2845
   1425.67627     571.6954     486.9865   1425.67627     571.6954     486.9865
   1425.66101     573.7678     487.8279   1425.66101     573.7678     487.8279
   1425.64575     574.4728     489.1907   1425.64575     574.4728     489.1907
   1425.63049     576.3151     491.3878   1425.63049     576.3151     491.3878
   1425.61523     577.1194     491.4527   1425.61523     577.1194     491.4527
   1425.59998     579.0435     492.4462   1425.59998     579.0435     492.4462
   1425.58472     578.7636     493.8144   1425.58472     578.7636     493.8144
   1425.56946     581.5250     494.9869   1425.56946     581.5250     494.9869
   1425.55420     581.3569     495.8350   1425.55420     581.3569     495.8350
   1425.53894     583.6595     497.4166   1425.53894     583.6595     497.4166
   1425.52368     584.5887     497.7549   1425.52368     584.5887     497.7549
   1425.50842     585.7009     499.8266   1425.50842     585.7009     499.8266
   1425.49316     587.1545     501.2237   1425.49316     587.1545     501.2237
   1425.47791     587.2858     502.2855   1425.47791     587.2858     502.2855
   1425.46265     588.7197     502.6528   1425.46265     588.7197     502.6528
   1425.44739     590.9036     505.2522   1425.44739     590.9036     505.2522
   1425.43213     591.1836     505.6435   1425.43213     591.1836     505.6435
   1425.41687     592.7815     507.0782   1425.41687     592.7815     507.0782
   1425.40161     593.9694     507.0681   1425.40161     593.9694     507.0681
   1425.38635     593.7080     507.8629   1425.38635     593.7080     507.8629
   1425.37109     595.2404     509.0998   1425.37109     595.2404     509.0998
   1425.35583     595.8145     510.6072   1425.35583     595.8145     510.6072
   1425.34058     596.1436     511.3335   1425.34058     596.1436     511.3335
   1425.32532     598.4202     512.0502   1425.32532     598.4202     512.0502
   1425.31006     598.8467     513.3568   1425.31006     598.8467     513.3568
   1425.29480     599.0480     513.0818   1425.29480     599.0480     513.0818
   1425.27954     600.5615     514.6492   1425.27954     600.5615     514.6492
   1425.26428     602.0004     516.0867   1425.26428     602.0004     516.0867
   1425.24902     601.2916     516.3370   1425.24902     601.2916     516.3370
   1425.23376     602.4507     516.9792   1425.23376     602.4507     516.9792
   1425.21851     602.4224     518.1159   1425.21851     602.4224     518.1159
   1425.20325     603.7385     520.3043   1425.20325     603.7385     520.3043
   1425.18799     605.2293     520.1795   1425.18799     605.2293     520.1795
   1425.17273     604.9504     521.8111   1425.17273     604.9504     521.8111
   1425.15747     606.4848     521.6648   1425.15747     606.4848     521.6648
   1425.14221     607.1494     522.7647   1425.14221     607.1494     522.7647
   1425.12695     607.3656     524.2768   1425.12695     607.3656     524.2768
   1425.11169     608.2045     524.5405   1425.11169     608.2045     524.5405
   1425.09644     608.2629     525.2009   1425.09644     608.2629     525.2009
   1425.08118     608.9772     525.9063   1425.08118     608.9772     525.9063
   1425.06592     609.7905     526.6324   1425.06592     609.7905     526.6324
   1425.05066     610.1812     528.3422   1425.05066     610.1812     528.3422
   1425.03540     610.6007     527.5005   1425.03540     610.6007     527.5005
   1425.02014     611.3900     528.7517   1425.02014     611.3900     528.7517
   1425.00488     612.5323     530.1716   1425.00488     612.5323     530.1716
   1424.98962     613.3293     531.9747   1424.98962     613.3293     531.9747
   1424.97437     613.3834     531.3984   1424.97437     613.3834     531.3984
   1424.95911     614.3775     532.4532   1424.95911     614.3775     532.4532
   1424.94385     614.2949     534.1747   1424.94385     614.2949     534.1747
   1424.92859     615.4042     534.5753   1424.92859     615.4042     534.5753
   1424.91333     616.3773     536.1160   1424.91333     616.3773     536.1160
   1424.89807     616.0175     536.1583   1424.89807     616.0175     536.1583
   1424.88281     615.4971     536.5378   1424.88281     615.4971     536.5378
   1424.86755     617.1078     537.1155   1424.86755     617.1078     537.1155
   1424.85229     617.6703     538.4706   1424.85229     617.6703     538.4706
   1424.83704     617.2798     538.2316   1424.83704     617.2798     538.2316
   1424.82178     617.2788     539.6127   1424.82178     617.2788     539.6127
   1424.80652     616.7867     539.2033   1424.80652     616.7867     539.2033
   1424.79126     616.9677     540.2558   1424.79126     616.9677     540.2558
   1424.77600     617.8885     541.5771   1424.77600     617.8885     541.5771
   1424.76074     618.2028     540.6459   1424.76074     618.2028     540.6459
   1424.74548     617.4678     542.2039   1424.74548     617.4678     542.2039
   1424.73022     617.2349     542.9156   1424.73022     617.2349     542.9156
   1424.71497     618.0392     543.0801   1424.71497     618.0392     543.0801
   1424.69971     617.9288     544.0322   1424.69971     617.9288     544.0322
   1424.68445     618.0258     543.7693   1424.68445     618.0258     543.7693
   1424.66919     618.6691     545.0612   1424.66919     618.6691     545.0612
   1424.65393     618.9110     546.0631   1424.65393     618.9110     546.0631
   1424.63867     619.3392     546.9695   1424.63867     619.3392     546.9695
   1424.62341     619.4755     547.3981   1424.62341     619.4755     547.3981
   1424.60815     619.8715     546.8182   1424.60815     619.8715     546.8182
   1424.59290     620.5421     547.9829   1424.59290     620.5421     547.9829
   1424.57764     619.5054     549.0701   1424.57764     619.5054     549.0701
   1424.56238     619.3906     548.7004   1424.56238     619.3906     548.7004
   1424.54712     618.8426     549.9482   1424.54712     618.8426     549.9482
   1424.53186     619.5919     550.5175   1424.53186     619.5919     550.5175
   1424.51660     619.2595     550.8405   1424.51660     619.2595     550.8405
   1424.50134     620.3054     551.2840   1424.50134     620.3054     551.2840
   1424.48608     618.7152     551.7705   1424.48608     618.7152     551.7705
   1424.47083     619.4182     552.9310   1424.47083     619.4182     552.9310
   1424.45557     619.4397     554.2028   1424.45557     619.4397     554.2028
   1424.44031     620.2447     554.1285   1424.44031     620.2447     554.1285
   1424.42505     619.9153     554.0770   1424.42505     619.9153     554.0770
   1424.40979     619.5992     554.0804   1424.40979     619.5992     554.0804
   1424.39453     620.3516     555.2812   1424.39453     620.3516     555.2812
   1424.37927     620.7437     555.8269   1424.37927     620.7437     555.8269
   1424.36401     620.1418     555.9670   1424.36401     620.1418     555.9670
   1424.34875     620.1271     557.4697   1424.34875     620.1271     557.4697
   1424.33350     620.0839     557.5103   1424.33350     620.0839     557.5103
   1424.31824     620.3425     557.6328   1424.31824     620.3425     557.6328
   1424.30298     619.9620     557.2805   1424.30298     619.9620     557.2805
   1424.28772     620.2517     559.7342   1424.28772     620.2517     559.7342
   1424.27246     618.8784     559.4130   1424.27246     618.8784     559.4130
   1424.25720     620.5117     560.6746   1424.25720     620.5117     560.6746
   1424.24194     619.2440     560.5063   1424.24194     619.2440     560.5063
   1424.22668     620.3564     561.5505   1424.22668     620.3564     561.5505
   1424.21143     619.1216     561.4344   1424.21143     619.1216     561.4344
   1424.19617     619.3408     562.4238   1424.19617     619.3408     562.4238
   1424.18091     619.6758     562.2795   1424.18091     619.6758     562.2795
   1424.16565     619.9774     563.3801   1424.16565     619.9774     563.3801
   1424.15039     620.0526     562.9691   1424.15039     620.0526     562.9691
   1424.13513     619.0704     564.2976   1424.13513     619.0704     564.2976
   1424.11987     619.6969     564.4285   1424.11987     619.6969     564.4285
   1424.10461     620.0323     564.4849   1424.10461     620.0323     564.4849
   1424.08936     619.4009     565.7115   1424.08936     619.4009     565.7115
   1424.07410     619.4058     566.5536   1424.07410     619.4058     566.5536
   1424.05884     618.6799     566.6541   1424.05884     618.6799     566.6541
   1424.04358     619.0321     566.6193   1424.04358     619.0321     566.6193
   1424.02832     619.2990     568.0860   1424.02832     619.2990     568.0860
   1424.01306     618.7880     568.2012   1424.01306     618.7880     568.2012
   1423.99780     619.4905     568.6897   1423.99780     619.4905     568.6897
   1423.98254     619.4574     568.0530   1423.98254     619.4574     568.0530
   1423.96729     619.1347     568.5293   1423.96729     619.1347     568.5293
   1423.95203     617.6638     568.8807   1423.95203     617.6638     568.8807
   1423.93677     618.7534     569.9216   1423.93677     618.7534     569.9216
   1423.92151     618.6847     569.5550   1423.92151     618.6847     569.5550
   1423.90625     618.9022     571.1285   1423.90625     618.9022     571.1285
   1423.89099     618.0952     570.6319   1423.89099     618.0952     570.6319
   1423.87573     617.9805     571.6644   1423.87573     617.9805     571.6644
   1423.86047     617.9357     572.4078   1423.86047     617.9357     572.4078
   1423.84521     617.5620     572.7220   1423.84521     617.5620     572.7220
   1423.82996     617.0175     572.9034   1423.82996     617.0175     572.9034
   1423.81470     617.8422     573.7974   1423.81470     617.8422     573.7974
   1423.79944     617.4685     573.5226   1423.79944     617.4685     573.5226
   1423.78418     618.0220     573.9924   1423.78418     618.0220     573.9924
   1423.76892     617.9057     574.3652   1423.76892     617.9057     574.3652
   1423.75366     617.6484     574.4943   1423.75366     617.6484     574.4943
   1423.73840     616.5334     575.4337   1423.73840     616.5334     575.4337
   1423.72314     617.5762     575.7933   1423.72314     617.5762     575.7933
   1423.70789     617.1858     575.3169   1423.70789     617.1858     575.3169
   1423.69263     616.9962     576.7451   1423.69263     616.9962     576.7451
   1423.67737     617.1075     576.1066   1423.67737     617.1075     576.1066
   1423.66211     616.9947     576.1949   1423.66211     616.9947     576.1949
   1423.64685     617.0076     577.8743   1423.64685     617.0076     577.8743
   1423.63159     616.7499     578.1165   1423.63159     616.7499     578.1165
   1423.61633     616.7897     577.4631   1423.61633     616.7897     577.4631
   1423.60107     615.7639     577.2766   1423.60107     615.7639     577.2766
   1423.58582     616.1855     578.2305   1423.58582     616.1855     578.2305
   1423.57056     615.3098     579.2633   1423.57056     615.3098     579.2633
   1423.55530     615.9062     578.4384   1423.55530     615.9062     578.4384
   1423.54004     615.2776     579.3142   1423.54004     615.2776     579.3142
   1423.52478     615.7339     578.3276   1423.52478     615.7339     578.3276
   1423.50952     615.4723     579.9421   1423.50952     615.4723     579.9421
   1423.49426     615.9607     578.8845   1423.49426     615.9607     578.8845
   1423.47900     614.5522     580.0565   1423.47900     614.5522     580.0565
   1423.46375     614.5884     579.4434   1423.46375     614.5884     579.4434
   1423.44849     615.1142     580.5031   1423.44849     615.1142     580.5031
   1423.43323     615.3300     580.6952   1423.43323     615.3300     580.6952
   1423.41797     614.0556     580.2011   1423.41797     614.0556     580.2011
   1423.40271     614.4375     579.1914   1423.40271     614.4375     579.1914
   1423.38745     614.2074     580.3324   1423.38745     614.2074     580.3324
   1423.37219     613.7410     581.0950   1423.37219     613.7410     581.0950
   1423.35693     614.4532     581.2652   1423.35693     614.4532     581.2652
   1423.34167     614.0410     581.1789   1423.34167     614.0410     581.1789
   1423.32642     613.9425     581.5363   1423.32642     613.9425     581.5363
   1423.31116     613.8669     581.4019   1423.31116     613.8669     581.4019
   1423.29590     613.9627     581.0225   1423.29590     613.9627     581.0225
   1423.28064     613.6581     581.2930   1423.28064     613.6581     581.2930
   1423.26538     613.4006     581.0392   1423.26538     613.4006     581.0392
   1423.25012     613.1660     581.2911   1423.25012     613.1660     581.2911
   1423.23486     612.0651     581.1341   1423.23486     612.0651     581.1341
   1423.21960     611.8036     581.0582   1423.21960     611.8036     581.0582
   1423.20435     612.5892     581.0421   1423.20435     612.5892     581.0421
   1423.18909     612.1927     582.1808   1423.18909     612.1927     582.1808
   1423.17383     613.5806     581.2686   1423.17383     613.5806     581.2686
   1423.15857     612.7755     581.1374   1423.15857     612.7755     581.1374
   1423.14331     612.5302     581.5542   1423.14331     612.5302     581.5542
   1423.12805     612.5307     580.1954   1423.12805     612.5307     580.1954
   1423.11279     612.5873     581.0118   1423.11279     612.5873     581.0118
   1423.09753     611.9232     581.7701   1423.09753     611.9232     581.7701
   1423.08228     612.6404     580.6674   1423.08228     612.6404     580.6674
   1423.06702     611.3053     579.1801   1423.06702     611.3053     579.1801
   1423.05176     611.9324     580.8442   1423.05176     611.9324     580.8442
   1423.03650     611.5411     580.0294   1423.03650     611.5411     580.0294
   1423.02124     610.9355     579.4616   1423.02124     610.9355     579.4616
   1423.00598     611.0592     579.4846   1423.00598     611.0592     579.4846
   1422.99072     611.1481     577.8505   1422.99072     611.1481     577.8505
   1422.97546     611.8130     579.2404   1422.97546     611.8130     579.2404
   1422.96021     610.8583     578.7377   1422.96021     610.8583     578.7377
   1422.94495     610.2783     578.4020   1422.94495     610.2783     578.4020
   1422.92969     609.6738     577.9620   1422.92969     609.6738     577.9620
   1422.91443     611.6065     578.9394   1422.91443     611.6065     578.9394
   1422.89917     608.9141     577.6458   1422.89917     608.9141     577.6458
   1422.88391     610.0909     576.9409   1422.88391     610.0909     576.9409
   1422.86865     609.5228     575.9508   1422.86865     609.5228     575.9508
   1422.85339     609.3051     575.7941   1422.85339     609.3051     575.7941
   1422.83813     609.0860     575.2655   1422.83813     609.0860     575.2655
   1422.82288     609.4372     575.8059   1422.82288     609.4372     575.8059
   1422.80762     609.0458     574.7408   1422.80762     609.0458     574.7408
   1422.79236     608.7760     574.0114   1422.79236     608.7760     574.0114
   1422.77710     608.6396     574.3722   1422.77710     608.6396     574.3722
   1422.76184     608.5115     573.3175   1422.76184     608.5115     573.3175
   1422.74658     607.3383     571.7480   1422.74658     607.3383     571.7480
   1422.73132     608.2408     571.5049   1422.73132     608.2408     571.5049
   1422.71606     608.3292     571.7477   1422.71606     608.3292     571.7477
   1422.70081     608.4183     571.3347   1422.70081     608.4183     571.3347
   1422.68555     608.1339     570.8973   1422.68555     608.1339     570.8973
   1422.67029     607.4093     569.2864   1422.67029     607.4093     569.2864
   1422.65503     607.5232     568.9236   1422.65503     607.5232     568.9236
   1422.63977     606.7211     569.0814   1422.63977     606.7211     569.0814
   1422.62451     607.1070     567.0939   1422.62451     607.1070     567.0939
   1422.60925     606.8785     565.8942   1422.60925     606.8785     565.8942
   1422.59399     606.5827     566.7004   1422.59399     606.5827     566.7004
   1422.57874     605.5375     566.3983   1422.57874     605.5375     566.3983
   1422.56348     606.1925     565.2422   1422.56348     606.1925     565.2422
   1422.54822     606.2101     564.6155   1422.54822     606.2101     564.6155
   1422.53296     605.7469     563.5844   1422.53296     605.7469     563.5844
   1422.51770     605.6862     562.5186   1422.51770     605.6862     562.5186
   1422.50244     604.8327     561.6988   1422.50244     604.8327     561.6988
   1422.48718     604.8986     561.7522   1422.48718     604.8986     561.7522
   1422.47192     605.1860     560.2319   1422.47192     605.1860     560.2319
   1422.45667     604.4737     559.3043   1422.45667     604.4737     559.3043
   1422.44141     604.4975     559.0726   1422.44141     604.4975     559.0726
   1422.42615     604.2517     558.1658   1422.42615     604.2517     558.1658
   1422.41089     604.7766     556.8672   1422.41089     604.7766     556.8672
   1422.39563     603.9655     555.4551   1422.39563     603.9655     555.4551
   1422.38037     604.4630     554.2006   1422.38037     604.4630     554.2006
   1422.36511     603.7910     553.9869   1422.36511     603.7910     553.9869
   1422.34985     603.1148     552.7137   1422.34985     603.1148     552.7137
   1422.33459     603.8301     552.1671   1422.33459     603.8301     552.1671
   1422.31934     603.7357     550.2894   1422.31934     603.7357     550.2894
   1422.30408     603.3555     549.8380   1422.30408     603.3555     549.8380
   1422.28882     602.3625     548.7859   1422.28882     602.3625     548.7859
   1422.27356     602.7246     548.0154   1422.27356     602.7246     548.0154
   1422.25830     603.0977     547.7065   1422.25830     603.0977     547.7065
   1422.24304     601.1643     546.7182   1422.24304     601.1643     546.7182
   1422.22778     602.6321     544.3051   1422.22778     602.6321     544.3051
   1422.21252     600.7667     543.3541   1422.21252     600.7667     543.3541
   1422.19727     601.4716     543.0131   1422.19727     601.4716     543.0131
   1422.18201     602.2353     541.3407   1422.18201     602.2353     541.3407
   1422.16675     602.0276     540.4567   1422.16675     602.0276     540.4567
   1422.15149     600.8716     539.0419   1422.15149     600.8716     539.0419
   1422.13623     601.6339     538.3817   1422.13623     601.6339     538.3817
   1422.12097     600.7612     536.7975   1422.12097     600.7612     536.7975
   1422.10571     601.0082     536.0040   1422.10571     601.0082     536.0040
   1422.09045     601.1562     534.7756   1422.09045     601.1562     534.7756
   1422.07520     601.2004     533.7410   1422.07520     601.2004     533.7410
   1422.05994     601.2448     533.2271   1422.05994     601.2448     533.2271
   1422.04468     600.1529     531.8140   1422.04468     600.1529     531.8140
   1422.02942     600.0206     530.6202   1422.02942     600.0206     530.6202
   1422.01416     599.4377     529.6226   1422.01416     599.4377     529.6226
   1421.99890     599.4222     528.1464   1421.99890     599.4222     528.1464
   1421.98364     599.3693     527.0753   1421.98364     599.3693     527.0753
   1421.96838     598.8655     525.5029   1421.96838     598.8655     525.5029
   1421.95312     598.9400     524.1993   1421.95312     598.9400     524.1993
   1421.93787     598.5765     523.0818   1421.93787     598.5765     523.0818
   1421.92261     598.4403     521.8693   1421.92261     598.4403     521.8693
   1421.90735     598.5560     520.0530   1421.90735     598.5560     520.0530
   1421.89209     598.4375     518.6547   1421.89209     598.4375     518.6547
   1421.87683     598.1085     517.7906   1421.87683     598.1085     517.7906
   1421.86157     597.9959     516.1365   1421.86157     597.9959     516.1365
   1421.84631     597.2232     515.2308   1421.84631     597.2232     515.2308
   1421.83105     597.5065     515.0390   1421.83105     597.5065     515.0390
   1421.81580     597.1434     512.7388   1421.81580     597.1434     512.7388
   1421.80054     597.5560     511.3200   1421.80054     597.5560     511.3200
   1421.78528     597.7655     510.9339   1421.78528     597.7655     510.9339
   1421.77002     596.8557     509.3694   1421.77002     596.8557     509.3694
   1421.75476     597.3653     507.8604   1421.75476     597.3653     507.8604
   1421.73950     596.2715     507.0903   1421.73950     596.2715     507.0903
   1421.72424     596.9377     505.3843   1421.72424     596.9377     505.3843
   1421.70898     596.1104     504.9203   1421.70898     596.1104     504.9203
   1421.69373     596.6864     503.3580   1421.69373     596.6864     503.3580
   1421.67847     595.8691     501.9956   1421.67847     595.8691     501.9956
   1421.66321     595.3775     500.2426   1421.66321     595.3775     500.2426
   1421.64795     595.6713     498.9843   1421.64795     595.6713     498.9843
   1421.63269     596.2608     497.7572   1421.63269     596.2608     497.7572
   1421.61743     594.8728     495.8647   1421.61743     594.8728     495.8647
   1421.60217     596.4341     495.8679   1421.60217     596.4341     495.8679
   1421.58691     594.6628     493.8775   1421.58691     594.6628     493.8775
   1421.57166     595.5052     492.3584   1421.57166     595.5052     492.3584
   1421.55640     594.7254     491.0952   1421.55640     594.7254     491.0952
   1421.54114     594.9080     490.8289   1421.54114     594.9080     490.8289
   1421.52588     594.3639     488.0015   1421.52588     594.3639     488.0015
   1421.51062     594.6990     486.9608   1421.51062     594.6990     486.9608
   1421.49536     594.3165     486.2707   1421.49536     594.3165     486.2707
   1421.48010     594.3074     485.3565   1421.48010     594.3074     485.3565
   1421.46484     593.6982     483.0952   1421.46484     593.6982     483.0952
   1421.44958     594.1218     482.3426   1421.44958     594.1218     482.3426
   1421.43433     594.0980     480.6175   1421.43433     594.0980     480.6175
   1421.41907     594.0206     479.8702   1421.41907     594.0206     479.8702
   1421.40381     593.1954     477.9119   1421.40381     593.1954     477.9119
   1421.38855     594.9048     476.6032   1421.38855     594.9048     476.6032
   1421.37329     593.8245     475.7964   1421.37329     593.8245     475.7964
   1421.35803     594.3778     474.4461   1421.35803     594.3778     474.4461
   1421.34277     593.3073     473.2101   1421.34277     593.3073     473.2101
   1421.32751     594.7857     471.5831   1421.32751     594.7857     471.5831
   1421.31226     593.8099     470.6714   1421.31226     593.8099     470.6714
   1421.29700     592.8102     470.1939   1421.29700     592.8102     470.1939
   1421.28174     593.2318     468.4841   1421.28174     593.2318     468.4841
   1421.26648     594.7292     468.2479   1421.26648     594.7292     468.2479
   1421.25122     594.0906     466.9797   1421.25122     594.0906     466.9797
   1421.23596     595.9513     465.6261   1421.23596     595.9513     465.6261
   1421.22070     595.9759     465.6618   1421.22070     595.9759     465.6618
   1421.20544     596.9200     464.1946   1421.20544     596.9200     464.1946
   1421.19019     596.6413     463.7388   1421.19019     596.6413     463.7388
   1421.17493     596.1864     463.2448   1421.17493     596.1864     463.2448
   1421.15967     596.4400     462.8169   1421.15967     596.4400     462.8169
   1421.14441     598.3806     460.8786   1421.14441     598.3806     460.8786
   1421.12915     598.3348     460.3773   1421.12915     598.3348     460.3773
   1421.11389     599.5532     460.6236   1421.11389     599.5532     460.6236
   1421.09863     602.4197     460.9963   1421.09863     602.4197     460.9963
   1421.08337     605.9731     462.3909   1421.08337     605.9731     462.3909
   1421.06812     611.5845     465.3859   1421.06812     611.5845     465.3859
   1421.05286     619.7025     470.7452   1421.05286     619.7025     470.7452
   1421.03760     631.9532     479.0619   1421.03760     631.9532     479.0619
   1421.02234     646.3521     487.6320   1421.02234     646.3521     487.6320
   1421.00708     665.0914     500.3225   1421.00708     665.0914     500.3225
   1420.99182     685.6138     514.2944   1420.99182     685.6138     514.2944
   1420.97656     705.8842     527.2935   1420.97656     705.8842     527.2935
   1420.96130     728.1664     543.0411   1420.96130     728.1664     543.0411
   1420.94604     757.6789     563.2011   1420.94604     757.6789     563.2011
   1420.93079     799.6827     591.3829   1420.93079     799.6827     591.3829
   1420.91553     860.9622     634.4836   1420.91553     860.9622     634.4836
   1420.90027     934.2706     685.4291   1420.90027     934.2706     685.4291
   1420.88501    1011.9465     739.0886   1420.88501    1011.9465     739.0886
   1420.86975    1023.3818     746.8092   1420.86975    1023.3818     746.8092
   1420.85449     901.2289     658.1541   1420.85449     901.2289     658.1541
   1420.83923     814.6252     593.0160   1420.83923     814.6252     593.0160
   1420.82397     818.8199     595.7804   1420.82397     818.8199     595.7804
   1420.80872     853.5001     617.9982   1420.80872     853.5001     617.9982
   1420.79346     913.1777     658.0998   1420.79346     913.1777     658.0998
   1420.77820    1027.2552     738.2686   1420.77820    1027.2552     738.2686
   1420.76294    1161.2585     827.6229   1420.76294    1161.2585     827.6229
   1420.74768    1142.3325     813.2910   1420.74768    1142.3325     813.2910
   1420.73242    1010.1981     720.5557   1420.73242    1010.1981     720.5557
   1420.71716     903.1050     644.1341   1420.71716     903.1050     644.1341
   1420.70190     853.5798     609.7315   1420.70190     853.5798     609.7315
   1420.68665     846.1360     601.6741   1420.68665     846.1360     601.6741
   1420.67139     873.8393     618.3473   1420.67139     873.8393     618.3473
   1420.65613     926.8018     656.5061   1420.65613     926.8018     656.5061
   1420.64087    1030.7065     723.8751   1420.64087    1030.7065     723.8751
   1420.62561    1197.1399     838.0568   1420.62561    1197.1399     838.0568
   1420.61035    1433.0715     994.8567   1420.61035    1433.0715     994.8567
   1420.59509    1653.9199    1147.1759   1420.59509    1653.9199    1147.1759
   1420.57983    1714.9286    1188.8661   1420.57983    1714.9286    1188.8661
   1420.56458    1755.1505    1210.3699   1420.56458    1755.1505    1210.3699
   1420.54932    1719.0302    1183.0421   1420.54932    1719.0302    1183.0421
   1420.53406    1628.0715    1117.3108   1420.53406    1628.0715    1117.3108
   1420.51880    1764.2793    1211.6910   1420.51880    1764.2793    1211.6910
   1420.50354    1704.6168    1167.6246   1420.50354    1704.6168    1167.6246
   1420.48828    1366.3607     937.8162   1420.48828    1366.3607     937.8162
   1420.47302    1031.7678     709.0388   1420.47302    1031.7678     709.0388
   1420.45776     833.4296     574.6806   1420.45776     833.4296     574.6806
   1420.44250     728.5623     500.5605   1420.44250     728.5623     500.5605
   1420.42725     671.9869     463.2628   1420.42725     671.9869     463.2628
   1420.41199     642.1765     440.7491   1420.41199     642.1765     440.7491
   1420.39673     621.1988     427.5965   1420.39673     621.1988     427.5965
   1420.38147     611.6637     418.2814   1420.38147     611.6637     418.2814
   1420.36621     605.4142     413.5095   1420.36621     605.4142     413.5095
   1420.35095     600.9897     410.6905   1420.35095     600.9897     410.6905
   1420.33569     599.8456     408.2101   1420.33569     599.8456     408.2101
   1420.32043     598.7120     406.9737   1420.32043     598.7120     406.9737
   1420.30518     598.8986     405.3266   1420.30518     598.8986     405.3266
   1420.28992     596.9008     403.9782   1420.28992     596.9008     403.9782
   1420.27466     597.1133     403.2726   1420.27466     597.1133     403.2726
   1420.25940     596.6569     402.4563   1420.25940     596.6569     402.4563
   1420.24414     595.3990     401.6500   1420.24414     595.3990     401.6500
   1420.22888     594.9482     400.2696   1420.22888     594.9482     400.2696
   1420.21362     594.2478     398.5757   1420.21362     594.2478     398.5757
   1420.19836     593.6432     397.4255   1420.19836     593.6432     397.4255
   1420.18311     592.2460     395.6299   1420.18311     592.2460     395.6299
   1420.16785     592.0394     395.0244   1420.16785     592.0394     395.0244
   1420.15259     591.5695     393.9525   1420.15259     591.5695     393.9525
   1420.13733     592.0383     393.3586   1420.13733     592.0383     393.3586
   1420.12207     590.8507     391.7346   1420.12207     590.8507     391.7346
   1420.10681     589.8290     390.9743   1420.10681     589.8290     390.9743
   1420.09155     589.0732     390.6042   1420.09155     589.0732     390.6042
   1420.07629     590.2281     389.6098   1420.07629     590.2281     389.6098
   1420.06104     588.8793     388.6153   1420.06104     588.8793     388.6153
   1420.04578     589.4913     387.8564   1420.04578     589.4913     387.8564
   1420.03052     590.0876     387.2870   1420.03052     590.0876     387.2870
   1420.01526     590.0074     387.1769   1420.01526     590.0074     387.1769
   1420.00000     591.0182     388.0863   1420.00000     591.0182     388.0863
   1419.98474     592.0288     388.9956   1419.98474     592.0288     388.9956
   1419.96948     592.8013     386.1644   1419.96948     592.8013     386.1644
   1419.95422     590.5395     384.4756   1419.95422     590.5395     384.4756
   1419.93896     590.0709     384.1306   1419.93896     590.0709     384.1306
   1419.92371     591.4902     383.3558   1419.92371     591.4902     383.3558
   1419.90845     591.3724     383.4167   1419.90845     591.3724     383.4167
   1419.89319     591.3329     382.6415   1419.89319     591.3329     382.6415
   1419.87793     592.3555     382.1855   1419.87793     592.3555     382.1855
   1419.86267     591.7963     382.0070   1419.86267     591.7963     382.0070
   1419.84741     592.4117     380.6802   1419.84741     592.4117     380.6802
   1419.83215     593.0985     380.4335   1419.83215     593.0985     380.4335
   1419.81689     592.4356     380.7332   1419.81689     592.4356     380.7332
   1419.80164     593.0756     380.4392   1419.80164     593.0756     380.4392
   1419.78638     593.6431     379.7572   1419.78638     593.6431     379.7572
   1419.77112     594.3387     379.1552   1419.77112     594.3387     379.1552
   1419.75586     593.1709     379.6272   1419.75586     593.1709     379.6272
   1419.74060     594.0014     378.7468   1419.74060     594.0014     378.7468
   1419.72534     593.9628     378.6969   1419.72534     593.9628     378.6969
   1419.71008     594.6669     378.7272   1419.71008     594.6669     378.7272
   1419.69482     596.1033     377.6273   1419.69482     596.1033     377.6273
   1419.67957     595.4911     377.6080   1419.67957     595.4911     377.6080
   1419.66431     595.9498     377.2733   1419.66431     595.9498     377.2733
   1419.64905     595.5745     376.9271   1419.64905     595.5745     376.9271
   1419.63379     595.3040     377.1115   1419.63379     595.3040     377.1115
   1419.61853     596.7726     376.4510   1419.61853     596.7726     376.4510
   1419.60327     596.8958     376.5414   1419.60327     596.8958     376.5414
   1419.58801     596.8888     375.7591   1419.58801     596.8888     375.7591
   1419.57275     597.7024     375.5928   1419.57275     597.7024     375.5928
   1419.55750     598.3102     375.0027   1419.55750     598.3102     375.0027
   1419.54224     598.6177     374.7959   1419.54224     598.6177     374.7959
   1419.52698     598.6284     374.5420   1419.52698     598.6284     374.5420
   1419.51172     598.8288     374.3658   1419.51172     598.8288     374.3658
   1419.49646     599.5573     374.6062   1419.49646     599.5573     374.6062
   1419.48120     599.9439     374.3719   1419.48120     599.9439     374.3719
   1419.46594     600.9412     374.2180   1419.46594     600.9412     374.2180
   1419.45068     600.3940     373.6108   1419.45068     600.3940     373.6108
   1419.43542     601.5762     373.6992   1419.43542     601.5762     373.6992
   1419.42017     601.1009     374.3773   1419.42017     601.1009     374.3773
   1419.40491     601.2133     373.4195   1419.40491     601.2133     373.4195
   1419.38965     601.7529     374.1044   1419.38965     601.7529     374.1044
   1419.37439     602.3154     373.7898   1419.37439     602.3154     373.7898
   1419.35913     603.3033     373.2952   1419.35913     603.3033     373.2952
   1419.34387     602.9943     373.2348   1419.34387     602.9943     373.2348
   1419.32861     603.3367     373.3749   1419.32861     603.3367     373.3749
   1419.31335     604.2254     373.2151   1419.31335     604.2254     373.2151
   1419.29810     603.5026     373.6446   1419.29810     603.5026     373.6446
   1419.28284     605.9330     372.9988   1419.28284     605.9330     372.9988
   1419.26758     605.6347     373.1911   1419.26758     605.6347     373.1911
   1419.25232     605.6080     373.4559   1419.25232     605.6080     373.4559
   1419.23706     606.2501     372.8577   1419.23706     606.2501     372.8577
   1419.22180     607.9216     373.7283   1419.22180     607.9216     373.7283
   1419.20654     606.3832     373.0010   1419.20654     606.3832     373.0010
   1419.19128     608.2156     372.9110   1419.19128     608.2156     372.9110
   1419.17603     608.0362     373.1734   1419.17603     608.0362     373.1734
   1419.16077     607.7010     372.6042   1419.16077     607.7010     372.6042
   1419.14551     609.8238     373.1530   1419.14551     609.8238     373.1530
   1419.13025     610.7337     373.1641   1419.13025     610.7337     373.1641
   1419.11499     609.8686     374.4685   1419.11499     609.8686     374.4685
   1419.09973     610.9377     372.6557   1419.09973     610.9377     372.6557
   1419.08447     611.3403     372.8766   1419.08447     611.3403     372.8766
   1419.06921     611.7910     373.8573   1419.06921     611.7910     373.8573
   1419.05396     611.0022     373.7409   1419.05396     611.0022     373.7409
   1419.03870     613.0787     373.6356   1419.03870     613.0787     373.6356
   1419.02344     613.1385     373.2951   1419.02344     613.1385     373.2951
   1419.00818     614.3029     374.0598   1419.00818     614.3029     374.0598
   1418.99292     614.2906     373.7445   1418.99292     614.2906     373.7445
   1418.97766     614.1063     374.4497   1418.97766     614.1063     374.4497
   1418.96240     614.9954     374.3128   1418.96240     614.9954     374.3128
   1418.94714     614.2568     374.0773   1418.94714     614.2568     374.0773
   1418.93188     616.3623     374.8396   1418.93188     616.3623     374.8396
   1418.91663     616.3025     374.4170   1418.91663     616.3025     374.4170
   1418.90137     617.2427     374.9121   1418.90137     617.2427     374.9121
   1418.88611     618.4246     375.4261   1418.88611     618.4246     375.4261
   1418.87085     617.9473     374.8963   1418.87085     617.9473     374.8963
   1418.85559     619.4401     374.9786   1418.85559     619.4401     374.9786
   1418.84033     619.3348     375.8979   1418.84033     619.3348     375.8979
   1418.82507     620.2930     375.8393   1418.82507     620.2930     375.8393
   1418.80981     620.1147     375.9744   1418.80981     620.1147     375.9744
   1418.79456     621.1430     376.2308   1418.79456     621.1430     376.2308
   1418.77930     621.4105     375.7311   1418.77930     621.4105     375.7311
   1418.76404     622.5916     376.6870   1418.76404     622.5916     376.6870
   1418.74878     623.0801     377.2924   1418.74878     623.0801     377.2924
   1418.73352     623.5490     377.3192   1418.73352     623.5490     377.3192
   1418.71826     623.9852     377.7243   1418.71826     623.9852     377.7243
   1418.70300     624.5214     377.9294   1418.70300     624.5214     377.9294
   1418.68774     625.4220     377.6359   1418.68774     625.4220     377.6359
   1418.67249     625.7411     377.9943   1418.67249     625.7411     377.9943
   1418.65723     625.8331     378.6812   1418.65723     625.8331     378.6812
   1418.64197     627.4115     379.2534   1418.64197     627.4115     379.2534
   1418.62671     627.4701     379.3382   1418.62671     627.4701     379.3382
   1418.61145     628.0790     380.3649   1418.61145     628.0790     380.3649
   1418.59619     628.6822     379.4275   1418.59619     628.6822     379.4275
   1418.58093     631.0782     379.5288   1418.58093     631.0782     379.5288
   1418.56567     630.2370     380.5960   1418.56567     630.2370     380.5960
   1418.55042     631.8631     380.5353   1418.55042     631.8631     380.5353
   1418.53516     632.3691     380.9618   1418.53516     632.3691     380.9618
   1418.51990     632.8787     380.8287   1418.51990     632.8787     380.8287
   1418.50464     633.1992     381.8468   1418.50464     633.1992     381.8468
   1418.48938     634.3311     381.7426   1418.48938     634.3311     381.7426
   1418.47412     635.0251     382.5577   1418.47412     635.0251     382.5577
   1418.45886     634.8878     383.4772   1418.45886     634.8878     383.4772
   1418.44360     636.8705     383.0006   1418.44360     636.8705     383.0006
   1418.42834     636.2538     384.0788   1418.42834     636.2538     384.0788
   1418.41309     636.7520     384.1075   1418.41309     636.7520     384.1075
   1418.39783     638.2014     384.8780   1418.39783     638.2014     384.8780
   1418.38257     638.0071     384.6205   1418.38257     638.0071     384.6205
   1418.36731     639.2561     385.2763   1418.36731     639.2561     385.2763
   1418.35205     640.5499     385.1692   1418.35205     640.5499     385.1692
   1418.33679     640.6643     385.8716   1418.33679     640.6643     385.8716
   1418.32153     640.7554     385.5829   1418.32153     640.7554     385.5829
   1418.30627     641.9540     386.8960   1418.30627     641.9540     386.8960
   1418.29102     641.9415     387.2693   1418.29102     641.9415     387.2693
   1418.27576     642.0244     387.5526   1418.27576     642.0244     387.5526
   1418.26050     643.5316     387.9414   1418.26050     643.5316     387.9414
   1418.24524     644.7980     388.8254   1418.24524     644.7980     388.8254
   1418.22998     645.4589     389.1017   1418.22998     645.4589     389.1017
   1418.21472     645.9240     389.4524   1418.21472     645.9240     389.4524
   1418.19946     646.9000     389.7604   1418.19946     646.9000     389.7604
   1418.18420     648.7357     389.9451   1418.18420     648.7357     389.9451
   1418.16895     649.6680     390.5035   1418.16895     649.6680     390.5035
   1418.15369     650.4657     391.1585   1418.15369     650.4657     391.1585
   1418.13843     650.8295     391.7140   1418.13843     650.8295     391.7140
   1418.12317     651.4692     392.0522   1418.12317     651.4692     392.0522
   1418.10791     651.8721     392.5770   1418.10791     651.8721     392.5770
   1418.09265     652.5355     392.9383   1418.09265     652.5355     392.9383
   1418.07739     653.0352     394.0128   1418.07739     653.0352     394.0128
   1418.06213     654.5726     394.6030   1418.06213     654.5726     394.6030
   1418.04688     655.7509     394.8338   1418.04688     655.7509     394.8338
   1418.03162     655.5050     395.1740   1418.03162     655.5050     395.1740
   1418.01636     655.2603     395.7619   1418.01636     655.2603     395.7619
   1418.00110     657.3311     396.5264   1418.00110     657.3311     396.5264
   1417.98584     658.5887     396.6679   1417.98584     658.5887     396.6679
   1417.97058     659.0942     397.1990   1417.97058     659.0942     397.1990
   1417.95532     660.0879     397.6465   1417.95532     660.0879     397.6465
   1417.94006     660.6300     398.3929   1417.94006     660.6300     398.3929
   1417.92480     662.3530     398.1442   1417.92480     662.3530     398.1442
   1417.90955     662.2022     399.4961   1417.90955     662.2022     399.4961
   1417.89429     663.3593     399.6110   1417.89429     663.3593     399.6110
   1417.87903     664.4941     399.8037   1417.87903     664.4941     399.8037
   1417.86377     663.6412     401.1954   1417.86377     663.6412     401.1954
   1417.84851     664.1992     400.9185   1417.84851     664.1992     400.9185
   1417.83325     666.0289     402.2635   1417.83325     666.0289     402.2635
   1417.81799     667.0904     402.4951   1417.81799     667.0904     402.4951
   1417.80273     667.7385     402.6115   1417.80273     667.7385     402.6115
   1417.78748     668.4062     403.3280   1417.78748     668.4062     403.3280
   1417.77222     669.9394     404.2710   1417.77222     669.9394     404.2710
   1417.75696     670.1346     405.0957   1417.75696     670.1346     405.0957
   1417.74170     670.4584     405.6136   1417.74170     670.4584     405.6136
   1417.72644     671.1630     406.2119   1417.72644     671.1630     406.2119
   1417.71118     673.0427     407.3122   1417.71118     673.0427     407.3122
   1417.69592     673.6470     406.4310   1417.69592     673.6470     406.4310
   1417.68066     674.2977     407.4898   1417.68066     674.2977     407.4898
   1417.66541     675.7055     407.8054   1417.66541     675.7055     407.8054
   1417.65015     676.4804     409.0702   1417.65015     676.4804     409.0702
   1417.63489     677.1323     409.8810   1417.63489     677.1323     409.8810
   1417.61963     677.2498     410.1943   1417.61963     677.2498     410.1943
   1417.60437     679.2021     410.3184   1417.60437     679.2021     410.3184
   1417.58911     679.5088     411.7375   1417.58911     679.5088     411.7375
   1417.57385     679.9617     411.7484   1417.57385     679.9617     411.7484
   1417.55859     680.4973     412.5756   1417.55859     680.4973     412.5756
   1417.54333     681.1428     412.5692   1417.54333     681.1428     412.5692
   1417.52808     682.9806     413.8013   1417.52808     682.9806     413.8013
   1417.51282     683.9718     414.4593   1417.51282     683.9718     414.4593
   1417.49756     684.9793     414.5712   1417.49756     684.9793     414.5712
   1417.48230     685.0268     415.3795   1417.48230     685.0268     415.3795
   1417.46704     685.0438     416.4459   1417.46704     685.0438     416.4459
   1417.45178     686.9368     416.5283   1417.45178     686.9368     416.5283
   1417.43652     687.6166     417.0894   1417.43652     687.6166     417.0894
   1417.42126     688.9891     418.2182   1417.42126     688.9891     418.2182
   1417.40601     688.6290     418.2010   1417.40601     688.6290     418.2010
   1417.39075     689.2007     418.8728   1417.39075     689.2007     418.8728
   1417.37549     689.4518     418.8671   1417.37549     689.4518     418.8671
   1417.36023     691.9605     420.5572   1417.36023     691.9605     420.5572
   1417.34497     691.9931     420.4346   1417.34497     691.9931     420.4346
   1417.32971     692.5562     421.7655   1417.32971     692.5562     421.7655
   1417.31445     692.5908     421.9426   1417.31445     692.5908     421.9426
   1417.29919     693.3223     422.7357   1417.29919     693.3223     422.7357
   1417.28394     695.4248     422.5659   1417.28394     695.4248     422.5659
   1417.26868     695.4536     424.1512   1417.26868     695.4536     424.1512
   1417.25342     697.1083     424.3722   1417.25342     697.1083     424.3722
   1417.23816     696.9262     424.3573   1417.23816     696.9262     424.3573
   1417.22290     699.1931     426.1343   1417.22290     699.1931     426.1343
   1417.20764     698.0632     425.9751   1417.20764     698.0632     425.9751
   1417.19238     699.2125     426.2891   1417.19238     699.2125     426.2891
   1417.17712     699.3168     426.9485   1417.17712     699.3168     426.9485
   1417.16187     700.4736     426.8527   1417.16187     700.4736     426.8527
   1417.14661     701.9163     427.5609   1417.14661     701.9163     427.5609
   1417.13135     701.1001     428.7847   1417.13135     701.1001     428.7847
   1417.11609     702.3627     429.4148   1417.11609     702.3627     429.4148
   1417.10083     702.9154     429.5674   1417.10083     702.9154     429.5674
   1417.08557     704.2001     429.7544   1417.08557     704.2001     429.7544
   1417.07031     705.0388     430.7241   1417.07031     705.0388     430.7241
   1417.05505     704.9266     431.6537   1417.05505     704.9266     431.6537
   1417.03979     705.6041     431.6017   1417.03979     705.6041     431.6017
   1417.02454     705.8722     432.2034   1417.02454     705.8722     432.2034
   1417.00928     706.3132     433.0945   1417.00928     706.3132     433.0945
   1416.99402     706.3893     433.3416   1416.99402     706.3893     433.3416
   1416.97876     707.2909     433.8419   1416.97876     707.2909     433.8419
   1416.96350     707.3253     434.6226   1416.96350     707.3253     434.6226
   1416.94824     709.1508     434.8892   1416.94824     709.1508     434.8892
   1416.93298     710.5046     435.2023   1416.93298     710.5046     435.2023
   1416.91772     710.0956     435.1137   1416.91772     710.0956     435.1137
   1416.90247     710.5305     436.1022   1416.90247     710.5305     436.1022
   1416.88721     710.7789     437.1757   1416.88721     710.7789     437.1757
   1416.87195     710.9670     436.9058   1416.87195     710.9670     436.9058
   1416.85669     711.2195     437.4718   1416.85669     711.2195     437.4718
   1416.84143     712.4980     437.8898   1416.84143     712.4980     437.8898
   1416.82617     712.9520     438.5291   1416.82617     712.9520     438.5291
   1416.81091     713.2350     438.9851   1416.81091     713.2350     438.9851
   1416.79565     713.5743     438.6404   1416.79565     713.5743     438.6404
   1416.78040     714.1706     439.3269   1416.78040     714.1706     439.3269
   1416.76514     713.1429     439.6106   1416.76514     713.1429     439.6106
   1416.74988     714.3476     440.5097   1416.74988     714.3476     440.5097
   1416.73462     714.2271     441.1145   1416.73462     714.2271     441.1145
   1416.71936     714.5760     440.4835   1416.71936     714.5760     440.4835
   1416.70410     715.3810     440.4774   1416.70410     715.3810     440.4774
   1416.68884     715.5717     441.7888   1416.68884     715.5717     441.7888
   1416.67358     715.8853     441.5921   1416.67358     715.8853     441.5921
   1416.65833     716.2962     442.5966   1416.65833     716.2962     442.5966
   1416.64307     715.7260     442.7047   1416.64307     715.7260     442.7047
   1416.62781     715.9147     442.3535   1416.62781     715.9147     442.3535
   1416.61255     716.3160     443.0349   1416.61255     716.3160     443.0349
   1416.59729     716.0460     442.9038   1416.59729     716.0460     442.9038
   1416.58203     716.1221     443.1435   1416.58203     716.1221     443.1435
   1416.56677     716.7257     443.5706   1416.56677     716.7257     443.5706
   1416.55151     717.2558     443.8161   1416.55151     717.2558     443.8161
   1416.53625     716.6479     444.3414   1416.53625     716.6479     444.3414
   1416.52100     717.7933     443.6519   1416.52100     717.7933     443.6519
   1416.50574     717.6141     445.1611   1416.50574     717.6141     445.1611
   1416.49048     718.3586     444.7353   1416.49048     718.3586     444.7353
   1416.47522     717.9273     445.2295   1416.47522     717.9273     445.2295
   1416.45996     717.7881     445.1581   1416.45996     717.7881     445.1581
   1416.44470     717.4706     445.1117   1416.44470     717.4706     445.1117
   1416.42944     717.7372     444.8624   1416.42944     717.7372     444.8624
   1416.41418     717.2603     445.3740   1416.41418     717.2603     445.3740
   1416.39893     716.7236     445.4779   1416.39893     716.7236     445.4779
   1416.38367     717.0649     445.0588   1416.38367     717.0649     445.0588
   1416.36841     716.6813     444.6660   1416.36841     716.6813     444.6660
   1416.35315     717.1881     445.6826   1416.35315     717.1881     445.6826
   1416.33789     716.3248     445.3553   1416.33789     716.3248     445.3553
   1416.32263     716.9222     446.3605   1416.32263     716.9222     446.3605
   1416.30737     716.0253     446.6402   1416.30737     716.0253     446.6402
   1416.29211     715.2893     445.3579   1416.29211     715.2893     445.3579
   1416.27686     714.7864     445.3599   1416.27686     714.7864     445.3599
   1416.26160     714.6954     446.2963   1416.26160     714.6954     446.2963
   1416.24634     714.7800     445.4263   1416.24634     714.7800     445.4263
   1416.23108     714.5726     445.7896   1416.23108     714.5726     445.7896
   1416.21582     713.9056     446.0311   1416.21582     713.9056     446.0311
   1416.20056     714.4348     446.1915   1416.20056     714.4348     446.1915
   1416.18530     713.9484     445.2778   1416.18530     713.9484     445.2778
   1416.17004     713.2784     446.0018   1416.17004     713.2784     446.0018
   1416.15479     712.8303     445.5718   1416.15479     712.8303     445.5718
   1416.13953     713.3098     445.3968   1416.13953     713.3098     445.3968
   1416.12427     712.3415     445.2422   1416.12427     712.3415     445.2422
   1416.10901     711.8082     445.7443   1416.10901     711.8082     445.7443
   1416.09375     711.5661     445.4753   1416.09375     711.5661     445.4753
   1416.07849     711.3906     445.8960   1416.07849     711.3906     445.8960
   1416.06323     710.8666     445.6653   1416.06323     710.8666     445.6653
   1416.04797     710.8170     444.2738   1416.04797     710.8170     444.2738
   1416.03271     711.0647     445.2173   1416.03271     711.0647     445.2173
   1416.01746     709.6425     443.7487   1416.01746     709.6425     443.7487
   1416.00220     709.9656     444.4082   1416.00220     709.9656     444.4082
   1415.98694     709.3762     444.9280   1415.98694     709.3762     444.9280
   1415.97168     708.0931     444.3237   1415.97168     708.0931     444.3237
   1415.95642     708.8013     444.7835   1415.95642     708.8013     444.7835
   1415.94116     707.9670     444.5161   1415.94116     707.9670     444.5161
   1415.92590     706.7679     444.4953   1415.92590     706.7679     444.4953
   1415.91064     706.9142     443.7187   1415.91064     706.9142     443.7187
   1415.89539     705.3599     443.6697   1415.89539     705.3599     443.6697
   1415.88013     705.1907     443.4175   1415.88013     705.1907     443.4175
   1415.86487     704.7542     444.1184   1415.86487     704.7542     444.1184
   1415.84961     703.9203     443.5986   1415.84961     703.9203     443.5986
   1415.83435     702.6904     443.3784   1415.83435     702.6904     443.3784
   1415.81909     703.5800     442.7736   1415.81909     703.5800     442.7736
   1415.80383     702.0971     442.8040   1415.80383     702.0971     442.8040
   1415.78857     701.6046     442.1984   1415.78857     701.6046     442.1984
   1415.77332     701.0297     442.8609   1415.77332     701.0297     442.8609
   1415.75806     700.4857     442.2258   1415.75806     700.4857     442.2258
   1415.74280     699.4010     441.6436   1415.74280     699.4010     441.6436
   1415.72754     700.0400     442.0196   1415.72754     700.0400     442.0196
   1415.71228     698.4833     440.9353   1415.71228     698.4833     440.9353
   1415.69702     698.1398     441.6062   1415.69702     698.1398     441.6062
   1415.68176     696.7564     441.4161   1415.68176     696.7564     441.4161
   1415.66650     696.7158     441.2476   1415.66650     696.7158     441.2476
   1415.65125     696.5651     440.8770   1415.65125     696.5651     440.8770
   1415.63599     694.8361     440.0006   1415.63599     694.8361     440.0006
   1415.62073     694.3009     440.6639   1415.62073     694.3009     440.6639
   1415.60547     693.5161     440.1458   1415.60547     693.5161     440.1458
   1415.59021     692.8886     439.3418   1415.59021     692.8886     439.3418
   1415.57495     691.0992     439.5875   1415.57495     691.0992     439.5875
   1415.55969     690.7678     439.6086   1415.55969     690.7678     439.6086
   1415.54443     689.5590     439.1479   1415.54443     689.5590     439.1479
   1415.52917     688.8079     438.8683   1415.52917     688.8079     438.8683
   1415.51392     687.9324     438.0302   1415.51392     687.9324     438.0302
   1415.49866     688.0706     438.1271   1415.49866     688.0706     438.1271
   1415.48340     687.5674     437.8654   1415.48340     687.5674     437.8654
   1415.46814     686.2349     437.6718   1415.46814     686.2349     437.6718
   1415.45288     684.8448     437.7289   1415.45288     684.8448     437.7289
   1415.43762     683.7837     437.1975   1415.43762     683.7837     437.1975
   1415.42236     682.7962     437.0546   1415.42236     682.7962     437.0546
   1415.40710     681.7179     437.0247   1415.40710     681.7179     437.0247
   1415.39185     679.9277     436.5733   1415.39185     679.9277     436.5733
   1415.37659     680.5215     436.0530   1415.37659     680.5215     436.0530
   1415.36133     678.9733     435.1229   1415.36133     678.9733     435.1229
   1415.34607     678.4864     434.8256   1415.34607     678.4864     434.8256
   1415.33081     677.1878     434.9454   1415.33081     677.1878     434.9454
   1415.31555     677.2000     434.7413   1415.31555     677.2000     434.7413
   1415.30029     675.5751     433.6855   1415.30029     675.5751     433.6855
   1415.28503     673.9218     433.1703   1415.28503     673.9218     433.1703
   1415.26978     672.1210     432.9875   1415.26978     672.1210     432.9875
   1415.25452     670.9718     433.4431   1415.25452     670.9718     433.4431
   1415.23926     670.2594     432.1618   1415.23926     670.2594     432.1618
   1415.22400     669.5392     431.6536   1415.22400     669.5392     431.6536
   1415.20874     667.9675     431.9091   1415.20874     667.9675     431.9091
   1415.19348     667.1854     430.8550   1415.19348     667.1854     430.8550
   1415.17822     666.8965     430.8443   1415.17822     666.8965     430.8443
   1415.16296     665.0749     430.2160   1415.16296     665.0749     430.2160
   1415.14771     663.4444     429.6267   1415.14771     663.4444     429.6267
   1415.13245     662.5295     429.6856   1415.13245     662.5295     429.6856
   1415.11719     660.7480     428.9828   1415.11719     660.7480     428.9828
   1415.10193     659.4571     428.4013   1415.10193     659.4571     428.4013
   1415.08667     658.4825     428.0584   1415.08667     658.4825     428.0584
   1415.07141     657.8694     427.5707   1415.07141     657.8694     427.5707
   1415.05615     654.9305     427.3073   1415.05615     654.9305     427.3073
   1415.04089     653.5131     426.1623   1415.04089     653.5131     426.1623
   1415.02563     652.6257     426.3817   1415.02563     652.6257     426.3817
   1415.01038     650.6906     425.1276   1415.01038     650.6906     425.1276
   1414.99512     650.5003     424.9030   1414.99512     650.5003     424.9030
   1414.97986     648.2562     424.0272   1414.97986     648.2562     424.0272
   1414.96460     647.5722     423.8947   1414.96460     647.5722     423.8947
   1414.94934     645.0696     423.1922   1414.94934     645.0696     423.1922
   1414.93408     644.4619     423.0968   1414.93408     644.4619     423.0968
   1414.91882     642.9543     422.2679   1414.91882     642.9543     422.2679
   1414.90356     641.5536     421.3696   1414.90356     641.5536     421.3696
   1414.88831     638.7339     421.1703   1414.88831     638.7339     421.1703
   1414.87305     638.4547     420.6209   1414.87305     638.4547     420.6209
   1414.85779     635.4890     419.9323   1414.85779     635.4890     419.9323
   1414.84253     635.0345     418.9514   1414.84253     635.0345     418.9514
   1414.82727     633.3565     418.3597   1414.82727     633.3565     418.3597
   1414.81201     630.8590     417.6892   1414.81201     630.8590     417.6892
   1414.79675     629.5584     416.5791   1414.79675     629.5584     416.5791
   1414.78149     627.6495     417.5323   1414.78149     627.6495     417.5323
   1414.76624     625.7928     415.5204   1414.76624     625.7928     415.5204
   1414.75098     624.1755     415.2720   1414.75098     624.1755     415.2720
   1414.73572     623.4245     414.3658   1414.73572     623.4245     414.3658
   1414.72046     620.6487     413.7738   1414.72046     620.6487     413.7738
   1414.70520     618.9808     412.7747   1414.70520     618.9808     412.7747
   1414.68994     616.6941     411.8863   1414.68994     616.6941     411.8863
   1414.67468     614.2310     411.1390   1414.67468     614.2310     411.1390
   1414.65942     613.6359     410.9011   1414.65942     613.6359     410.9011
   1414.64417     611.0031     410.3098   1414.64417     611.0031     410.3098
   1414.62891     609.8447     409.2999   1414.62891     609.8447     409.2999
   1414.61365     607.4670     408.3434   1414.61365     607.4670     408.3434
   1414.59839     605.2704     408.0349   1414.59839     605.2704     408.0349
   1414.58313     603.2462     406.9204   1414.58313     603.2462     406.9204
   1414.56787     600.7028     405.7970   1414.56787     600.7028     405.7970
   1414.55261     598.1742     405.4163   1414.55261     598.1742     405.4163
   1414.53735     597.2723     404.2239   1414.53735     597.2723     404.2239
   1414.52209     595.1724     402.9990   1414.52209     595.1724     402.9990
   1414.50684     592.7792     402.9926   1414.50684     592.7792     402.9926
   1414.49158     591.4867     401.6012   1414.49158     591.4867     401.6012
   1414.47632     589.4971     400.0815   1414.47632     589.4971     400.0815
   1414.46106     586.5568     399.7235   1414.46106     586.5568     399.7235
   1414.44580     583.8110     398.8634   1414.44580     583.8110     398.8634
   1414.43054     582.8506     397.5951   1414.43054     582.8506     397.5951
   1414.41528     579.0215     397.0262   1414.41528     579.0215     397.0262
   1414.40002     577.5584     396.4479   1414.40002     577.5584     396.4479
   1414.38477     575.5411     395.0534   1414.38477     575.5411     395.0534
   1414.36951     573.3795     394.5261   1414.36951     573.3795     394.5261
   1414.35425     570.3428     392.6032   1414.35425     570.3428     392.6032
   1414.33899     568.9869     391.5884   1414.33899     568.9869     391.5884
   1414.32373     565.7408     391.0326   1414.32373     565.7408     391.0326
   1414.30847     564.0199     389.9177   1414.30847     564.0199     389.9177
   1414.29321     561.1840     389.0509   1414.29321     561.1840     389.0509
   1414.27795     558.4693     388.0101   1414.27795     558.4693     388.0101
   1414.26270     555.8821     386.5450   1414.26270     555.8821     386.5450
   1414.24744     554.8043     385.4315   1414.24744     554.8043     385.4315
   1414.23218     551.4191     384.2304   1414.23218     551.4191     384.2304
   1414.21692     549.8533     383.0098   1414.21692     549.8533     383.0098
   1414.20166     545.5316     382.0001   1414.20166     545.5316     382.0001
   1414.18640     543.4283     381.6344   1414.18640     543.4283     381.6344
   1414.17114     542.0019     379.7528   1414.17114     542.0019     379.7528
   1414.15588     539.2283     378.4211   1414.15588     539.2283     378.4211
   1414.14062     537.2759     378.1369   1414.14062     537.2759     378.1369
   1414.12537     533.9033     376.2376   1414.12537     533.9033     376.2376
   1414.11011     531.8992     375.7148   1414.11011     531.8992     375.7148
   1414.09485     529.2654     374.2871   1414.09485     529.2654     374.2871
   1414.07959     526.9482     373.1532   1414.07959     526.9482     373.1532
   1414.06433     524.1313     371.6793   1414.06433     524.1313     371.6793
   1414.04907     521.7598     370.8922   1414.04907     521.7598     370.8922
   1414.03381     518.9669     369.1056   1414.03381     518.9669     369.1056
   1414.01855     516.9646     368.3901   1414.01855     516.9646     368.3901
   1414.00330     533.9810     376.2573   1414.00330     533.9810     376.2573
   1413.98804     512.8425     366.3494   1413.98804     512.8425     366.3494
   1413.97278     508.5585     364.3822   1413.97278     508.5585     364.3822
   1413.95752     505.6700     363.5987   1413.95752     505.6700     363.5987
   1413.94226     503.1999     361.5785   1413.94226     503.1999     361.5785
   1413.92700     499.6408     360.2545   1413.92700     499.6408     360.2545
   1413.91174     497.4261     359.4467   1413.91174     497.4261     359.4467
   1413.89648     493.9374     357.5716   1413.89648     493.9374     357.5716
   1413.88123     492.6855     356.6443   1413.88123     492.6855     356.6443
   1413.86597     489.1631     355.8871   1413.86597     489.1631     355.8871
   1413.85071     486.3575     354.2712   1413.85071     486.3575     354.2712
   1413.83545     483.5688     352.5935   1413.83545     483.5688     352.5935
   1413.82019     480.8495     351.2479   1413.82019     480.8495     351.2479
   1413.80493     478.8501     350.2637   1413.80493     478.8501     350.2637
   1413.78967     475.4019     348.1313   1413.78967     475.4019     348.1313
   1413.77441     473.1009     347.0626   1413.77441     473.1009     347.0626
   1413.75916     471.0134     346.2246   1413.75916     471.0134     346.2246
   1413.74390     467.6331     344.5825   1413.74390     467.6331     344.5825
   1413.72864     465.5868     343.6331   1413.72864     465.5868     343.6331
   1413.71338     462.2035     341.7554   1413.71338     462.2035     341.7554
   1413.69812     459.4409     340.4737   1413.69812     459.4409     340.4737
   1413.68286     456.6693     339.2161   1413.68286     456.6693     339.2161
   1413.66760     455.0110     337.6696   1413.66760     455.0110     337.6696
   1413.65234     451.8369     336.3285   1413.65234     451.8369     336.3285
   1413.63708     448.9201     334.7669   1413.63708     448.9201     334.7669
   1413.62183     446.1566     333.5120   1413.62183     446.1566     333.5120
   1413.60657     442.9445     331.9448   1413.60657     442.9445     331.9448
   1413.59131     440.2670     330.9022   1413.59131     440.2670     330.9022
   1413.57605     437.8853     329.4458   1413.57605     437.8853     329.4458
   1413.56079     435.6849     327.7928   1413.56079     435.6849     327.7928
   1413.54553     431.8560     325.9558   1413.54553     431.8560     325.9558
   1413.53027     429.5033     324.9322   1413.53027     429.5033     324.9322
   1413.51501     426.9431     323.6327   1413.51501     426.9431     323.6327
   1413.49976     424.8773     322.0262   1413.49976     424.8773     322.0262
   1413.48450     422.6434     320.9321   1413.48450     422.6434     320.9321
   1413.46924     419.7681     318.8966   1413.46924     419.7681     318.8966
   1413.45398     416.2267     317.4705   1413.45398     416.2267     317.4705
   1413.43872     413.7854     316.3913   1413.43872     413.7854     316.3913
   1413.42346     411.0279     315.2516   1413.42346     411.0279     315.2516
   1413.40820     409.0074     313.7482   1413.40820     409.0074     313.7482
   1413.39294     406.4593     312.5272   1413.39294     406.4593     312.5272
   1413.37769     404.3535     311.0959   1413.37769     404.3535     311.0959
   1413.36243     401.0594     309.6992   1413.36243     401.0594     309.6992
   1413.34717     398.9329     307.9254   1413.34717     398.9329     307.9254
   1413.33191     396.2901     307.0943   1413.33191     396.2901     307.0943
   1413.31665     393.9543     305.4612   1413.31665     393.9543     305.4612
   1413.30139     391.2078     304.3169   1413.30139     391.2078     304.3169
   1413.28613     389.1598     302.1768   1413.28613     389.1598     302.1768
   1413.27087     386.3961     301.2644   1413.27087     386.3961     301.2644
   1413.25562     384.1978     300.1538   1413.25562     384.1978     300.1538
   1413.24036     381.9121     298.9053   1413.24036     381.9121     298.9053
   1413.22510     379.8685     297.2725   1413.22510     379.8685     297.2725
   1413.20984     377.2698     295.7110   1413.20984     377.2698     295.7110
   1413.19458     375.2098     294.9152   1413.19458     375.2098     294.9152
   1413.17932     372.3182     293.7877   1413.17932     372.3182     293.7877
   1413.16406     370.4318     292.0661   1413.16406     370.4318     292.0661
   1413.14880     368.5508     290.2884   1413.14880     368.5508     290.2884
   1413.13354     366.0580     289.6165   1413.13354     366.0580     289.6165
   1413.11829     363.6519     288.0305   1413.11829     363.6519     288.0305
   1413.10303     362.3576     286.5277   1413.10303     362.3576     286.5277
   1413.08777     360.1123     285.7657   1413.08777     360.1123     285.7657
   1413.07251     358.0651     284.7645   1413.07251     358.0651     284.7645
   1413.05725     355.9662     283.2146   1413.05725     355.9662     283.2146
   1413.04199     353.4448     281.7039   1413.04199     353.4448     281.7039
   1413.02673     351.7487     281.0092   1413.02673     351.7487     281.0092
   1413.01147     349.4814     279.6644   1413.01147     349.4814     279.6644
   1412.99622     348.2773     278.6720   1412.99622     348.2773     278.6720
   1412.98096     346.0154     277.4451   1412.98096     346.0154     277.4451
   1412.96570     344.0171     276.5617   1412.96570     344.0171     276.5617
   1412.95044     342.2816     275.3908   1412.95044     342.2816     275.3908
   1412.93518     340.3605     273.8368   1412.93518     340.3605     273.8368
   1412.91992     338.9537     273.6168   1412.91992     338.9537     273.6168
   1412.90466     337.0738     272.0273   1412.90466     337.0738     272.0273
   1412.88940     335.4502     271.0172   1412.88940     335.4502     271.0172
   1412.87415     334.3860     270.4348   1412.87415     334.3860     270.4348
   1412.85889     332.5272     268.9107   1412.85889     332.5272     268.9107
   1412.84363     331.3278     268.2376   1412.84363     331.3278     268.2376
   1412.82837     329.4824     266.9902   1412.82837     329.4824     266.9902
   1412.81311     327.8083     266.4548   1412.81311     327.8083     266.4548
   1412.79785     326.4965     265.8109   1412.79785     326.4965     265.8109
   1412.78259     325.6474     265.0795   1412.78259     325.6474     265.0795
   1412.76733     323.4070     263.7857   1412.76733     323.4070     263.7857
   1412.75208     322.6554     262.9564   1412.75208     322.6554     262.9564
   1412.73682     321.5195     262.5579   1412.73682     321.5195     262.5579
   1412.72156     320.3034     261.6488   1412.72156     320.3034     261.6488
   1412.70630     319.0550     260.8885   1412.70630     319.0550     260.8885
   1412.69104     317.5657     260.5659   1412.69104     317.5657     260.5659
   1412.67578     317.1451     259.6314   1412.67578     317.1451     259.6314
   1412.66052     315.3559     259.4592   1412.66052     315.3559     259.4592
   1412.64526     314.4578     258.7929   1412.64526     314.4578     258.7929
   1412.63000     314.0384     258.0518   1412.63000     314.0384     258.0518
   1412.61475     312.5467     257.6498   1412.61475     312.5467     257.6498
   1412.59949     311.9157     256.4727   1412.59949     311.9157     256.4727
   1412.58423     311.0254     256.3488   1412.58423     311.0254     256.3488
   1412.56897     310.4664     255.7459   1412.56897     310.4664     255.7459
   1412.55371     309.6138     255.5272   1412.55371     309.6138     255.5272
   1412.53845     309.3380     255.5450   1412.53845     309.3380     255.5450
   1412.52319     308.3233     254.5526   1412.52319     308.3233     254.5526
   1412.50793     308.0139     254.4129   1412.50793     308.0139     254.4129
   1412.49268     306.7915     254.4353   1412.49268     306.7915     254.4353
   1412.47742     306.5484     254.0920   1412.47742     306.5484     254.0920
   1412.46216     306.0475     253.6769   1412.46216     306.0475     253.6769
   1412.44690     306.4149     253.9343   1412.44690     306.4149     253.9343
   1412.43164     305.8514     253.2727   1412.43164     305.8514     253.2727
   1412.41638     304.6720     253.4259   1412.41638     304.6720     253.4259
   1412.40112     305.0451     253.7642   1412.40112     305.0451     253.7642
   1412.38586     305.4532     253.4149   1412.38586     305.4532     253.4149
   1412.37061     304.4848     253.3682   1412.37061     304.4848     253.3682
   1412.35535     304.9513     254.0536   1412.35535     304.9513     254.0536
   1412.34009     304.2661     253.6249   1412.34009     304.2661     253.6249
   1412.32483     304.9342     254.2767   1412.32483     304.9342     254.2767
   1412.30957     304.8412     254.0627   1412.30957     304.8412     254.0627
   1412.29431     304.3144     254.2768   1412.29431     304.3144     254.2768
   1412.27905     304.4180     254.0396   1412.27905     304.4180     254.0396
   1412.26379     304.7705     253.9826   1412.26379     304.7705     253.9826
   1412.24854     305.3745     254.8983   1412.24854     305.3745     254.8983
   1412.23328     305.5334     254.8709   1412.23328     305.5334     254.8709
   1412.21802     305.7481     255.2380   1412.21802     305.7481     255.2380
   1412.20276     306.5118     256.0580   1412.20276     306.5118     256.0580