#     FILENAME=!Skynet_57528_lach-cc-210_20617_21049.cyb.fits
#     BASENAME=Skynet_57528_lach-cc-210_20617_21049
#     SRC_NAME=lach-cc-210
#     OBSERVER=ccmadison16_9505
#     DATE_OBS=2016-05-20T20:14:50.620
#        OBSID=20617
#      SCANNUM=21049
#          MJD=57528.8447
#          UTC=72980
#     SCANTYPE=track
#     DATAMODE=HIRES
#     TUNEFREQ=1420.0000
# Actual_FREQ1=1420.0000
# Actual_FREQ2=1420.0000
#    LO1Tuning=6870.000
#     RFFILTER=1355_1435
#        OBSBW=-15.6250
#        NCHAN=1024 
#        FOCUS=37.0489
#           RA=06:46:03.76
#          DEC=02:36:31.97
#      RA(hrs)=6.767700
#     DEC(deg)=2.608900
#    AZIM(deg)=181.282
#    ELEV(deg)=54.002
#     IFattens=10.00, 9.00
#      WARNING=None
#    TCAL_XL1=7.9635
#    TCAL_YR1=9.1340
#    TCAL_XL2=7.9635
#    TCAL_YR2=9.1340
#     TRX_XL1=11.7060
#     TRX_YR1=11.7060
#     TRX_XL2=11.7060
#     TRX_YR2=11.7060
#        TAVE=1.0000
#Freq1(MHz)          XL1          YR1  Freq2(MHz)          XL2          YR2 

   1427.81250     357.1197     264.0294   1427.81250     357.1197     264.0294
   1427.79724     357.6088     264.4823   1427.79724     357.6088     264.4823
   1427.78198     358.5911     265.1898   1427.78198     358.5911     265.1898
   1427.76672     359.4167     265.8006   1427.76672     359.4167     265.8006
   1427.75146     359.6014     266.2513   1427.75146     359.6014     266.2513
   1427.73621     360.6442     267.3880   1427.73621     360.6442     267.3880
   1427.72095     361.4886     268.3365   1427.72095     361.4886     268.3365
   1427.70569     363.2312     269.1252   1427.70569     363.2312     269.1252
   1427.69043     363.2220     270.4255   1427.69043     363.2220     270.4255
   1427.67517     364.1313     270.7589   1427.67517     364.1313     270.7589
   1427.65991     365.8125     272.3682   1427.65991     365.8125     272.3682
   1427.64465     366.8899     273.1944   1427.64465     366.8899     273.1944
   1427.62939     367.3010     274.6670   1427.62939     367.3010     274.6670
   1427.61414     368.7506     275.6135   1427.61414     368.7506     275.6135
   1427.59888     370.1696     276.6891   1427.59888     370.1696     276.6891
   1427.58362     371.5579     277.6167   1427.58362     371.5579     277.6167
   1427.56836     372.5462     278.9268   1427.56836     372.5462     278.9268
   1427.55310     374.2704     280.5126   1427.55310     374.2704     280.5126
   1427.53784     375.2764     281.9618   1427.53784     375.2764     281.9618
   1427.52258     376.7637     283.2194   1427.52258     376.7637     283.2194
   1427.50732     379.1856     284.5067   1427.50732     379.1856     284.5067
   1427.49207     380.0906     285.7296   1427.49207     380.0906     285.7296
   1427.47681     381.0038     287.5180   1427.47681     381.0038     287.5180
   1427.46155     383.6799     288.9548   1427.46155     383.6799     288.9548
   1427.44629     385.3035     289.7847   1427.44629     385.3035     289.7847
   1427.43103     387.0802     292.0961   1427.43103     387.0802     292.0961
   1427.41577     388.5558     293.3745   1427.41577     388.5558     293.3745
   1427.40051     391.0004     294.5377   1427.40051     391.0004     294.5377
   1427.38525     393.1157     296.7063   1427.38525     393.1157     296.7063
   1427.37000     394.3251     298.2671   1427.37000     394.3251     298.2671
   1427.35474     396.1161     300.3182   1427.35474     396.1161     300.3182
   1427.33948     398.3793     301.7908   1427.33948     398.3793     301.7908
   1427.32422     400.2850     303.6738   1427.32422     400.2850     303.6738
   1427.30896     402.2297     305.4476   1427.30896     402.2297     305.4476
   1427.29370     404.3657     306.9103   1427.29370     404.3657     306.9103
   1427.27844     406.8577     309.6683   1427.27844     406.8577     309.6683
   1427.26318     409.2206     310.9605   1427.26318     409.2206     310.9605
   1427.24792     411.3562     312.7342   1427.24792     411.3562     312.7342
   1427.23267     413.2448     314.7351   1427.23267     413.2448     314.7351
   1427.21741     415.8539     317.0312   1427.21741     415.8539     317.0312
   1427.20215     418.4809     318.9206   1427.20215     418.4809     318.9206
   1427.18689     419.7231     320.7948   1427.18689     419.7231     320.7948
   1427.17163     423.3222     323.5130   1427.17163     423.3222     323.5130
   1427.15637     424.5143     325.1302   1427.15637     424.5143     325.1302
   1427.14111     427.0341     327.0630   1427.14111     427.0341     327.0630
   1427.12585     429.8032     329.3246   1427.12585     429.8032     329.3246
   1427.11060     432.1951     330.9385   1427.11060     432.1951     330.9385
   1427.09534     435.1111     333.0784   1427.09534     435.1111     333.0784
   1427.08008     437.3631     335.4076   1427.08008     437.3631     335.4076
   1427.06482     440.6199     337.8239   1427.06482     440.6199     337.8239
   1427.04956     443.3188     340.5567   1427.04956     443.3188     340.5567
   1427.03430     444.4673     342.3692   1427.03430     444.4673     342.3692
   1427.01904     448.3365     344.5662   1427.01904     448.3365     344.5662
   1427.00378     450.1869     347.4412   1427.00378     450.1869     347.4412
   1426.98853     452.8820     349.6352   1426.98853     452.8820     349.6352
   1426.97327     456.2686     351.6802   1426.97327     456.2686     351.6802
   1426.95801     458.1125     353.8680   1426.95801     458.1125     353.8680
   1426.94275     461.4621     356.2509   1426.94275     461.4621     356.2509
   1426.92749     464.1860     358.6554   1426.92749     464.1860     358.6554
   1426.91223     466.2075     361.1205   1426.91223     466.2075     361.1205
   1426.89697     469.3569     363.4081   1426.89697     469.3569     363.4081
   1426.88171     472.1290     365.7461   1426.88171     472.1290     365.7461
   1426.86646     475.1431     368.2102   1426.86646     475.1431     368.2102
   1426.85120     478.1644     370.4770   1426.85120     478.1644     370.4770
   1426.83594     480.4568     372.9478   1426.83594     480.4568     372.9478
   1426.82068     482.5504     375.9250   1426.82068     482.5504     375.9250
   1426.80542     486.2863     378.5282   1426.80542     486.2863     378.5282
   1426.79016     488.8084     380.7515   1426.79016     488.8084     380.7515
   1426.77490     491.6487     383.6872   1426.77490     491.6487     383.6872
   1426.75964     494.8972     385.5464   1426.75964     494.8972     385.5464
   1426.74438     497.5497     387.8620   1426.74438     497.5497     387.8620
   1426.72913     499.8830     390.3929   1426.72913     499.8830     390.3929
   1426.71387     503.2502     393.5329   1426.71387     503.2502     393.5329
   1426.69861     506.0705     395.5211   1426.69861     506.0705     395.5211
   1426.68335     508.7397     397.5223   1426.68335     508.7397     397.5223
   1426.66809     511.6894     399.9527   1426.66809     511.6894     399.9527
   1426.65283     513.0660     402.3495   1426.65283     513.0660     402.3495
   1426.63757     517.8628     405.0032   1426.63757     517.8628     405.0032
   1426.62231     520.7488     408.3041   1426.62231     520.7488     408.3041
   1426.60706     523.6023     410.3928   1426.60706     523.6023     410.3928
   1426.59180     525.6899     412.7173   1426.59180     525.6899     412.7173
   1426.57654     528.8489     415.8350   1426.57654     528.8489     415.8350
   1426.56128     530.9045     417.3448   1426.56128     530.9045     417.3448
   1426.54602     534.8348     420.4858   1426.54602     534.8348     420.4858
   1426.53076     537.1527     423.4014   1426.53076     537.1527     423.4014
   1426.51550     539.8169     425.7448   1426.51550     539.8169     425.7448
   1426.50024     542.8560     428.1647   1426.50024     542.8560     428.1647
   1426.48499     545.4341     431.1549   1426.48499     545.4341     431.1549
   1426.46973     547.3495     433.0081   1426.46973     547.3495     433.0081
   1426.45447     550.1722     435.3673   1426.45447     550.1722     435.3673
   1426.43921     553.6153     437.8773   1426.43921     553.6153     437.8773
   1426.42395     556.9922     440.0274   1426.42395     556.9922     440.0274
   1426.40869     559.0728     442.7029   1426.40869     559.0728     442.7029
   1426.39343     562.2274     445.4529   1426.39343     562.2274     445.4529
   1426.37817     564.9655     448.2348   1426.37817     564.9655     448.2348
   1426.36292     566.9781     450.5732   1426.36292     566.9781     450.5732
   1426.34766     569.2850     452.8436   1426.34766     569.2850     452.8436
   1426.33240     572.5600     454.8443   1426.33240     572.5600     454.8443
   1426.31714     574.3655     457.4304   1426.31714     574.3655     457.4304
   1426.30188     577.9568     459.2024   1426.30188     577.9568     459.2024
   1426.28662     580.8317     462.4008   1426.28662     580.8317     462.4008
   1426.27136     582.9144     463.8016   1426.27136     582.9144     463.8016
   1426.25610     585.5735     467.4661   1426.25610     585.5735     467.4661
   1426.24084     588.2278     469.2956   1426.24084     588.2278     469.2956
   1426.22559     589.9327     471.5194   1426.22559     589.9327     471.5194
   1426.21033     593.4338     473.5748   1426.21033     593.4338     473.5748
   1426.19507     595.9722     476.1723   1426.19507     595.9722     476.1723
   1426.17981     598.2000     478.7554   1426.17981     598.2000     478.7554
   1426.16455     600.2578     480.7891   1426.16455     600.2578     480.7891
   1426.14929     602.3906     482.6444   1426.14929     602.3906     482.6444
   1426.13403     604.9136     485.5692   1426.13403     604.9136     485.5692
   1426.11877     607.3272     487.8379   1426.11877     607.3272     487.8379
   1426.10352     609.6436     489.6417   1426.10352     609.6436     489.6417
   1426.08826     612.7441     491.8899   1426.08826     612.7441     491.8899
   1426.07300     615.9250     494.6336   1426.07300     615.9250     494.6336
   1426.05774     616.7593     496.6841   1426.05774     616.7593     496.6841
   1426.04248     619.8277     498.3183   1426.04248     619.8277     498.3183
   1426.02722     620.9207     500.8979   1426.02722     620.9207     500.8979
   1426.01196     623.7392     503.6986   1426.01196     623.7392     503.6986
   1425.99670     625.0725     505.3504   1425.99670     625.0725     505.3504
   1425.98145     628.6721     507.8898   1425.98145     628.6721     507.8898
   1425.96619     630.1676     509.1861   1425.96619     630.1676     509.1861
   1425.95093     632.8971     511.2568   1425.95093     632.8971     511.2568
   1425.93567     634.5516     513.3708   1425.93567     634.5516     513.3708
   1425.92041     636.9323     514.9730   1425.92041     636.9323     514.9730
   1425.90515     638.1218     517.6356   1425.90515     638.1218     517.6356
   1425.88989     640.1075     519.1675   1425.88989     640.1075     519.1675
   1425.87463     642.2836     521.5819   1425.87463     642.2836     521.5819
   1425.85938     644.0333     523.8072   1425.85938     644.0333     523.8072
   1425.84412     645.6015     525.2136   1425.84412     645.6015     525.2136
   1425.82886     647.4821     527.5003   1425.82886     647.4821     527.5003
   1425.81360     650.1319     528.8613   1425.81360     650.1319     528.8613
   1425.79834     651.4391     531.8272   1425.79834     651.4391     531.8272
   1425.78308     652.7872     533.3498   1425.78308     652.7872     533.3498
   1425.76782     655.2554     534.7688   1425.76782     655.2554     534.7688
   1425.75256     656.9699     535.3340   1425.75256     656.9699     535.3340
   1425.73730     658.5405     539.0851   1425.73730     658.5405     539.0851
   1425.72205     661.6944     540.8084   1425.72205     661.6944     540.8084
   1425.70679     662.3104     542.0122   1425.70679     662.3104     542.0122
   1425.69153     663.0144     543.6371   1425.69153     663.0144     543.6371
   1425.67627     664.7144     546.0747   1425.67627     664.7144     546.0747
   1425.66101     667.1760     547.0060   1425.66101     667.1760     547.0060
   1425.64575     668.1454     548.9877   1425.64575     668.1454     548.9877
   1425.63049     669.0209     551.2642   1425.63049     669.0209     551.2642
   1425.61523     671.4032     552.1806   1425.61523     671.4032     552.1806
   1425.59998     673.8033     554.1925   1425.59998     673.8033     554.1925
   1425.58472     674.0072     556.6237   1425.58472     674.0072     556.6237
   1425.56946     674.2385     556.8195   1425.56946     674.2385     556.8195
   1425.55420     676.6797     559.7910   1425.55420     676.6797     559.7910
   1425.53894     678.3639     560.8046   1425.53894     678.3639     560.8046
   1425.52368     680.2159     561.7234   1425.52368     680.2159     561.7234
   1425.50842     679.4501     564.6505   1425.50842     679.4501     564.6505
   1425.49316     681.5129     565.8596   1425.49316     681.5129     565.8596
   1425.47791     682.9288     566.4698   1425.47791     682.9288     566.4698
   1425.46265     683.5157     568.6046   1425.46265     683.5157     568.6046
   1425.44739     685.6310     569.1648   1425.44739     685.6310     569.1648
   1425.43213     687.4711     571.5738   1425.43213     687.4711     571.5738
   1425.41687     687.7834     573.4213   1425.41687     687.7834     573.4213
   1425.40161     688.7000     574.6979   1425.40161     688.7000     574.6979
   1425.38635     690.3939     575.1818   1425.38635     690.3939     575.1818
   1425.37109     690.4186     575.8972   1425.37109     690.4186     575.8972
   1425.35583     690.9137     578.3647   1425.35583     690.9137     578.3647
   1425.34058     692.1624     578.8417   1425.34058     692.1624     578.8417
   1425.32532     694.6202     581.1476   1425.32532     694.6202     581.1476
   1425.31006     694.7050     581.9528   1425.31006     694.7050     581.9528
   1425.29480     694.2457     584.2294   1425.29480     694.2457     584.2294
   1425.27954     696.3290     584.4516   1425.27954     696.3290     584.4516
   1425.26428     696.8171     586.3619   1425.26428     696.8171     586.3619
   1425.24902     698.7274     586.5839   1425.24902     698.7274     586.5839
   1425.23376     698.8541     588.2723   1425.23376     698.8541     588.2723
   1425.21851     699.0613     589.0105   1425.21851     699.0613     589.0105
   1425.20325     701.0086     590.8381   1425.20325     701.0086     590.8381
   1425.18799     700.9188     591.6086   1425.18799     700.9188     591.6086
   1425.17273     701.1154     592.8527   1425.17273     701.1154     592.8527
   1425.15747     702.4144     594.6014   1425.15747     702.4144     594.6014
   1425.14221     702.5410     596.5407   1425.14221     702.5410     596.5407
   1425.12695     704.3173     596.1597   1425.12695     704.3173     596.1597
   1425.11169     703.0447     596.7422   1425.11169     703.0447     596.7422
   1425.09644     704.2107     598.6306   1425.09644     704.2107     598.6306
   1425.08118     704.0309     599.7010   1425.08118     704.0309     599.7010
   1425.06592     705.5063     600.9393   1425.06592     705.5063     600.9393
   1425.05066     706.2729     600.6096   1425.05066     706.2729     600.6096
   1425.03540     706.2273     603.0848   1425.03540     706.2273     603.0848
   1425.02014     706.5898     603.1172   1425.02014     706.5898     603.1172
   1425.00488     708.8038     604.9394   1425.00488     708.8038     604.9394
   1424.98962     708.7981     605.6585   1424.98962     708.7981     605.6585
   1424.97437     708.7348     606.2108   1424.97437     708.7348     606.2108
   1424.95911     709.2108     606.2894   1424.95911     709.2108     606.2894
   1424.94385     709.1772     607.0195   1424.94385     709.1772     607.0195
   1424.92859     709.4349     608.5495   1424.92859     709.4349     608.5495
   1424.91333     709.5181     608.4316   1424.91333     709.5181     608.4316
   1424.89807     711.3730     610.6575   1424.89807     711.3730     610.6575
   1424.88281     710.2913     609.4308   1424.88281     710.2913     609.4308
   1424.86755     710.9575     610.4894   1424.86755     710.9575     610.4894
   1424.85229     709.8336     611.9698   1424.85229     709.8336     611.9698
   1424.83704     711.0648     611.8626   1424.83704     711.0648     611.8626
   1424.82178     711.4080     614.4620   1424.82178     711.4080     614.4620
   1424.80652     711.6252     613.5991   1424.80652     711.6252     613.5991
   1424.79126     711.5978     614.9290   1424.79126     711.5978     614.9290
   1424.77600     711.8929     615.7492   1424.77600     711.8929     615.7492
   1424.76074     712.6686     616.8894   1424.76074     712.6686     616.8894
   1424.74548     711.5685     616.9491   1424.74548     711.5685     616.9491
   1424.73022     712.6251     617.6633   1424.73022     712.6251     617.6633
   1424.71497     712.0430     617.3076   1424.71497     712.0430     617.3076
   1424.69971     713.2560     617.8041   1424.69971     713.2560     617.8041
   1424.68445     712.8107     619.1352   1424.68445     712.8107     619.1352
   1424.66919     712.2516     620.1047   1424.66919     712.2516     620.1047
   1424.65393     714.3492     620.8123   1424.65393     714.3492     620.8123
   1424.63867     712.5924     620.4518   1424.63867     712.5924     620.4518
   1424.62341     713.3235     621.4647   1424.62341     713.3235     621.4647
   1424.60815     711.7332     622.2434   1424.60815     711.7332     622.2434
   1424.59290     712.8353     622.3447   1424.59290     712.8353     622.3447
   1424.57764     712.8759     622.8442   1424.57764     712.8759     622.8442
   1424.56238     712.5250     623.1070   1424.56238     712.5250     623.1070
   1424.54712     713.1522     623.6410   1424.54712     713.1522     623.6410
   1424.53186     711.8809     624.6719   1424.53186     711.8809     624.6719
   1424.51660     712.8576     624.5491   1424.51660     712.8576     624.5491
   1424.50134     713.0750     624.9263   1424.50134     713.0750     624.9263
   1424.48608     712.3891     625.9545   1424.48608     712.3891     625.9545
   1424.47083     712.7440     626.3622   1424.47083     712.7440     626.3622
   1424.45557     710.3176     625.7988   1424.45557     710.3176     625.7988
   1424.44031     711.0098     625.9824   1424.44031     711.0098     625.9824
   1424.42505     711.8849     626.4797   1424.42505     711.8849     626.4797
   1424.40979     711.2304     626.7110   1424.40979     711.2304     626.7110
   1424.39453     711.6452     627.7397   1424.39453     711.6452     627.7397
   1424.37927     711.9172     627.3407   1424.37927     711.9172     627.3407
   1424.36401     711.3606     627.5830   1424.36401     711.3606     627.5830
   1424.34875     711.7636     627.7971   1424.34875     711.7636     627.7971
   1424.33350     710.2245     627.4938   1424.33350     710.2245     627.4938
   1424.31824     711.1136     628.6137   1424.31824     711.1136     628.6137
   1424.30298     709.9752     628.5520   1424.30298     709.9752     628.5520
   1424.28772     710.1769     629.4310   1424.28772     710.1769     629.4310
   1424.27246     708.7790     628.7073   1424.27246     708.7790     628.7073
   1424.25720     709.4572     629.7831   1424.25720     709.4572     629.7831
   1424.24194     710.4183     630.0444   1424.24194     710.4183     630.0444
   1424.22668     709.7096     629.3766   1424.22668     709.7096     629.3766
   1424.21143     708.4312     630.3895   1424.21143     708.4312     630.3895
   1424.19617     709.0620     630.1695   1424.19617     709.0620     630.1695
   1424.18091     708.0817     629.2808   1424.18091     708.0817     629.2808
   1424.16565     709.6595     628.5180   1424.16565     709.6595     628.5180
   1424.15039     709.1360     629.6575   1424.15039     709.1360     629.6575
   1424.13513     707.6489     629.9116   1424.13513     707.6489     629.9116
   1424.11987     708.9379     630.5656   1424.11987     708.9379     630.5656
   1424.10461     707.3292     630.1057   1424.10461     707.3292     630.1057
   1424.08936     707.8207     630.7726   1424.08936     707.8207     630.7726
   1424.07410     707.8405     630.5691   1424.07410     707.8405     630.5691
   1424.05884     707.3318     629.8833   1424.05884     707.3318     629.8833
   1424.04358     707.4658     629.8806   1424.04358     707.4658     629.8806
   1424.02832     706.2112     630.0535   1424.02832     706.2112     630.0535
   1424.01306     706.7729     630.2877   1424.01306     706.7729     630.2877
   1423.99780     704.8447     629.6163   1423.99780     704.8447     629.6163
   1423.98254     705.3019     629.3179   1423.98254     705.3019     629.3179
   1423.96729     704.5714     630.0889   1423.96729     704.5714     630.0889
   1423.95203     704.5162     628.9838   1423.95203     704.5162     628.9838
   1423.93677     705.2016     628.8203   1423.93677     705.2016     628.8203
   1423.92151     704.7874     629.0884   1423.92151     704.7874     629.0884
   1423.90625     704.0384     628.5804   1423.90625     704.0384     628.5804
   1423.89099     703.4837     629.4831   1423.89099     703.4837     629.4831
   1423.87573     703.1613     629.5167   1423.87573     703.1613     629.5167
   1423.86047     702.9875     628.5759   1423.86047     702.9875     628.5759
   1423.84521     702.6882     628.0759   1423.84521     702.6882     628.0759
   1423.82996     702.4605     629.0032   1423.82996     702.4605     629.0032
   1423.81470     701.4442     628.7524   1423.81470     701.4442     628.7524
   1423.79944     701.6349     628.2454   1423.79944     701.6349     628.2454
   1423.78418     701.3948     627.0513   1423.78418     701.3948     627.0513
   1423.76892     701.3442     627.8579   1423.76892     701.3442     627.8579
   1423.75366     700.5407     626.5709   1423.75366     700.5407     626.5709
   1423.73840     700.6030     626.8423   1423.73840     700.6030     626.8423
   1423.72314     699.4796     626.2180   1423.72314     699.4796     626.2180
   1423.70789     701.0101     626.8688   1423.70789     701.0101     626.8688
   1423.69263     700.2112     626.6434   1423.69263     700.2112     626.6434
   1423.67737     697.8281     625.5452   1423.67737     697.8281     625.5452
   1423.66211     698.6835     624.6219   1423.66211     698.6835     624.6219
   1423.64685     698.7300     625.4468   1423.64685     698.7300     625.4468
   1423.63159     698.5551     624.0668   1423.63159     698.5551     624.0668
   1423.61633     699.1763     623.9576   1423.61633     699.1763     623.9576
   1423.60107     697.3286     624.1427   1423.60107     697.3286     624.1427
   1423.58582     697.2787     622.7490   1423.58582     697.2787     622.7490
   1423.57056     696.2797     624.1451   1423.57056     696.2797     624.1451
   1423.55530     697.2574     622.7832   1423.55530     697.2574     622.7832
   1423.54004     697.2005     622.4567   1423.54004     697.2005     622.4567
   1423.52478     695.3689     621.8608   1423.52478     695.3689     621.8608
   1423.50952     695.5414     621.5436   1423.50952     695.5414     621.5436
   1423.49426     695.7094     620.7701   1423.49426     695.7094     620.7701
   1423.47900     694.6754     620.8985   1423.47900     694.6754     620.8985
   1423.46375     696.0939     620.6138   1423.46375     696.0939     620.6138
   1423.44849     694.5958     618.3567   1423.44849     694.5958     618.3567
   1423.43323     693.9472     619.0284   1423.43323     693.9472     619.0284
   1423.41797     694.1463     617.3238   1423.41797     694.1463     617.3238
   1423.40271     694.4594     618.3441   1423.40271     694.4594     618.3441
   1423.38745     693.5831     617.7501   1423.38745     693.5831     617.7501
   1423.37219     693.0433     617.4100   1423.37219     693.0433     617.4100
   1423.35693     692.7831     616.8961   1423.35693     692.7831     616.8961
   1423.34167     692.8078     615.5793   1423.34167     692.8078     615.5793
   1423.32642     692.5714     615.2122   1423.32642     692.5714     615.2122
   1423.31116     691.8349     613.8588   1423.31116     691.8349     613.8588
   1423.29590     691.5635     614.0510   1423.29590     691.5635     614.0510
   1423.28064     691.1722     613.4036   1423.28064     691.1722     613.4036
   1423.26538     691.1077     612.5153   1423.26538     691.1077     612.5153
   1423.25012     691.1861     611.4039   1423.25012     691.1861     611.4039
   1423.23486     690.7720     612.1769   1423.23486     690.7720     612.1769
   1423.21960     690.6628     610.7610   1423.21960     690.6628     610.7610
   1423.20435     690.3987     611.0289   1423.20435     690.3987     611.0289
   1423.18909     689.1586     610.4595   1423.18909     689.1586     610.4595
   1423.17383     689.2258     609.2247   1423.17383     689.2258     609.2247
   1423.15857     689.3056     608.4402   1423.15857     689.3056     608.4402
   1423.14331     688.9473     607.1417   1423.14331     688.9473     607.1417
   1423.12805     688.3135     606.9968   1423.12805     688.3135     606.9968
   1423.11279     688.6144     606.6699   1423.11279     688.6144     606.6699
   1423.09753     688.5867     606.0805   1423.09753     688.5867     606.0805
   1423.08228     688.1004     604.1794   1423.08228     688.1004     604.1794
   1423.06702     687.7142     603.8923   1423.06702     687.7142     603.8923
   1423.05176     688.8154     602.6757   1423.05176     688.8154     602.6757
   1423.03650     687.2770     602.6557   1423.03650     687.2770     602.6557
   1423.02124     686.1692     601.6295   1423.02124     686.1692     601.6295
   1423.00598     686.7736     600.9573   1423.00598     686.7736     600.9573
   1422.99072     687.0342     599.0801   1422.99072     687.0342     599.0801
   1422.97546     686.4395     599.7527   1422.97546     686.4395     599.7527
   1422.96021     685.9077     598.4761   1422.96021     685.9077     598.4761
   1422.94495     685.2495     598.3006   1422.94495     685.2495     598.3006
   1422.92969     684.7158     595.9174   1422.92969     684.7158     595.9174
   1422.91443     684.3198     596.7358   1422.91443     684.3198     596.7358
   1422.89917     685.2910     595.2625   1422.89917     685.2910     595.2625
   1422.88391     683.8288     594.4086   1422.88391     683.8288     594.4086
   1422.86865     684.3678     593.0271   1422.86865     684.3678     593.0271
   1422.85339     683.5715     592.3399   1422.85339     683.5715     592.3399
   1422.83813     682.7427     591.3832   1422.83813     682.7427     591.3832
   1422.82288     682.4449     591.1082   1422.82288     682.4449     591.1082
   1422.80762     684.0194     589.5024   1422.80762     684.0194     589.5024
   1422.79236     683.7458     589.6981   1422.79236     683.7458     589.6981
   1422.77710     682.8956     588.8021   1422.77710     682.8956     588.8021
   1422.76184     681.0893     587.0562   1422.76184     681.0893     587.0562
   1422.74658     682.6008     587.0108   1422.74658     682.6008     587.0108
   1422.73132     681.6067     585.5363   1422.73132     681.6067     585.5363
   1422.71606     681.1377     584.0591   1422.71606     681.1377     584.0591
   1422.70081     681.9719     583.3893   1422.70081     681.9719     583.3893
   1422.68555     680.9182     583.5756   1422.68555     680.9182     583.5756
   1422.67029     681.8240     581.3882   1422.67029     681.8240     581.3882
   1422.65503     681.8639     581.1333   1422.65503     681.8639     581.1333
   1422.63977     681.0015     579.9495   1422.63977     681.0015     579.9495
   1422.62451     680.7424     578.2908   1422.62451     680.7424     578.2908
   1422.60925     680.5069     577.4610   1422.60925     680.5069     577.4610
   1422.59399     680.1559     576.4555   1422.59399     680.1559     576.4555
   1422.57874     680.1840     576.5687   1422.57874     680.1840     576.5687
   1422.56348     679.6832     575.1849   1422.56348     679.6832     575.1849
   1422.54822     678.7528     574.3784   1422.54822     678.7528     574.3784
   1422.53296     679.0380     572.8630   1422.53296     679.0380     572.8630
   1422.51770     678.6165     572.9707   1422.51770     678.6165     572.9707
   1422.50244     679.3532     571.4802   1422.50244     679.3532     571.4802
   1422.48718     678.8535     569.9026   1422.48718     678.8535     569.9026
   1422.47192     678.4881     569.2004   1422.47192     678.4881     569.2004
   1422.45667     677.7001     567.9946   1422.45667     677.7001     567.9946
   1422.44141     677.1571     567.9851   1422.44141     677.1571     567.9851
   1422.42615     677.3909     566.6949   1422.42615     677.3909     566.6949
   1422.41089     678.1251     564.9965   1422.41089     678.1251     564.9965
   1422.39563     677.5727     565.2227   1422.39563     677.5727     565.2227
   1422.38037     677.4317     563.4586   1422.38037     677.4317     563.4586
   1422.36511     677.0187     561.9955   1422.36511     677.0187     561.9955
   1422.34985     677.9252     562.0737   1422.34985     677.9252     562.0737
   1422.33459     676.9825     560.9352   1422.33459     676.9825     560.9352
   1422.31934     677.0001     559.9366   1422.31934     677.0001     559.9366
   1422.30408     675.0172     557.6066   1422.30408     675.0172     557.6066
   1422.28882     675.6312     556.3747   1422.28882     675.6312     556.3747
   1422.27356     675.9948     556.8237   1422.27356     675.9948     556.8237
   1422.25830     674.6527     555.6236   1422.25830     674.6527     555.6236
   1422.24304     676.8463     554.5927   1422.24304     676.8463     554.5927
   1422.22778     675.8931     553.0063   1422.22778     675.8931     553.0063
   1422.21252     675.1046     552.4152   1422.21252     675.1046     552.4152
   1422.19727     674.3745     550.5814   1422.19727     674.3745     550.5814
   1422.18201     674.9930     549.7109   1422.18201     674.9930     549.7109
   1422.16675     675.6916     548.2566   1422.16675     675.6916     548.2566
   1422.15149     673.9637     547.7314   1422.15149     673.9637     547.7314
   1422.13623     673.3379     546.6370   1422.13623     673.3379     546.6370
   1422.12097     674.1791     544.8997   1422.12097     674.1791     544.8997
   1422.10571     674.3518     544.6430   1422.10571     674.3518     544.6430
   1422.09045     672.9885     543.8483   1422.09045     672.9885     543.8483
   1422.07520     673.5110     541.5903   1422.07520     673.5110     541.5903
   1422.05994     673.2433     541.6191   1422.05994     673.2433     541.6191
   1422.04468     672.6807     539.3652   1422.04468     672.6807     539.3652
   1422.02942     672.6541     539.3160   1422.02942     672.6541     539.3160
   1422.01416     673.1580     538.1543   1422.01416     673.1580     538.1543
   1421.99890     672.2781     536.9062   1421.99890     672.2781     536.9062
   1421.98364     672.6176     535.6352   1421.98364     672.6176     535.6352
   1421.96838     672.3227     534.3564   1421.96838     672.3227     534.3564
   1421.95312     671.9868     533.7827   1421.95312     671.9868     533.7827
   1421.93787     671.3832     532.8536   1421.93787     671.3832     532.8536
   1421.92261     670.5034     531.7501   1421.92261     670.5034     531.7501
   1421.90735     670.8904     530.4878   1421.90735     670.8904     530.4878
   1421.89209     670.2742     529.6235   1421.89209     670.2742     529.6235
   1421.87683     670.1744     527.9800   1421.87683     670.1744     527.9800
   1421.86157     671.0147     526.5143   1421.86157     671.0147     526.5143
   1421.84631     671.0370     525.8023   1421.84631     671.0370     525.8023
   1421.83105     670.2156     525.2817   1421.83105     670.2156     525.2817
   1421.81580     669.3483     523.4247   1421.81580     669.3483     523.4247
   1421.80054     670.0050     523.1122   1421.80054     670.0050     523.1122
   1421.78528     669.7596     521.5709   1421.78528     669.7596     521.5709
   1421.77002     669.3566     521.1605   1421.77002     669.3566     521.1605
   1421.75476     668.0648     519.3729   1421.75476     668.0648     519.3729
   1421.73950     668.0912     518.2503   1421.73950     668.0912     518.2503
   1421.72424     669.1308     516.5126   1421.72424     669.1308     516.5126
   1421.70898     668.2744     516.3474   1421.70898     668.2744     516.3474
   1421.69373     667.4164     515.7693   1421.69373     667.4164     515.7693
   1421.67847     667.8014     513.3905   1421.67847     667.8014     513.3905
   1421.66321     667.5880     512.4410   1421.66321     667.5880     512.4410
   1421.64795     667.5289     511.8733   1421.64795     667.5289     511.8733
   1421.63269     667.3573     510.2243   1421.63269     667.3573     510.2243
   1421.61743     666.2569     509.1178   1421.61743     666.2569     509.1178
   1421.60217     666.3441     508.5052   1421.60217     666.3441     508.5052
   1421.58691     665.5071     506.9945   1421.58691     665.5071     506.9945
   1421.57166     665.8542     505.9767   1421.57166     665.8542     505.9767
   1421.55640     666.3970     504.7284   1421.55640     666.3970     504.7284
   1421.54114     665.3496     503.0999   1421.54114     665.3496     503.0999
   1421.52588     665.6855     502.8581   1421.52588     665.6855     502.8581
   1421.51062     665.8733     501.8003   1421.51062     665.8733     501.8003
   1421.49536     665.5337     500.1953   1421.49536     665.5337     500.1953
   1421.48010     664.9711     499.4865   1421.48010     664.9711     499.4865
   1421.46484     664.7576     497.8035   1421.46484     664.7576     497.8035
   1421.44958     664.3443     497.0494   1421.44958     664.3443     497.0494
   1421.43433     664.6285     495.2812   1421.43433     664.6285     495.2812
   1421.41907     663.0363     494.3265   1421.41907     663.0363     494.3265
   1421.40381     664.4125     493.3080   1421.40381     664.4125     493.3080
   1421.38855     663.8300     493.0214   1421.38855     663.8300     493.0214
   1421.37329     662.4236     491.7703   1421.37329     662.4236     491.7703
   1421.35803     662.1127     489.9651   1421.35803     662.1127     489.9651
   1421.34277     662.4186     488.9737   1421.34277     662.4186     488.9737
   1421.32751     662.8738     488.6588   1421.32751     662.8738     488.6588
   1421.31226     662.2675     486.9841   1421.31226     662.2675     486.9841
   1421.29700     661.5756     485.5453   1421.29700     661.5756     485.5453
   1421.28174     661.4738     485.1266   1421.28174     661.4738     485.1266
   1421.26648     660.6452     483.9944   1421.26648     660.6452     483.9944
   1421.25122     660.9244     484.1807   1421.25122     660.9244     484.1807
   1421.23596     660.6785     481.3250   1421.23596     660.6785     481.3250
   1421.22070     660.4850     480.1995   1421.22070     660.4850     480.1995
   1421.20544     659.4492     479.3491   1421.20544     659.4492     479.3491
   1421.19019     659.3795     478.5468   1421.19019     659.3795     478.5468
   1421.17493     659.6492     477.7986   1421.17493     659.6492     477.7986
   1421.15967     659.0641     475.9774   1421.15967     659.0641     475.9774
   1421.14441     658.5493     475.3920   1421.14441     658.5493     475.3920
   1421.12915     659.3000     475.1656   1421.12915     659.3000     475.1656
   1421.11389     658.6679     473.1407   1421.11389     658.6679     473.1407
   1421.09863     658.2878     473.2184   1421.09863     658.2878     473.2184
   1421.08337     657.7019     471.1810   1421.08337     657.7019     471.1810
   1421.06812     657.3362     470.2576   1421.06812     657.3362     470.2576
   1421.05286     657.4749     469.3295   1421.05286     657.4749     469.3295
   1421.03760     657.6812     468.9473   1421.03760     657.6812     468.9473
   1421.02234     656.8047     467.9453   1421.02234     656.8047     467.9453
   1421.00708     656.8497     466.6971   1421.00708     656.8497     466.6971
   1420.99182     656.1415     465.6387   1420.99182     656.1415     465.6387
   1420.97656     656.6889     465.3831   1420.97656     656.6889     465.3831
   1420.96130     656.4527     463.8790   1420.96130     656.4527     463.8790
   1420.94604     656.7282     463.1247   1420.94604     656.7282     463.1247
   1420.93079     655.6748     462.1488   1420.93079     655.6748     462.1488
   1420.91553     656.0312     461.0655   1420.91553     656.0312     461.0655
   1420.90027     655.5098     460.6479   1420.90027     655.5098     460.6479
   1420.88501     654.9960     459.9947   1420.88501     654.9960     459.9947
   1420.86975     656.0622     458.3865   1420.86975     656.0622     458.3865
   1420.85449     654.6548     456.7808   1420.85449     654.6548     456.7808
   1420.83923     655.0373     456.7712   1420.83923     655.0373     456.7712
   1420.82397     654.5837     455.6467   1420.82397     654.5837     455.6467
   1420.80872     654.9163     454.6776   1420.80872     654.9163     454.6776
   1420.79346     654.6039     453.7200   1420.79346     654.6039     453.7200
   1420.77820     655.3784     453.1374   1420.77820     655.3784     453.1374
   1420.76294     655.0746     452.7568   1420.76294     655.0746     452.7568
   1420.74768     654.3965     452.6711   1420.74768     654.3965     452.6711
   1420.73242     654.3947     451.2302   1420.73242     654.3947     451.2302
   1420.71716     654.6298     449.6438   1420.71716     654.6298     449.6438
   1420.70190     654.5076     449.4216   1420.70190     654.5076     449.4216
   1420.68665     653.9494     448.7037   1420.68665     653.9494     448.7037
   1420.67139     653.4898     448.4113   1420.67139     653.4898     448.4113
   1420.65613     654.5384     446.7220   1420.65613     654.5384     446.7220
   1420.64087     654.0352     446.3395   1420.64087     654.0352     446.3395
   1420.62561     653.4066     445.6569   1420.62561     653.4066     445.6569
   1420.61035     654.2178     445.6968   1420.61035     654.2178     445.6968
   1420.59509     653.9119     443.9715   1420.59509     653.9119     443.9715
   1420.57983     654.6021     443.4071   1420.57983     654.6021     443.4071
   1420.56458     656.5637     443.8535   1420.56458     656.5637     443.8535
   1420.54932     656.1071     443.8785   1420.54932     656.1071     443.8785
   1420.53406     656.9693     443.5212   1420.53406     656.9693     443.5212
   1420.51880     658.1737     443.8575   1420.51880     658.1737     443.8575
   1420.50354     658.9357     442.4426   1420.50354     658.9357     442.4426
   1420.48828     655.8439     441.8008   1420.48828     655.8439     441.8008
   1420.47302     655.5934     439.7040   1420.47302     655.5934     439.7040
   1420.45776     655.8210     439.1127   1420.45776     655.8210     439.1127
   1420.44250     655.3316     438.1484   1420.44250     655.3316     438.1484
   1420.42725     655.7328     438.4124   1420.42725     655.7328     438.4124
   1420.41199     655.2636     438.2791   1420.41199     655.2636     438.2791
   1420.39673     655.6616     437.5663   1420.39673     655.6616     437.5663
   1420.38147     656.8516     437.5570   1420.38147     656.8516     437.5570
   1420.36621     657.9451     437.1988   1420.36621     657.9451     437.1988
   1420.35095     660.9357     438.5968   1420.35095     660.9357     438.5968
   1420.33569     665.2175     440.5844   1420.33569     665.2175     440.5844
   1420.32043     673.1504     444.4577   1420.32043     673.1504     444.4577
   1420.30518     683.5178     450.4332   1420.30518     683.5178     450.4332
   1420.28992     697.5154     458.3023   1420.28992     697.5154     458.3023
   1420.27466     721.9875     473.4107   1420.27466     721.9875     473.4107
   1420.25940     776.9193     506.0544   1420.25940     776.9193     506.0544
   1420.24414     879.0819     571.1691   1420.24414     879.0819     571.1691
   1420.22888    1076.8654     697.6357   1420.22888    1076.8654     697.6357
   1420.21362    1361.4707     878.0129   1420.21362    1361.4707     878.0129
   1420.19836    1581.0946    1016.9944   1420.19836    1581.0946    1016.9944
   1420.18311    1717.5562    1099.5823   1420.18311    1717.5562    1099.5823
   1420.16785    1647.2863    1054.4264   1420.16785    1647.2863    1054.4264
   1420.15259    1480.9590     948.6002   1420.15259    1480.9590     948.6002
   1420.13733    1563.8944    1000.8798   1420.13733    1563.8944    1000.8798
   1420.12207    1732.7715    1101.3304   1420.12207    1732.7715    1101.3304
   1420.10681    1673.9607    1063.4171   1420.10681    1673.9607    1063.4171
   1420.09155    1529.2057     971.1495   1420.09155    1529.2057     971.1495
   1420.07629    1708.0181    1080.7349   1420.07629    1708.0181    1080.7349
   1420.06104    1960.2601    1238.2195   1420.06104    1960.2601    1238.2195
   1420.04578    2057.3330    1298.0128   1420.04578    2057.3330    1298.0128
   1420.03052    2042.9435    1287.5358   1420.03052    2042.9435    1287.5358
   1420.01526    1890.3607    1192.3826   1420.01526    1890.3607    1192.3826
   1420.00000    1459.1600     924.4635   1420.00000    1459.1600     924.4635
   1419.98474    1027.9594     656.5448   1419.98474    1027.9594     656.5448
   1419.96948     858.4752     549.2958   1419.96948     858.4752     549.2958
   1419.95422     778.5446     497.9856   1419.95422     778.5446     497.9856
   1419.93896     732.5571     467.9518   1419.93896     732.5571     467.9518
   1419.92371     703.9789     449.8567   1419.92371     703.9789     449.8567
   1419.90845     684.3571     437.1477   1419.90845     684.3571     437.1477
   1419.89319     671.1147     428.6964   1419.89319     671.1147     428.6964
   1419.87793     663.3291     423.1600   1419.87793     663.3291     423.1600
   1419.86267     657.2517     419.3488   1419.86267     657.2517     419.3488
   1419.84741     653.9128     416.9351   1419.84741     653.9128     416.9351
   1419.83215     651.6992     415.4918   1419.83215     651.6992     415.4918
   1419.81689     651.0176     414.0812   1419.81689     651.0176     414.0812
   1419.80164     649.7377     412.9834   1419.80164     649.7377     412.9834
   1419.78638     647.9742     412.1089   1419.78638     647.9742     412.1089
   1419.77112     649.0669     411.3614   1419.77112     649.0669     411.3614
   1419.75586     647.9113     410.5824   1419.75586     647.9113     410.5824
   1419.74060     647.4661     410.3270   1419.74060     647.4661     410.3270
   1419.72534     647.2810     409.7260   1419.72534     647.2810     409.7260
   1419.71008     646.6880     409.5490   1419.71008     646.6880     409.5490
   1419.69482     648.1297     408.9213   1419.69482     648.1297     408.9213
   1419.67957     645.8822     408.7350   1419.67957     645.8822     408.7350
   1419.66431     646.6961     408.6705   1419.66431     646.6961     408.6705
   1419.64905     647.3674     407.6528   1419.64905     647.3674     407.6528
   1419.63379     646.7846     407.5671   1419.63379     646.7846     407.5671
   1419.61853     646.9991     407.3834   1419.61853     646.9991     407.3834
   1419.60327     648.3157     406.7143   1419.60327     648.3157     406.7143
   1419.58801     647.4690     406.9228   1419.58801     647.4690     406.9228
   1419.57275     648.1107     407.0181   1419.57275     648.1107     407.0181
   1419.55750     647.5571     406.8299   1419.55750     647.5571     406.8299
   1419.54224     647.9295     406.1951   1419.54224     647.9295     406.1951
   1419.52698     647.0510     406.3167   1419.52698     647.0510     406.3167
   1419.51172     648.5286     405.8629   1419.51172     648.5286     405.8629
   1419.49646     647.3457     406.2322   1419.49646     647.3457     406.2322
   1419.48120     649.1225     406.4354   1419.48120     649.1225     406.4354
   1419.46594     649.6407     405.8208   1419.46594     649.6407     405.8208
   1419.45068     649.2769     405.9386   1419.45068     649.2769     405.9386
   1419.43542     649.7206     405.8282   1419.43542     649.7206     405.8282
   1419.42017     650.2222     406.2424   1419.42017     650.2222     406.2424
   1419.40491     650.1448     405.2467   1419.40491     650.1448     405.2467
   1419.38965     649.3715     405.5548   1419.38965     649.3715     405.5548
   1419.37439     651.5695     405.6195   1419.37439     651.5695     405.6195
   1419.35913     650.2393     405.7305   1419.35913     650.2393     405.7305
   1419.34387     651.2516     405.6590   1419.34387     651.2516     405.6590
   1419.32861     650.5845     405.5646   1419.32861     650.5845     405.5646
   1419.31335     650.2819     405.4065   1419.31335     650.2819     405.4065
   1419.29810     653.4443     405.6234   1419.29810     653.4443     405.6234
   1419.28284     653.3144     405.9250   1419.28284     653.3144     405.9250
   1419.26758     653.3395     407.2325   1419.26758     653.3395     407.2325
   1419.25232     654.2391     406.0946   1419.25232     654.2391     406.0946
   1419.23706     653.5464     405.3388   1419.23706     653.5464     405.3388
   1419.22180     653.9437     405.9019   1419.22180     653.9437     405.9019
   1419.20654     654.9127     406.3602   1419.20654     654.9127     406.3602
   1419.19128     655.0199     406.6969   1419.19128     655.0199     406.6969
   1419.17603     656.0891     406.5142   1419.17603     656.0891     406.5142
   1419.16077     655.9678     406.4127   1419.16077     655.9678     406.4127
   1419.14551     656.6944     407.2686   1419.14551     656.6944     407.2686
   1419.13025     656.6519     406.5683   1419.13025     656.6519     406.5683
   1419.11499     657.5844     407.1768   1419.11499     657.5844     407.1768
   1419.09973     657.4233     406.9207   1419.09973     657.4233     406.9207
   1419.08447     658.0812     406.9956   1419.08447     658.0812     406.9956
   1419.06921     658.8323     407.2263   1419.06921     658.8323     407.2263
   1419.05396     659.0933     407.9026   1419.05396     659.0933     407.9026
   1419.03870     660.6708     407.6866   1419.03870     660.6708     407.6866
   1419.02344     660.5839     408.4629   1419.02344     660.5839     408.4629
   1419.00818     661.7836     408.1823   1419.00818     661.7836     408.1823
   1418.99292     661.2553     409.1188   1418.99292     661.2553     409.1188
   1418.97766     661.8136     409.3772   1418.97766     661.8136     409.3772
   1418.96240     663.5591     409.8450   1418.96240     663.5591     409.8450
   1418.94714     663.7036     409.8489   1418.94714     663.7036     409.8489
   1418.93188     663.6871     409.9335   1418.93188     663.6871     409.9335
   1418.91663     664.4864     410.2923   1418.91663     664.4864     410.2923
   1418.90137     664.6313     410.6059   1418.90137     664.6313     410.6059
   1418.88611     665.2297     411.1641   1418.88611     665.2297     411.1641
   1418.87085     665.6572     410.9572   1418.87085     665.6572     410.9572
   1418.85559     666.0793     411.7181   1418.85559     666.0793     411.7181
   1418.84033     666.2823     411.6217   1418.84033     666.2823     411.6217
   1418.82507     667.5580     412.2424   1418.82507     667.5580     412.2424
   1418.80981     668.9847     412.7463   1418.80981     668.9847     412.7463
   1418.79456     668.6260     413.5037   1418.79456     668.6260     413.5037
   1418.77930     670.0327     413.2514   1418.77930     670.0327     413.2514
   1418.76404     670.6812     414.1935   1418.76404     670.6812     414.1935
   1418.74878     671.0893     414.3975   1418.74878     671.0893     414.3975
   1418.73352     671.7081     414.8868   1418.73352     671.7081     414.8868
   1418.71826     672.4690     415.5816   1418.71826     672.4690     415.5816
   1418.70300     672.4988     416.1372   1418.70300     672.4988     416.1372
   1418.68774     673.7811     415.9249   1418.68774     673.7811     415.9249
   1418.67249     674.3077     416.5943   1418.67249     674.3077     416.5943
   1418.65723     674.3009     417.7548   1418.65723     674.3009     417.7548
   1418.64197     676.2159     418.0446   1418.64197     676.2159     418.0446
   1418.62671     677.5500     418.0947   1418.62671     677.5500     418.0947
   1418.61145     676.3807     418.8845   1418.61145     676.3807     418.8845
   1418.59619     677.6394     419.6508   1418.59619     677.6394     419.6508
   1418.58093     679.2820     419.2815   1418.58093     679.2820     419.2815
   1418.56567     678.6848     420.4699   1418.56567     678.6848     420.4699
   1418.55042     680.0427     420.9940   1418.55042     680.0427     420.9940
   1418.53516     680.4413     421.9555   1418.53516     680.4413     421.9555
   1418.51990     681.3975     421.5498   1418.51990     681.3975     421.5498
   1418.50464     682.9592     422.5362   1418.50464     682.9592     422.5362
   1418.48938     682.4365     423.2945   1418.48938     682.4365     423.2945
   1418.47412     684.2984     424.3116   1418.47412     684.2984     424.3116
   1418.45886     683.9850     425.3343   1418.45886     683.9850     425.3343
   1418.44360     684.4312     425.9336   1418.44360     684.4312     425.9336
   1418.42834     686.4451     425.4318   1418.42834     686.4451     425.4318
   1418.41309     687.0388     426.4886   1418.41309     687.0388     426.4886
   1418.39783     688.0481     426.9836   1418.39783     688.0481     426.9836
   1418.38257     689.2404     427.3930   1418.38257     689.2404     427.3930
   1418.36731     690.1194     428.7909   1418.36731     690.1194     428.7909
   1418.35205     690.3790     428.5620   1418.35205     690.3790     428.5620
   1418.33679     691.4451     429.4700   1418.33679     691.4451     429.4700
   1418.32153     692.6431     430.4972   1418.32153     692.6431     430.4972
   1418.30627     693.0637     431.2115   1418.30627     693.0637     431.2115
   1418.29102     694.5060     432.2016   1418.29102     694.5060     432.2016
   1418.27576     695.0860     432.1419   1418.27576     695.0860     432.1419
   1418.26050     695.7128     433.3046   1418.26050     695.7128     433.3046
   1418.24524     695.7778     433.5346   1418.24524     695.7778     433.5346
   1418.22998     698.5402     435.2333   1418.22998     698.5402     435.2333
   1418.21472     697.6452     435.6721   1418.21472     697.6452     435.6721
   1418.19946     699.0488     435.8370   1418.19946     699.0488     435.8370
   1418.18420     699.3830     437.1157   1418.18420     699.3830     437.1157
   1418.16895     702.1122     437.6492   1418.16895     702.1122     437.6492
   1418.15369     701.4930     438.5598   1418.15369     701.4930     438.5598
   1418.13843     703.5967     439.5941   1418.13843     703.5967     439.5941
   1418.12317     704.5580     440.3263   1418.12317     704.5580     440.3263
   1418.10791     704.5532     440.7477   1418.10791     704.5532     440.7477
   1418.09265     704.8392     441.3369   1418.09265     704.8392     441.3369
   1418.07739     705.8021     442.0848   1418.07739     705.8021     442.0848
   1418.06213     707.1733     443.3538   1418.06213     707.1733     443.3538
   1418.04688     708.9177     443.7290   1418.04688     708.9177     443.7290
   1418.03162     708.3652     444.7804   1418.03162     708.3652     444.7804
   1418.01636     710.4636     445.3240   1418.01636     710.4636     445.3240
   1418.00110     711.5526     446.0246   1418.00110     711.5526     446.0246
   1417.98584     712.0613     446.5918   1417.98584     712.0613     446.5918
   1417.97058     713.5448     447.7860   1417.97058     713.5448     447.7860
   1417.95532     714.8996     448.7553   1417.95532     714.8996     448.7553
   1417.94006     715.0798     450.0116   1417.94006     715.0798     450.0116
   1417.92480     716.2034     450.7880   1417.92480     716.2034     450.7880
   1417.90955     717.2735     452.0143   1417.90955     717.2735     452.0143
   1417.89429     718.1467     452.4433   1417.89429     718.1467     452.4433
   1417.87903     719.2275     453.3008   1417.87903     719.2275     453.3008
   1417.86377     720.0745     453.7185   1417.86377     720.0745     453.7185
   1417.84851     721.7252     454.4818   1417.84851     721.7252     454.4818
   1417.83325     722.5146     455.8933   1417.83325     722.5146     455.8933
   1417.81799     724.6007     456.8634   1417.81799     724.6007     456.8634
   1417.80273     724.2732     457.4383   1417.80273     724.2732     457.4383
   1417.78748     725.4383     458.0592   1417.78748     725.4383     458.0592
   1417.77222     726.4525     459.2439   1417.77222     726.4525     459.2439
   1417.75696     727.6229     459.6240   1417.75696     727.6229     459.6240
   1417.74170     728.3440     461.7544   1417.74170     728.3440     461.7544
   1417.72644     728.8226     461.7684   1417.72644     728.8226     461.7684
   1417.71118     729.9022     463.2803   1417.71118     729.9022     463.2803
   1417.69592     730.9263     463.4664   1417.69592     730.9263     463.4664
   1417.68066     732.7050     464.5131   1417.68066     732.7050     464.5131
   1417.66541     734.1324     466.8228   1417.66541     734.1324     466.8228
   1417.65015     733.6108     466.9838   1417.65015     733.6108     466.9838
   1417.63489     734.9871     468.7169   1417.63489     734.9871     468.7169
   1417.61963     736.4214     468.0888   1417.61963     736.4214     468.0888
   1417.60437     737.9827     468.9062   1417.60437     737.9827     468.9062
   1417.58911     737.5089     469.9590   1417.58911     737.5089     469.9590
   1417.57385     739.0247     470.5637   1417.57385     739.0247     470.5637
   1417.55859     740.0528     471.3836   1417.55859     740.0528     471.3836
   1417.54333     739.5910     474.1019   1417.54333     739.5910     474.1019
   1417.52808     740.4527     473.8678   1417.52808     740.4527     473.8678
   1417.51282     743.2455     474.9167   1417.51282     743.2455     474.9167
   1417.49756     743.3553     475.0154   1417.49756     743.3553     475.0154
   1417.48230     744.5579     476.3172   1417.48230     744.5579     476.3172
   1417.46704     745.0129     478.1098   1417.46704     745.0129     478.1098
   1417.45178     746.1180     478.4861   1417.45178     746.1180     478.4861
   1417.43652     748.3234     478.7618   1417.43652     748.3234     478.7618
   1417.42126     748.2299     480.2392   1417.42126     748.2299     480.2392
   1417.40601     748.4297     480.8698   1417.40601     748.4297     480.8698
   1417.39075     748.7943     481.0057   1417.39075     748.7943     481.0057
   1417.37549     751.8331     482.5410   1417.37549     751.8331     482.5410
   1417.36023     751.3769     484.2346   1417.36023     751.3769     484.2346
   1417.34497     754.6044     484.8354   1417.34497     754.6044     484.8354
   1417.32971     753.1229     484.8919   1417.32971     753.1229     484.8919
   1417.31445     754.1937     486.2173   1417.31445     754.1937     486.2173
   1417.29919     754.0367     486.5666   1417.29919     754.0367     486.5666
   1417.28394     757.3270     488.1696   1417.28394     757.3270     488.1696
   1417.26868     756.3463     489.5397   1417.26868     756.3463     489.5397
   1417.25342     758.0599     490.0243   1417.25342     758.0599     490.0243
   1417.23816     758.2458     490.7768   1417.23816     758.2458     490.7768
   1417.22290     760.1966     492.4367   1417.22290     760.1966     492.4367
   1417.20764     760.0974     491.6944   1417.20764     760.0974     491.6944
   1417.19238     760.1243     492.5276   1417.19238     760.1243     492.5276
   1417.17712     761.8257     493.4188   1417.17712     761.8257     493.4188
   1417.16187     761.2306     494.4635   1417.16187     761.2306     494.4635
   1417.14661     762.5807     494.8683   1417.14661     762.5807     494.8683
   1417.13135     764.6313     495.7214   1417.13135     764.6313     495.7214
   1417.11609     763.8334     497.0390   1417.11609     763.8334     497.0390
   1417.10083     765.3513     497.0997   1417.10083     765.3513     497.0997
   1417.08557     766.2101     498.2965   1417.08557     766.2101     498.2965
   1417.07031     766.3919     499.1962   1417.07031     766.3919     499.1962
   1417.05505     768.4571     499.6457   1417.05505     768.4571     499.6457
   1417.03979     767.9274     499.9790   1417.03979     767.9274     499.9790
   1417.02454     769.7757     501.3476   1417.02454     769.7757     501.3476
   1417.00928     769.9798     500.7797   1417.00928     769.9798     500.7797
   1416.99402     769.9598     501.9415   1416.99402     769.9598     501.9415
   1416.97876     769.9191     503.3185   1416.97876     769.9191     503.3185
   1416.96350     771.0340     504.2939   1416.96350     771.0340     504.2939
   1416.94824     771.3476     505.3320   1416.94824     771.3476     505.3320
   1416.93298     772.4269     505.4951   1416.93298     772.4269     505.4951
   1416.91772     773.2375     506.4153   1416.91772     773.2375     506.4153
   1416.90247     772.2833     506.6398   1416.90247     772.2833     506.6398
   1416.88721     773.1755     506.4696   1416.88721     773.1755     506.4696
   1416.87195     773.6718     507.8235   1416.87195     773.6718     507.8235
   1416.85669     774.5481     507.6053   1416.85669     774.5481     507.6053
   1416.84143     775.2517     508.9854   1416.84143     775.2517     508.9854
   1416.82617     776.3788     508.9043   1416.82617     776.3788     508.9043
   1416.81091     775.8328     509.6139   1416.81091     775.8328     509.6139
   1416.79565     777.4481     509.4163   1416.79565     777.4481     509.4163
   1416.78040     776.4341     509.9948   1416.78040     776.4341     509.9948
   1416.76514     777.3005     511.1242   1416.76514     777.3005     511.1242
   1416.74988     777.6527     510.8262   1416.74988     777.6527     510.8262
   1416.73462     778.3876     511.3571   1416.73462     778.3876     511.3571
   1416.71936     777.4324     511.8389   1416.71936     777.4324     511.8389
   1416.70410     778.4698     512.4192   1416.70410     778.4698     512.4192
   1416.68884     780.0856     512.4086   1416.68884     780.0856     512.4086
   1416.67358     778.5931     513.2261   1416.67358     778.5931     513.2261
   1416.65833     780.2477     513.9973   1416.65833     780.2477     513.9973
   1416.64307     778.7578     513.2806   1416.64307     778.7578     513.2806
   1416.62781     780.6379     514.2942   1416.62781     780.6379     514.2942
   1416.61255     779.7838     514.1585   1416.61255     779.7838     514.1585
   1416.59729     779.4930     513.9880   1416.59729     779.4930     513.9880
   1416.58203     780.9738     514.5353   1416.58203     780.9738     514.5353
   1416.56677     779.9253     514.7941   1416.56677     779.9253     514.7941
   1416.55151     780.9181     514.2542   1416.55151     780.9181     514.2542
   1416.53625     781.1212     515.5072   1416.53625     781.1212     515.5072
   1416.52100     781.8119     515.1971   1416.52100     781.8119     515.1971
   1416.50574     780.2744     515.1172   1416.50574     780.2744     515.1172
   1416.49048     781.4713     515.0499   1416.49048     781.4713     515.0499
   1416.47522     780.0333     514.4195   1416.47522     780.0333     514.4195
   1416.45996     781.1993     515.0635   1416.45996     781.1993     515.0635
   1416.44470     780.5281     515.5298   1416.44470     780.5281     515.5298
   1416.42944     781.1182     515.0004   1416.42944     781.1182     515.0004
   1416.41418     780.8439     515.7855   1416.41418     780.8439     515.7855
   1416.39893     782.6419     515.7605   1416.39893     782.6419     515.7605
   1416.38367     781.0472     515.6072   1416.38367     781.0472     515.6072
   1416.36841     780.7042     515.2185   1416.36841     780.7042     515.2185
   1416.35315     780.6013     514.7048   1416.35315     780.6013     514.7048
   1416.33789     779.6801     514.4500   1416.33789     779.6801     514.4500
   1416.32263     780.3376     514.1871   1416.32263     780.3376     514.1871
   1416.30737     780.8519     514.5366   1416.30737     780.8519     514.5366
   1416.29211     779.5225     514.2499   1416.29211     779.5225     514.2499
   1416.27686     778.7296     514.3687   1416.27686     778.7296     514.3687
   1416.26160     778.0891     514.3129   1416.26160     778.0891     514.3129
   1416.24634     778.5064     513.8909   1416.24634     778.5064     513.8909
   1416.23108     778.9199     513.6685   1416.23108     778.9199     513.6685
   1416.21582     778.6707     514.0808   1416.21582     778.6707     514.0808
   1416.20056     778.0386     513.3464   1416.20056     778.0386     513.3464
   1416.18530     778.4694     512.7822   1416.18530     778.4694     512.7822
   1416.17004     778.2187     512.7554   1416.17004     778.2187     512.7554
   1416.15479     778.0790     512.7670   1416.15479     778.0790     512.7670
   1416.13953     778.0670     511.8822   1416.13953     778.0670     511.8822
   1416.12427     776.9510     512.5101   1416.12427     776.9510     512.5101
   1416.10901     775.5230     512.2858   1416.10901     775.5230     512.2858
   1416.09375     775.4523     511.2774   1416.09375     775.4523     511.2774
   1416.07849     775.0449     511.0975   1416.07849     775.0449     511.0975
   1416.06323     774.7498     510.9129   1416.06323     774.7498     510.9129
   1416.04797     775.0544     510.9502   1416.04797     775.0544     510.9502
   1416.03271     774.7175     510.2642   1416.03271     774.7175     510.2642
   1416.01746     774.7572     509.8185   1416.01746     774.7572     509.8185
   1416.00220     774.0519     510.2910   1416.00220     774.0519     510.2910
   1415.98694     773.0284     509.4186   1415.98694     773.0284     509.4186
   1415.97168     772.9623     508.8944   1415.97168     772.9623     508.8944
   1415.95642     772.9673     508.7733   1415.95642     772.9673     508.7733
   1415.94116     772.3042     508.1938   1415.94116     772.3042     508.1938
   1415.92590     771.2122     506.9368   1415.92590     771.2122     506.9368
   1415.91064     770.9507     505.9641   1415.91064     770.9507     505.9641
   1415.89539     769.5381     506.4178   1415.89539     769.5381     506.4178
   1415.88013     769.2287     506.4812   1415.88013     769.2287     506.4812
   1415.86487     769.4149     505.0993   1415.86487     769.4149     505.0993
   1415.84961     768.3858     505.2148   1415.84961     768.3858     505.2148
   1415.83435     767.6608     504.4195   1415.83435     767.6608     504.4195
   1415.81909     767.4106     504.3593   1415.81909     767.4106     504.3593
   1415.80383     766.8734     504.5527   1415.80383     766.8734     504.5527
   1415.78857     766.0004     503.7968   1415.78857     766.0004     503.7968
   1415.77332     765.2888     502.3368   1415.77332     765.2888     502.3368
   1415.75806     763.0847     502.5156   1415.75806     763.0847     502.5156
   1415.74280     763.1415     502.7791   1415.74280     763.1415     502.7791
   1415.72754     762.0563     501.4510   1415.72754     762.0563     501.4510
   1415.71228     762.2422     501.4751   1415.71228     762.2422     501.4751
   1415.69702     760.5397     500.4846   1415.69702     760.5397     500.4846
   1415.68176     760.1053     500.5741   1415.68176     760.1053     500.5741
   1415.66650     760.2501     500.0094   1415.66650     760.2501     500.0094
   1415.65125     760.0453     499.2494   1415.65125     760.0453     499.2494
   1415.63599     757.6812     499.0143   1415.63599     757.6812     499.0143
   1415.62073     758.2137     497.6851   1415.62073     758.2137     497.6851
   1415.60547     755.7507     497.4474   1415.60547     755.7507     497.4474
   1415.59021     755.5443     496.2974   1415.59021     755.5443     496.2974
   1415.57495     755.3482     496.0422   1415.57495     755.3482     496.0422
   1415.55969     753.5148     495.7073   1415.55969     753.5148     495.7073
   1415.54443     752.7384     495.2783   1415.54443     752.7384     495.2783
   1415.52917     752.0752     493.8357   1415.52917     752.0752     493.8357
   1415.51392     752.3010     495.3404   1415.51392     752.3010     495.3404
   1415.49866     749.8517     493.4003   1415.49866     749.8517     493.4003
   1415.48340     749.3603     492.6933   1415.48340     749.3603     492.6933
   1415.46814     748.6516     492.9738   1415.46814     748.6516     492.9738
   1415.45288     747.1680     492.2224   1415.45288     747.1680     492.2224
   1415.43762     746.7257     491.3157   1415.43762     746.7257     491.3157
   1415.42236     747.0540     490.6090   1415.42236     747.0540     490.6090
   1415.40710     744.3698     490.3067   1415.40710     744.3698     490.3067
   1415.39185     744.4339     489.0760   1415.39185     744.4339     489.0760
   1415.37659     742.7122     488.9301   1415.37659     742.7122     488.9301
   1415.36133     742.8115     487.6275   1415.36133     742.8115     487.6275
   1415.34607     739.8365     487.7691   1415.34607     739.8365     487.7691
   1415.33081     739.7576     487.2733   1415.33081     739.7576     487.2733
   1415.31555     737.2660     485.2272   1415.31555     737.2660     485.2272
   1415.30029     737.7806     484.9060   1415.30029     737.7806     484.9060
   1415.28503     735.8204     483.6348   1415.28503     735.8204     483.6348
   1415.26978     735.4467     483.9572   1415.26978     735.4467     483.9572
   1415.25452     733.2769     483.3922   1415.25452     733.2769     483.3922
   1415.23926     733.3786     482.7845   1415.23926     733.3786     482.7845
   1415.22400     730.2434     481.4128   1415.22400     730.2434     481.4128
   1415.20874     730.3133     481.1153   1415.20874     730.3133     481.1153
   1415.19348     728.0203     480.0076   1415.19348     728.0203     480.0076
   1415.17822     727.0372     479.7701   1415.17822     727.0372     479.7701
   1415.16296     725.9694     479.3416   1415.16296     725.9694     479.3416
   1415.14771     725.6558     477.9685   1415.14771     725.6558     477.9685
   1415.13245     724.3973     476.8535   1415.13245     724.3973     476.8535
   1415.11719     722.0154     476.5935   1415.11719     722.0154     476.5935
   1415.10193     720.5356     475.8360   1415.10193     720.5356     475.8360
   1415.08667     720.2599     475.3972   1415.08667     720.2599     475.3972
   1415.07141     719.7682     473.5468   1415.07141     719.7682     473.5468
   1415.05615     717.1274     472.7668   1415.05615     717.1274     472.7668
   1415.04089     714.8948     471.9172   1415.04089     714.8948     471.9172
   1415.02563     713.0591     470.9000   1415.02563     713.0591     470.9000
   1415.01038     712.5050     469.8331   1415.01038     712.5050     469.8331
   1414.99512     711.6359     469.6729   1414.99512     711.6359     469.6729
   1414.97986     708.8344     468.8123   1414.97986     708.8344     468.8123
   1414.96460     707.5705     466.8963   1414.96460     707.5705     466.8963
   1414.94934     706.4576     466.1174   1414.94934     706.4576     466.1174
   1414.93408     705.0702     465.6646   1414.93408     705.0702     465.6646
   1414.91882     703.4276     464.8667   1414.91882     703.4276     464.8667
   1414.90356     702.2997     463.8676   1414.90356     702.2997     463.8676
   1414.88831     700.8642     462.6817   1414.88831     700.8642     462.6817
   1414.87305     698.4205     461.9170   1414.87305     698.4205     461.9170
   1414.85779     696.1235     460.9072   1414.85779     696.1235     460.9072
   1414.84253     695.0446     459.4586   1414.84253     695.0446     459.4586
   1414.82727     693.5488     459.2257   1414.82727     693.5488     459.2257
   1414.81201     691.6816     457.5473   1414.81201     691.6816     457.5473
   1414.79675     689.1516     457.1289   1414.79675     689.1516     457.1289
   1414.78149     689.0437     455.3150   1414.78149     689.0437     455.3150
   1414.76624     687.3174     454.3256   1414.76624     687.3174     454.3256
   1414.75098     684.1245     453.6036   1414.75098     684.1245     453.6036
   1414.73572     682.8458     452.1675   1414.73572     682.8458     452.1675
   1414.72046     680.0018     450.8551   1414.72046     680.0018     450.8551
   1414.70520     678.8272     450.1612   1414.70520     678.8272     450.1612
   1414.68994     677.2792     448.3548   1414.68994     677.2792     448.3548
   1414.67468     674.7055     447.3787   1414.67468     674.7055     447.3787
   1414.65942     673.6838     446.5272   1414.65942     673.6838     446.5272
   1414.64417     672.0272     444.8974   1414.64417     672.0272     444.8974
   1414.62891     668.9008     444.2668   1414.62891     668.9008     444.2668
   1414.61365     666.9762     442.5710   1414.61365     666.9762     442.5710
   1414.59839     664.9576     441.8614   1414.59839     664.9576     441.8614
   1414.58313     662.3317     440.4208   1414.58313     662.3317     440.4208
   1414.56787     660.7160     438.7313   1414.56787     660.7160     438.7313
   1414.55261     657.8867     437.9813   1414.55261     657.8867     437.9813
   1414.53735     656.6642     436.3685   1414.53735     656.6642     436.3685
   1414.52209     654.2357     435.6282   1414.52209     654.2357     435.6282
   1414.50684     652.7450     433.8161   1414.50684     652.7450     433.8161
   1414.49158     649.5196     432.7923   1414.49158     649.5196     432.7923
   1414.47632     647.4511     431.3414   1414.47632     647.4511     431.3414
   1414.46106     644.9268     429.9438   1414.46106     644.9268     429.9438
   1414.44580     643.6575     428.8049   1414.44580     643.6575     428.8049
   1414.43054     640.1247     427.3591   1414.43054     640.1247     427.3591
   1414.41528     638.6969     426.3922   1414.41528     638.6969     426.3922
   1414.40002     637.1233     425.1263   1414.40002     637.1233     425.1263
   1414.38477     633.7830     423.1640   1414.38477     633.7830     423.1640
   1414.36951     631.5323     421.7006   1414.36951     631.5323     421.7006
   1414.35425     630.1249     420.8883   1414.35425     630.1249     420.8883
   1414.33899     627.3726     418.6801   1414.33899     627.3726     418.6801
   1414.32373     624.9482     417.3688   1414.32373     624.9482     417.3688
   1414.30847     622.5167     416.5112   1414.30847     622.5167     416.5112
   1414.29321     621.0970     414.0213   1414.29321     621.0970     414.0213
   1414.27795     618.2047     413.2224   1414.27795     618.2047     413.2224
   1414.26270     614.9798     411.3855   1414.26270     614.9798     411.3855
   1414.24744     612.4995     409.7149   1414.24744     612.4995     409.7149
   1414.23218     609.3484     408.7684   1414.23218     609.3484     408.7684
   1414.21692     607.6580     406.7010   1414.21692     607.6580     406.7010
   1414.20166     604.6683     405.6128   1414.20166     604.6683     405.6128
   1414.18640     602.4293     404.0121   1414.18640     602.4293     404.0121
   1414.17114     599.5795     402.7273   1414.17114     599.5795     402.7273
   1414.15588     597.8844     401.2133   1414.15588     597.8844     401.2133
   1414.14062     595.7208     399.7661   1414.14062     595.7208     399.7661
   1414.12537     592.6762     397.9846   1414.12537     592.6762     397.9846
   1414.11011     589.5820     396.0655   1414.11011     589.5820     396.0655
   1414.09485     586.2868     395.3635   1414.09485     586.2868     395.3635
   1414.07959     583.2198     393.0166   1414.07959     583.2198     393.0166
   1414.06433     582.8696     391.7371   1414.06433     582.8696     391.7371
   1414.04907     578.8198     389.5509   1414.04907     578.8198     389.5509
   1414.03381     576.4943     387.7537   1414.03381     576.4943     387.7537
   1414.01855     574.5682     387.0110   1414.01855     574.5682     387.0110
   1414.00330     596.9196     394.8945   1414.00330     596.9196     394.8945
   1413.98804     570.4421     384.2042   1413.98804     570.4421     384.2042
   1413.97278     565.4833     381.2410   1413.97278     565.4833     381.2410
   1413.95752     562.1182     379.8235   1413.95752     562.1182     379.8235
   1413.94226     560.5330     378.9296   1413.94226     560.5330     378.9296
   1413.92700     556.4955     376.6726   1413.92700     556.4955     376.6726
   1413.91174     553.9501     375.3792   1413.91174     553.9501     375.3792
   1413.89648     551.1871     373.4049   1413.89648     551.1871     373.4049
   1413.88123     548.5823     371.6714   1413.88123     548.5823     371.6714
   1413.86597     545.9192     370.5486   1413.86597     545.9192     370.5486
   1413.85071     542.5551     368.1034   1413.85071     542.5551     368.1034
   1413.83545     540.4625     366.2909   1413.83545     540.4625     366.2909
   1413.82019     536.9536     365.0487   1413.82019     536.9536     365.0487
   1413.80493     534.6541     363.1523   1413.80493     534.6541     363.1523
   1413.78967     531.7230     361.8131   1413.78967     531.7230     361.8131
   1413.77441     529.2161     359.8922   1413.77441     529.2161     359.8922
   1413.75916     526.6758     358.1904   1413.75916     526.6758     358.1904
   1413.74390     523.1517     356.7313   1413.74390     523.1517     356.7313
   1413.72864     520.7735     354.5742   1413.72864     520.7735     354.5742
   1413.71338     517.7947     353.0023   1413.71338     517.7947     353.0023
   1413.69812     514.3370     351.4470   1413.69812     514.3370     351.4470
   1413.68286     511.9767     349.3756   1413.68286     511.9767     349.3756
   1413.66760     508.8380     347.8886   1413.66760     508.8380     347.8886
   1413.65234     506.1369     346.3575   1413.65234     506.1369     346.3575
   1413.63708     504.2827     344.3549   1413.63708     504.2827     344.3549
   1413.62183     500.7733     342.9331   1413.62183     500.7733     342.9331
   1413.60657     498.6729     341.6938   1413.60657     498.6729     341.6938
   1413.59131     495.2045     339.7515   1413.59131     495.2045     339.7515
   1413.57605     492.5342     337.5666   1413.57605     492.5342     337.5666
   1413.56079     489.5874     336.5512   1413.56079     489.5874     336.5512
   1413.54553     486.8848     334.2444   1413.54553     486.8848     334.2444
   1413.53027     483.6893     333.2428   1413.53027     483.6893     333.2428
   1413.51501     481.4056     330.7447   1413.51501     481.4056     330.7447
   1413.49976     478.1313     329.8561   1413.49976     478.1313     329.8561
   1413.48450     475.8077     327.9161   1413.48450     475.8077     327.9161
   1413.46924     473.6263     326.5138   1413.46924     473.6263     326.5138
   1413.45398     470.4529     324.8380   1413.45398     470.4529     324.8380
   1413.43872     467.5859     323.2296   1413.43872     467.5859     323.2296
   1413.42346     464.3602     321.9253   1413.42346     464.3602     321.9253
   1413.40820     462.4598     319.9411   1413.40820     462.4598     319.9411
   1413.39294     459.3223     317.9073   1413.39294     459.3223     317.9073
   1413.37769     456.9272     316.5852   1413.37769     456.9272     316.5852
   1413.36243     454.1526     315.2308   1413.36243     454.1526     315.2308
   1413.34717     451.6886     313.3364   1413.34717     451.6886     313.3364
   1413.33191     449.2831     311.7750   1413.33191     449.2831     311.7750
   1413.31665     446.9374     310.3271   1413.31665     446.9374     310.3271
   1413.30139     444.1874     308.8835   1413.30139     444.1874     308.8835
   1413.28613     441.6055     307.1992   1413.28613     441.6055     307.1992
   1413.27087     438.5513     306.3268   1413.27087     438.5513     306.3268
   1413.25562     436.5508     304.7614   1413.25562     436.5508     304.7614
   1413.24036     433.6098     302.6859   1413.24036     433.6098     302.6859
   1413.22510     431.2920     301.1844   1413.22510     431.2920     301.1844
   1413.20984     428.7697     300.1148   1413.20984     428.7697     300.1148
   1413.19458     425.9389     298.2188   1413.19458     425.9389     298.2188
   1413.17932     424.2486     297.4252   1413.17932     424.2486     297.4252
   1413.16406     421.3187     295.5674   1413.16406     421.3187     295.5674
   1413.14880     420.0837     294.1974   1413.14880     420.0837     294.1974
   1413.13354     417.8826     293.3933   1413.13354     417.8826     293.3933
   1413.11829     415.1149     291.8877   1413.11829     415.1149     291.8877
   1413.10303     412.6164     290.3448   1413.10303     412.6164     290.3448
   1413.08777     410.9817     289.5564   1413.08777     410.9817     289.5564
   1413.07251     408.6370     287.7235   1413.07251     408.6370     287.7235
   1413.05725     405.9751     286.7224   1413.05725     405.9751     286.7224
   1413.04199     405.0652     285.2864   1413.04199     405.0652     285.2864
   1413.02673     402.4180     284.2707   1413.02673     402.4180     284.2707
   1413.01147     399.8164     282.7363   1413.01147     399.8164     282.7363
   1412.99622     397.7607     281.6531   1412.99622     397.7607     281.6531
   1412.98096     396.6733     280.8936   1412.98096     396.6733     280.8936
   1412.96570     394.5675     279.8387   1412.96570     394.5675     279.8387
   1412.95044     392.4691     278.5734   1412.95044     392.4691     278.5734
   1412.93518     390.9671     277.3086   1412.93518     390.9671     277.3086
   1412.91992     388.3722     275.5531   1412.91992     388.3722     275.5531
   1412.90466     387.9797     274.7047   1412.90466     387.9797     274.7047
   1412.88940     384.9308     274.2637   1412.88940     384.9308     274.2637
   1412.87415     383.7132     273.3469   1412.87415     383.7132     273.3469
   1412.85889     381.5990     272.1479   1412.85889     381.5990     272.1479
   1412.84363     380.4385     271.1964   1412.84363     380.4385     271.1964
   1412.82837     378.9869     270.2262   1412.82837     378.9869     270.2262
   1412.81311     377.2447     270.1734   1412.81311     377.2447     270.1734
   1412.79785     376.1228     268.5195   1412.79785     376.1228     268.5195
   1412.78259     374.1626     268.3006   1412.78259     374.1626     268.3006
   1412.76733     372.8614     267.1679   1412.76733     372.8614     267.1679
   1412.75208     371.8253     266.2521   1412.75208     371.8253     266.2521
   1412.73682     369.8022     265.7616   1412.73682     369.8022     265.7616
   1412.72156     368.8771     265.0664   1412.72156     368.8771     265.0664
   1412.70630     367.9001     264.3288   1412.70630     367.9001     264.3288
   1412.69104     367.1134     264.0213   1412.69104     367.1134     264.0213
   1412.67578     364.8951     263.4544   1412.67578     364.8951     263.4544
   1412.66052     364.3607     262.9914   1412.66052     364.3607     262.9914
   1412.64526     363.6137     262.3311   1412.64526     363.6137     262.3311
   1412.63000     362.2244     261.6663   1412.63000     362.2244     261.6663
   1412.61475     361.8193     261.7555   1412.61475     361.8193     261.7555
   1412.59949     361.3800     260.6616   1412.59949     361.3800     260.6616
   1412.58423     360.1792     260.7167   1412.58423     360.1792     260.7167
   1412.56897     359.2538     260.4132   1412.56897     359.2538     260.4132
   1412.55371     358.8842     260.1889   1412.55371     358.8842     260.1889
   1412.53845     358.5062     259.4705   1412.53845     358.5062     259.4705
   1412.52319     356.7838     259.4014   1412.52319     356.7838     259.4014
   1412.50793     356.7345     259.1575   1412.50793     356.7345     259.1575
   1412.49268     355.9742     259.0312   1412.49268     355.9742     259.0312
   1412.47742     356.3607     258.6291   1412.47742     356.3607     258.6291
   1412.46216     355.9313     258.7836   1412.46216     355.9313     258.7836
   1412.44690     355.2175     258.4343   1412.44690     355.2175     258.4343
   1412.43164     355.0183     259.0999   1412.43164     355.0183     259.0999
   1412.41638     354.2928     259.2053   1412.41638     354.2928     259.2053
   1412.40112     354.2493     259.3140   1412.40112     354.2493     259.3140
   1412.38586     354.4007     258.6175   1412.38586     354.4007     258.6175
   1412.37061     354.0260     259.1115   1412.37061     354.0260     259.1115
   1412.35535     353.9154     259.0806   1412.35535     353.9154     259.0806
   1412.34009     353.7479     259.7559   1412.34009     353.7479     259.7559
   1412.32483     354.4639     259.7436   1412.32483     354.4639     259.7436
   1412.30957     354.3891     259.9349   1412.30957     354.3891     259.9349
   1412.29431     354.5439     260.3553   1412.29431     354.5439     260.3553
   1412.27905     354.6428     260.7857   1412.27905     354.6428     260.7857
   1412.26379     355.1186     261.4215   1412.26379     355.1186     261.4215
   1412.24854     355.2129     261.8389   1412.24854     355.2129     261.8389
   1412.23328     355.2772     262.0854   1412.23328     355.2772     262.0854
   1412.21802     355.4684     262.6933   1412.21802     355.4684     262.6933
   1412.20276     357.3530     263.4904   1412.20276     357.3530     263.4904