#     FILENAME=!Skynet_57528_lach-hhg-145_20475_20969.cyb.fits
#     BASENAME=Skynet_57528_lach-hhg-145_20475_20969
#     SRC_NAME=lach-hhg-145
#     OBSERVER=hhgmadison16_9500
#     DATE_OBS=2016-05-20T17:27:33.500
#        OBSID=20475
#      SCANNUM=20969
#          MJD=57528.7285
#          UTC=62942
#     SCANTYPE=track
#     DATAMODE=HIRES
#     TUNEFREQ=1420.0000
# Actual_FREQ1=1420.0000
# Actual_FREQ2=1420.0000
#    LO1Tuning=6870.000
#     RFFILTER=1355_1435
#        OBSBW=-15.6250
#        NCHAN=1024 
#        FOCUS=37.0709
#           RA=03:37:59.25
#          DEC=55:33:59.19
#      RA(hrs)=3.633100
#     DEC(deg)=55.566400
#    AZIM(deg)=348.201
#    ELEV(deg)=72.264
#     IFattens=10.00, 10.00
#      WARNING=None
#    TCAL_XL1=7.9635
#    TCAL_YR1=9.1340
#    TCAL_XL2=7.9635
#    TCAL_YR2=9.1340
#     TRX_XL1=11.7060
#     TRX_YR1=11.7060
#     TRX_XL2=11.7060
#     TRX_YR2=11.7060
#        TAVE=1.0000
#Freq1(MHz)          XL1          YR1  Freq2(MHz)          XL2          YR2 

   1427.81250     298.0610     329.8681   1427.81250     298.0610     329.8681
   1427.79724     298.0107     331.0323   1427.79724     298.0107     331.0323
   1427.78198     298.6761     332.3671   1427.78198     298.6761     332.3671
   1427.76672     299.3397     333.7988   1427.76672     299.3397     333.7988
   1427.75146     300.0013     334.6847   1427.75146     300.0013     334.6847
   1427.73621     300.5199     336.7050   1427.73621     300.5199     336.7050
   1427.72095     301.0009     337.7455   1427.72095     301.0009     337.7455
   1427.70569     302.0501     339.9535   1427.70569     302.0501     339.9535
   1427.69043     302.9075     340.9780   1427.69043     302.9075     340.9780
   1427.67517     303.1516     342.6653   1427.67517     303.1516     342.6653
   1427.65991     304.3365     344.1286   1427.65991     304.3365     344.1286
   1427.64465     305.4586     346.1483   1427.64465     305.4586     346.1483
   1427.62939     307.0724     347.5184   1427.62939     307.0724     347.5184
   1427.61414     307.0802     349.4650   1427.61414     307.0802     349.4650
   1427.59888     308.9197     351.7893   1427.59888     308.9197     351.7893
   1427.58362     309.8741     352.8582   1427.58362     309.8741     352.8582
   1427.56836     311.0801     354.8435   1427.56836     311.0801     354.8435
   1427.55310     312.2232     356.3278   1427.55310     312.2232     356.3278
   1427.53784     313.3486     358.1956   1427.53784     313.3486     358.1956
   1427.52258     314.2376     360.5186   1427.52258     314.2376     360.5186
   1427.50732     316.2568     362.2397   1427.50732     316.2568     362.2397
   1427.49207     317.0122     363.3649   1427.49207     317.0122     363.3649
   1427.47681     318.4453     365.7461   1427.47681     318.4453     365.7461
   1427.46155     319.9886     367.8282   1427.46155     319.9886     367.8282
   1427.44629     321.3005     370.0374   1427.44629     321.3005     370.0374
   1427.43103     323.2783     372.1738   1427.43103     323.2783     372.1738
   1427.41577     324.8471     374.2332   1427.41577     324.8471     374.2332
   1427.40051     326.5425     375.7863   1427.40051     326.5425     375.7863
   1427.38525     327.7890     377.8663   1427.38525     327.7890     377.8663
   1427.37000     329.0275     380.0862   1427.37000     329.0275     380.0862
   1427.35474     330.6501     381.9091   1427.35474     330.6501     381.9091
   1427.33948     331.9724     384.3375   1427.33948     331.9724     384.3375
   1427.32422     333.8995     386.7807   1427.32422     333.8995     386.7807
   1427.30896     335.8562     388.1284   1427.30896     335.8562     388.1284
   1427.29370     337.9098     390.6713   1427.29370     337.9098     390.6713
   1427.27844     339.4879     393.0205   1427.27844     339.4879     393.0205
   1427.26318     341.0884     395.4355   1427.26318     341.0884     395.4355
   1427.24792     343.4051     397.3749   1427.24792     343.4051     397.3749
   1427.23267     344.9446     399.9561   1427.23267     344.9446     399.9561
   1427.21741     346.9929     401.8166   1427.21741     346.9929     401.8166
   1427.20215     349.2720     404.0029   1427.20215     349.2720     404.0029
   1427.18689     350.8464     406.6702   1427.18689     350.8464     406.6702
   1427.17163     353.0014     408.3892   1427.17163     353.0014     408.3892
   1427.15637     354.8774     410.9261   1427.15637     354.8774     410.9261
   1427.14111     357.4955     413.1214   1427.14111     357.4955     413.1214
   1427.12585     359.4807     415.7930   1427.12585     359.4807     415.7930
   1427.11060     361.7489     417.4902   1427.11060     361.7489     417.4902
   1427.09534     363.6066     419.4828   1427.09534     363.6066     419.4828
   1427.08008     365.8414     422.0864   1427.08008     365.8414     422.0864
   1427.06482     368.2485     423.5157   1427.06482     368.2485     423.5157
   1427.04956     370.2076     426.6719   1427.04956     370.2076     426.6719
   1427.03430     372.3482     428.4470   1427.03430     372.3482     428.4470
   1427.01904     373.7831     431.1940   1427.01904     373.7831     431.1940
   1427.00378     376.7530     432.8557   1427.00378     376.7530     432.8557
   1426.98853     379.1345     436.0266   1426.98853     379.1345     436.0266
   1426.97327     381.9069     437.7527   1426.97327     381.9069     437.7527
   1426.95801     383.2328     440.3881   1426.95801     383.2328     440.3881
   1426.94275     385.8956     442.1820   1426.94275     385.8956     442.1820
   1426.92749     388.5621     444.3875   1426.92749     388.5621     444.3875
   1426.91223     390.8488     446.4597   1426.91223     390.8488     446.4597
   1426.89697     393.1184     448.2131   1426.89697     393.1184     448.2131
   1426.88171     396.0554     450.9085   1426.88171     396.0554     450.9085
   1426.86646     398.0478     453.0668   1426.86646     398.0478     453.0668
   1426.85120     400.5078     454.8931   1426.85120     400.5078     454.8931
   1426.83594     402.9875     457.5095   1426.83594     402.9875     457.5095
   1426.82068     406.0003     459.2888   1426.82068     406.0003     459.2888
   1426.80542     407.4601     461.5916   1426.80542     407.4601     461.5916
   1426.79016     410.1193     463.9847   1426.79016     410.1193     463.9847
   1426.77490     412.0433     465.6144   1426.77490     412.0433     465.6144
   1426.75964     415.3304     468.3000   1426.75964     415.3304     468.3000
   1426.74438     417.3069     469.8882   1426.74438     417.3069     469.8882
   1426.72913     419.9247     472.2497   1426.72913     419.9247     472.2497
   1426.71387     422.6482     474.9417   1426.71387     422.6482     474.9417
   1426.69861     424.4406     476.2720   1426.69861     424.4406     476.2720
   1426.68335     427.3343     478.5867   1426.68335     427.3343     478.5867
   1426.66809     429.4843     480.4837   1426.66809     429.4843     480.4837
   1426.65283     432.3290     482.7991   1426.65283     432.3290     482.7991
   1426.63757     434.7951     484.5900   1426.63757     434.7951     484.5900
   1426.62231     438.9029     488.5505   1426.62231     438.9029     488.5505
   1426.60706     440.2162     488.6409   1426.60706     440.2162     488.6409
   1426.59180     442.4974     490.1786   1426.59180     442.4974     490.1786
   1426.57654     445.7948     491.5935   1426.57654     445.7948     491.5935
   1426.56128     447.3264     494.4148   1426.56128     447.3264     494.4148
   1426.54602     449.6686     496.1775   1426.54602     449.6686     496.1775
   1426.53076     452.2768     497.4779   1426.53076     452.2768     497.4779
   1426.51550     454.6651     499.8505   1426.51550     454.6651     499.8505
   1426.50024     457.0291     501.9884   1426.50024     457.0291     501.9884
   1426.48499     459.7882     504.0424   1426.48499     459.7882     504.0424
   1426.46973     462.2097     504.8352   1426.46973     462.2097     504.8352
   1426.45447     465.1769     507.1085   1426.45447     465.1769     507.1085
   1426.43921     466.6953     508.8758   1426.43921     466.6953     508.8758
   1426.42395     470.0191     511.0757   1426.42395     470.0191     511.0757
   1426.40869     472.2793     512.3837   1426.40869     472.2793     512.3837
   1426.39343     474.0935     514.3315   1426.39343     474.0935     514.3315
   1426.37817     476.3101     516.1267   1426.37817     476.3101     516.1267
   1426.36292     479.0181     517.6688   1426.36292     479.0181     517.6688
   1426.34766     482.2026     519.0088   1426.34766     482.2026     519.0088
   1426.33240     483.3438     520.8002   1426.33240     483.3438     520.8002
   1426.31714     485.9410     523.0606   1426.31714     485.9410     523.0606
   1426.30188     488.3470     524.1774   1426.30188     488.3470     524.1774
   1426.28662     491.1724     525.7473   1426.28662     491.1724     525.7473
   1426.27136     493.4383     527.3416   1426.27136     493.4383     527.3416
   1426.25610     495.2928     529.4440   1426.25610     495.2928     529.4440
   1426.24084     497.6295     531.4811   1426.24084     497.6295     531.4811
   1426.22559     500.2338     531.8223   1426.22559     500.2338     531.8223
   1426.21033     503.2695     534.2579   1426.21033     503.2695     534.2579
   1426.19507     505.7218     534.7814   1426.19507     505.7218     534.7814
   1426.17981     506.4149     537.5765   1426.17981     506.4149     537.5765
   1426.16455     510.1836     537.9711   1426.16455     510.1836     537.9711
   1426.14929     512.0287     540.0128   1426.14929     512.0287     540.0128
   1426.13403     514.1204     541.3455   1426.13403     514.1204     541.3455
   1426.11877     515.0568     543.0554   1426.11877     515.0568     543.0554
   1426.10352     518.2589     544.4642   1426.10352     518.2589     544.4642
   1426.08826     520.7280     545.0928   1426.08826     520.7280     545.0928
   1426.07300     522.3127     546.7093   1426.07300     522.3127     546.7093
   1426.05774     524.3904     549.1030   1426.05774     524.3904     549.1030
   1426.04248     527.1906     550.3518   1426.04248     527.1906     550.3518
   1426.02722     528.2863     551.1814   1426.02722     528.2863     551.1814
   1426.01196     530.5333     552.8073   1426.01196     530.5333     552.8073
   1425.99670     534.3990     552.4802   1425.99670     534.3990     552.4802
   1425.98145     534.8300     554.9419   1425.98145     534.8300     554.9419
   1425.96619     536.6446     556.3589   1425.96619     536.6446     556.3589
   1425.95093     538.5565     556.5073   1425.95093     538.5565     556.5073
   1425.93567     540.9206     557.8575   1425.93567     540.9206     557.8575
   1425.92041     542.6061     560.6675   1425.92041     542.6061     560.6675
   1425.90515     544.5286     561.2902   1425.90515     544.5286     561.2902
   1425.88989     546.3581     561.6557   1425.88989     546.3581     561.6557
   1425.87463     548.8317     563.1087   1425.87463     548.8317     563.1087
   1425.85938     549.8427     565.0720   1425.85938     549.8427     565.0720
   1425.84412     551.8072     565.2864   1425.84412     551.8072     565.2864
   1425.82886     552.8607     566.5858   1425.82886     552.8607     566.5858
   1425.81360     555.8852     567.5903   1425.81360     555.8852     567.5903
   1425.79834     557.8034     569.6793   1425.79834     557.8034     569.6793
   1425.78308     558.6943     569.2988   1425.78308     558.6943     569.2988
   1425.76782     561.4060     571.5095   1425.76782     561.4060     571.5095
   1425.75256     562.0564     572.2663   1425.75256     562.0564     572.2663
   1425.73730     563.9940     573.2332   1425.73730     563.9940     573.2332
   1425.72205     565.8220     574.6688   1425.72205     565.8220     574.6688
   1425.70679     568.1303     575.2474   1425.70679     568.1303     575.2474
   1425.69153     569.7863     575.8446   1425.69153     569.7863     575.8446
   1425.67627     570.3705     577.4347   1425.67627     570.3705     577.4347
   1425.66101     571.4767     578.4816   1425.66101     571.4767     578.4816
   1425.64575     573.6957     579.8091   1425.64575     573.6957     579.8091
   1425.63049     574.7606     579.2191   1425.63049     574.7606     579.2191
   1425.61523     575.7612     581.7711   1425.61523     575.7612     581.7711
   1425.59998     577.3294     582.3097   1425.59998     577.3294     582.3097
   1425.58472     578.8662     583.3814   1425.58472     578.8662     583.3814
   1425.56946     580.1127     583.7785   1425.56946     580.1127     583.7785
   1425.55420     580.9326     584.4687   1425.55420     580.9326     584.4687
   1425.53894     582.8121     584.7577   1425.53894     582.8121     584.7577
   1425.52368     583.6303     585.3291   1425.52368     583.6303     585.3291
   1425.50842     585.1017     587.8165   1425.50842     585.1017     587.8165
   1425.49316     586.3245     587.9445   1425.49316     586.3245     587.9445
   1425.47791     588.6461     588.5889   1425.47791     588.6461     588.5889
   1425.46265     588.7338     589.3240   1425.46265     588.7338     589.3240
   1425.44739     589.6501     590.4349   1425.44739     589.6501     590.4349
   1425.43213     589.7989     591.7489   1425.43213     589.7989     591.7489
   1425.41687     592.5345     592.9356   1425.41687     592.5345     592.9356
   1425.40161     593.6697     593.8427   1425.40161     593.6697     593.8427
   1425.38635     595.2083     592.4852   1425.38635     595.2083     592.4852
   1425.37109     596.2216     593.4506   1425.37109     596.2216     593.4506
   1425.35583     596.0231     594.7679   1425.35583     596.0231     594.7679
   1425.34058     596.5770     595.1860   1425.34058     596.5770     595.1860
   1425.32532     597.9803     595.7448   1425.32532     597.9803     595.7448
   1425.31006     598.4511     595.5735   1425.31006     598.4511     595.5735
   1425.29480     600.0472     597.3422   1425.29480     600.0472     597.3422
   1425.27954     600.8456     598.4470   1425.27954     600.8456     598.4470
   1425.26428     601.4382     598.3549   1425.26428     601.4382     598.3549
   1425.24902     602.3420     598.5569   1425.24902     602.3420     598.5569
   1425.23376     603.5963     599.9003   1425.23376     603.5963     599.9003
   1425.21851     603.8370     600.7924   1425.21851     603.8370     600.7924
   1425.20325     604.1426     600.4504   1425.20325     604.1426     600.4504
   1425.18799     604.5978     602.1861   1425.18799     604.5978     602.1861
   1425.17273     605.9769     601.7971   1425.17273     605.9769     601.7971
   1425.15747     606.3341     601.8336   1425.15747     606.3341     601.8336
   1425.14221     606.9799     603.2310   1425.14221     606.9799     603.2310
   1425.12695     607.7256     604.5709   1425.12695     607.7256     604.5709
   1425.11169     608.0966     604.1740   1425.11169     608.0966     604.1740
   1425.09644     608.8868     604.1974   1425.09644     608.8868     604.1974
   1425.08118     609.3965     605.3210   1425.08118     609.3965     605.3210
   1425.06592     610.7547     606.3869   1425.06592     610.7547     606.3869
   1425.05066     611.0214     606.2116   1425.05066     611.0214     606.2116
   1425.03540     611.0962     606.4314   1425.03540     611.0962     606.4314
   1425.02014     611.7892     606.5497   1425.02014     611.7892     606.5497
   1425.00488     612.1025     606.4055   1425.00488     612.1025     606.4055
   1424.98962     612.8372     607.4104   1424.98962     612.8372     607.4104
   1424.97437     613.5049     607.6397   1424.97437     613.5049     607.6397
   1424.95911     614.1539     608.7318   1424.95911     614.1539     608.7318
   1424.94385     613.3070     608.4365   1424.94385     613.3070     608.4365
   1424.92859     614.0973     609.2878   1424.92859     614.0973     609.2878
   1424.91333     613.5876     609.2153   1424.91333     613.5876     609.2153
   1424.89807     614.6288     609.8926   1424.89807     614.6288     609.8926
   1424.88281     614.4727     610.9658   1424.88281     614.4727     610.9658
   1424.86755     615.4127     610.9482   1424.86755     615.4127     610.9482
   1424.85229     614.8946     611.2125   1424.85229     614.8946     611.2125
   1424.83704     615.2700     611.1640   1424.83704     615.2700     611.1640
   1424.82178     616.2236     612.0587   1424.82178     616.2236     612.0587
   1424.80652     616.1753     612.3734   1424.80652     616.1753     612.3734
   1424.79126     615.5751     612.8772   1424.79126     615.5751     612.8772
   1424.77600     615.4651     612.1591   1424.77600     615.4651     612.1591
   1424.76074     615.7487     612.3679   1424.76074     615.7487     612.3679
   1424.74548     616.2028     613.4834   1424.74548     616.2028     613.4834
   1424.73022     616.7104     613.7719   1424.73022     616.7104     613.7719
   1424.71497     616.1133     614.1725   1424.71497     616.1133     614.1725
   1424.69971     615.3561     614.6777   1424.69971     615.3561     614.6777
   1424.68445     616.4896     614.1760   1424.68445     616.4896     614.1760
   1424.66919     616.5051     614.7669   1424.66919     616.5051     614.7669
   1424.65393     616.3192     615.7676   1424.65393     616.3192     615.7676
   1424.63867     615.2612     614.8519   1424.63867     615.2612     614.8519
   1424.62341     616.7211     614.6518   1424.62341     616.7211     614.6518
   1424.60815     616.4940     616.0640   1424.60815     616.4940     616.0640
   1424.59290     616.4745     615.4713   1424.59290     616.4745     615.4713
   1424.57764     616.2975     615.2338   1424.57764     616.2975     615.2338
   1424.56238     615.6472     617.0844   1424.56238     615.6472     617.0844
   1424.54712     616.2442     616.4822   1424.54712     616.2442     616.4822
   1424.53186     615.2007     616.5457   1424.53186     615.2007     616.5457
   1424.51660     615.2235     616.4377   1424.51660     615.2235     616.4377
   1424.50134     615.2496     616.3485   1424.50134     615.2496     616.3485
   1424.48608     616.0016     616.7887   1424.48608     616.0016     616.7887
   1424.47083     616.3645     616.6123   1424.47083     616.3645     616.6123
   1424.45557     615.5867     616.9239   1424.45557     615.5867     616.9239
   1424.44031     615.0399     616.9223   1424.44031     615.0399     616.9223
   1424.42505     615.2236     618.0358   1424.42505     615.2236     618.0358
   1424.40979     614.9890     617.2686   1424.40979     614.9890     617.2686
   1424.39453     614.1200     617.9528   1424.39453     614.1200     617.9528
   1424.37927     614.4527     617.5953   1424.37927     614.4527     617.5953
   1424.36401     613.5325     617.3819   1424.36401     613.5325     617.3819
   1424.34875     613.3177     618.6811   1424.34875     613.3177     618.6811
   1424.33350     613.1376     618.9828   1424.33350     613.1376     618.9828
   1424.31824     613.8704     616.9431   1424.31824     613.8704     616.9431
   1424.30298     612.7703     617.1593   1424.30298     612.7703     617.1593
   1424.28772     613.1755     618.0828   1424.28772     613.1755     618.0828
   1424.27246     613.1932     618.7696   1424.27246     613.1932     618.7696
   1424.25720     612.1403     617.4114   1424.25720     612.1403     617.4114
   1424.24194     611.4064     618.9866   1424.24194     611.4064     618.9866
   1424.22668     610.6936     617.7480   1424.22668     610.6936     617.7480
   1424.21143     611.2194     618.2181   1424.21143     611.2194     618.2181
   1424.19617     611.1865     617.9944   1424.19617     611.1865     617.9944
   1424.18091     609.9880     618.6013   1424.18091     609.9880     618.6013
   1424.16565     610.1804     618.0536   1424.16565     610.1804     618.0536
   1424.15039     608.8365     617.7833   1424.15039     608.8365     617.7833
   1424.13513     608.1074     617.4872   1424.13513     608.1074     617.4872
   1424.11987     609.3848     617.8888   1424.11987     609.3848     617.8888
   1424.10461     609.0676     617.7677   1424.10461     609.0676     617.7677
   1424.08936     607.9741     617.3338   1424.08936     607.9741     617.3338
   1424.07410     607.2227     617.2690   1424.07410     607.2227     617.2690
   1424.05884     607.6498     617.0728   1424.05884     607.6498     617.0728
   1424.04358     606.5160     617.3690   1424.04358     606.5160     617.3690
   1424.02832     606.5703     616.3063   1424.02832     606.5703     616.3063
   1424.01306     605.8000     617.7929   1424.01306     605.8000     617.7929
   1423.99780     606.2044     616.7607   1423.99780     606.2044     616.7607
   1423.98254     604.4841     616.4587   1423.98254     604.4841     616.4587
   1423.96729     604.4929     617.0709   1423.96729     604.4929     617.0709
   1423.95203     604.4529     616.3690   1423.95203     604.4529     616.3690
   1423.93677     604.1830     617.3068   1423.93677     604.1830     617.3068
   1423.92151     603.1873     615.8494   1423.92151     603.1873     615.8494
   1423.90625     602.9822     617.0223   1423.90625     602.9822     617.0223
   1423.89099     602.1069     616.6096   1423.89099     602.1069     616.6096
   1423.87573     602.1951     616.1040   1423.87573     602.1951     616.1040
   1423.86047     601.4777     615.6642   1423.86047     601.4777     615.6642
   1423.84521     601.8357     616.8652   1423.84521     601.8357     616.8652
   1423.82996     601.6094     615.4703   1423.82996     601.6094     615.4703
   1423.81470     600.2272     614.8186   1423.81470     600.2272     614.8186
   1423.79944     600.6943     614.8198   1423.79944     600.6943     614.8198
   1423.78418     599.3062     614.6248   1423.78418     599.3062     614.6248
   1423.76892     598.6824     614.4580   1423.76892     598.6824     614.4580
   1423.75366     598.3255     613.9512   1423.75366     598.3255     613.9512
   1423.73840     598.1001     613.4788   1423.73840     598.1001     613.4788
   1423.72314     597.8232     614.0026   1423.72314     597.8232     614.0026
   1423.70789     597.9948     613.3815   1423.70789     597.9948     613.3815
   1423.69263     596.8704     613.4978   1423.69263     596.8704     613.4978
   1423.67737     596.0669     613.3260   1423.67737     596.0669     613.3260
   1423.66211     594.7836     612.0214   1423.66211     594.7836     612.0214
   1423.64685     596.0494     611.8904   1423.64685     596.0494     611.8904
   1423.63159     594.0482     612.1436   1423.63159     594.0482     612.1436
   1423.61633     594.6844     611.4924   1423.61633     594.6844     611.4924
   1423.60107     592.9547     610.4071   1423.60107     592.9547     610.4071
   1423.58582     593.9377     611.2309   1423.58582     593.9377     611.2309
   1423.57056     591.7455     609.9845   1423.57056     591.7455     609.9845
   1423.55530     592.9359     609.4349   1423.55530     592.9359     609.4349
   1423.54004     592.4491     608.8167   1423.54004     592.4491     608.8167
   1423.52478     592.0360     608.3185   1423.52478     592.0360     608.3185
   1423.50952     591.1725     608.9457   1423.50952     591.1725     608.9457
   1423.49426     591.3524     607.8641   1423.49426     591.3524     607.8641
   1423.47900     589.9816     608.1018   1423.47900     589.9816     608.1018
   1423.46375     590.2872     607.7809   1423.46375     590.2872     607.7809
   1423.44849     589.3960     607.4132   1423.44849     589.3960     607.4132
   1423.43323     589.6992     606.6434   1423.43323     589.6992     606.6434
   1423.41797     588.8638     606.5233   1423.41797     588.8638     606.5233
   1423.40271     588.5123     605.2816   1423.40271     588.5123     605.2816
   1423.38745     588.0337     604.5568   1423.38745     588.0337     604.5568
   1423.37219     587.2017     604.3759   1423.37219     587.2017     604.3759
   1423.35693     587.2477     603.2429   1423.35693     587.2477     603.2429
   1423.34167     586.6999     604.4147   1423.34167     586.6999     604.4147
   1423.32642     586.1380     603.0284   1423.32642     586.1380     603.0284
   1423.31116     586.0236     602.5812   1423.31116     586.0236     602.5812
   1423.29590     584.5706     602.0833   1423.29590     584.5706     602.0833
   1423.28064     584.8588     600.6432   1423.28064     584.8588     600.6432
   1423.26538     583.8337     601.6195   1423.26538     583.8337     601.6195
   1423.25012     584.3999     601.1705   1423.25012     584.3999     601.1705
   1423.23486     583.3600     599.1165   1423.23486     583.3600     599.1165
   1423.21960     584.3468     598.9616   1423.21960     584.3468     598.9616
   1423.20435     582.9526     598.2795   1423.20435     582.9526     598.2795
   1423.18909     582.7930     598.0729   1423.18909     582.7930     598.0729
   1423.17383     583.3817     597.2266   1423.17383     583.3817     597.2266
   1423.15857     582.1113     595.9508   1423.15857     582.1113     595.9508
   1423.14331     581.2468     596.2212   1423.14331     581.2468     596.2212
   1423.12805     580.6711     595.4382   1423.12805     580.6711     595.4382
   1423.11279     581.4002     594.2144   1423.11279     581.4002     594.2144
   1423.09753     580.7474     594.2535   1423.09753     580.7474     594.2535
   1423.08228     579.7209     592.7779   1423.08228     579.7209     592.7779
   1423.06702     579.1202     592.1189   1423.06702     579.1202     592.1189
   1423.05176     579.8236     591.5164   1423.05176     579.8236     591.5164
   1423.03650     579.2734     591.9998   1423.03650     579.2734     591.9998
   1423.02124     579.2007     590.5939   1423.02124     579.2007     590.5939
   1423.00598     578.2450     589.8928   1423.00598     578.2450     589.8928
   1422.99072     577.8958     588.7202   1422.99072     577.8958     588.7202
   1422.97546     578.0695     588.2675   1422.97546     578.0695     588.2675
   1422.96021     577.2917     587.6044   1422.96021     577.2917     587.6044
   1422.94495     576.9846     586.5195   1422.94495     576.9846     586.5195
   1422.92969     576.2917     586.3137   1422.92969     576.2917     586.3137
   1422.91443     576.6901     584.7333   1422.91443     576.6901     584.7333
   1422.89917     575.8804     584.5357   1422.89917     575.8804     584.5357
   1422.88391     575.8583     583.8608   1422.88391     575.8583     583.8608
   1422.86865     575.7411     582.3282   1422.86865     575.7411     582.3282
   1422.85339     575.7741     582.4594   1422.85339     575.7741     582.4594
   1422.83813     574.7798     580.5474   1422.83813     574.7798     580.5474
   1422.82288     574.7465     580.3812   1422.82288     574.7465     580.3812
   1422.80762     574.2593     580.4977   1422.80762     574.2593     580.4977
   1422.79236     574.1730     578.2780   1422.79236     574.1730     578.2780
   1422.77710     573.9207     578.2620   1422.77710     573.9207     578.2620
   1422.76184     573.4394     577.3378   1422.76184     573.4394     577.3378
   1422.74658     573.1907     576.0680   1422.74658     573.1907     576.0680
   1422.73132     573.0330     575.3018   1422.73132     573.0330     575.3018
   1422.71606     573.2350     574.3488   1422.71606     573.2350     574.3488
   1422.70081     573.1984     573.3362   1422.70081     573.1984     573.3362
   1422.68555     572.2534     573.2139   1422.68555     572.2534     573.2139
   1422.67029     571.9986     572.3287   1422.67029     571.9986     572.3287
   1422.65503     572.1428     571.6089   1422.65503     572.1428     571.6089
   1422.63977     570.7036     569.6445   1422.63977     570.7036     569.6445
   1422.62451     571.0459     568.2062   1422.62451     571.0459     568.2062
   1422.60925     571.3482     567.9341   1422.60925     571.3482     567.9341
   1422.59399     571.1666     566.5541   1422.59399     571.1666     566.5541
   1422.57874     572.0560     566.6776   1422.57874     572.0560     566.6776
   1422.56348     570.4930     565.5480   1422.56348     570.4930     565.5480
   1422.54822     570.3482     564.4937   1422.54822     570.3482     564.4937
   1422.53296     570.8342     563.8719   1422.53296     570.8342     563.8719
   1422.51770     570.6069     562.4685   1422.51770     570.6069     562.4685
   1422.50244     569.8090     562.4478   1422.50244     569.8090     562.4478
   1422.48718     569.9188     561.1607   1422.48718     569.9188     561.1607
   1422.47192     569.7347     560.1414   1422.47192     569.7347     560.1414
   1422.45667     568.6783     558.6023   1422.45667     568.6783     558.6023
   1422.44141     568.8098     557.7792   1422.44141     568.8098     557.7792
   1422.42615     568.4747     557.2660   1422.42615     568.4747     557.2660
   1422.41089     568.4207     556.0662   1422.41089     568.4207     556.0662
   1422.39563     569.0496     554.6748   1422.39563     569.0496     554.6748
   1422.38037     568.4170     553.8904   1422.38037     568.4170     553.8904
   1422.36511     568.4376     552.6176   1422.36511     568.4376     552.6176
   1422.34985     567.7665     552.0053   1422.34985     567.7665     552.0053
   1422.33459     568.3370     550.8071   1422.33459     568.3370     550.8071
   1422.31934     568.1461     550.2708   1422.31934     568.1461     550.2708
   1422.30408     567.7618     549.2473   1422.30408     567.7618     549.2473
   1422.28882     567.5980     548.1375   1422.28882     567.5980     548.1375
   1422.27356     567.0369     546.7342   1422.27356     567.0369     546.7342
   1422.25830     568.0076     545.5555   1422.25830     568.0076     545.5555
   1422.24304     569.1150     545.8516   1422.24304     569.1150     545.8516
   1422.22778     567.2607     543.9550   1422.22778     567.2607     543.9550
   1422.21252     566.3467     543.0872   1422.21252     566.3467     543.0872
   1422.19727     567.1795     542.0353   1422.19727     567.1795     542.0353
   1422.18201     565.8784     540.1765   1422.18201     565.8784     540.1765
   1422.16675     565.7467     539.3730   1422.16675     565.7467     539.3730
   1422.15149     566.0406     537.9092   1422.15149     566.0406     537.9092
   1422.13623     566.2151     537.6127   1422.13623     566.2151     537.6127
   1422.12097     566.8761     535.5700   1422.12097     566.8761     535.5700
   1422.10571     566.4409     535.7074   1422.10571     566.4409     535.7074
   1422.09045     566.0132     533.9445   1422.09045     566.0132     533.9445
   1422.07520     566.1129     532.4895   1422.07520     566.1129     532.4895
   1422.05994     565.8865     532.7573   1422.05994     565.8865     532.7573
   1422.04468     565.4921     530.2761   1422.04468     565.4921     530.2761
   1422.02942     565.0359     530.7731   1422.02942     565.0359     530.7731
   1422.01416     564.7073     528.9324   1422.01416     564.7073     528.9324
   1421.99890     564.1861     527.0043   1421.99890     564.1861     527.0043
   1421.98364     564.2537     526.1096   1421.98364     564.2537     526.1096
   1421.96838     564.1964     526.7213   1421.96838     564.1964     526.7213
   1421.95312     564.8464     523.6566   1421.95312     564.8464     523.6566
   1421.93787     565.1099     522.9230   1421.93787     565.1099     522.9230
   1421.92261     565.2416     522.1527   1421.92261     565.2416     522.1527
   1421.90735     563.7756     520.9636   1421.90735     563.7756     520.9636
   1421.89209     564.4774     519.9143   1421.89209     564.4774     519.9143
   1421.87683     564.4308     518.5284   1421.87683     564.4308     518.5284
   1421.86157     564.4218     517.1002   1421.86157     564.4218     517.1002
   1421.84631     564.6488     516.2396   1421.84631     564.6488     516.2396
   1421.83105     564.3361     515.0887   1421.83105     564.3361     515.0887
   1421.81580     564.2791     513.5525   1421.81580     564.2791     513.5525
   1421.80054     564.0247     513.6156   1421.80054     564.0247     513.6156
   1421.78528     563.3904     511.8519   1421.78528     563.3904     511.8519
   1421.77002     563.1434     511.2908   1421.77002     563.1434     511.2908
   1421.75476     562.9504     510.0490   1421.75476     562.9504     510.0490
   1421.73950     562.7100     509.1746   1421.73950     562.7100     509.1746
   1421.72424     563.0990     507.3468   1421.72424     563.0990     507.3468
   1421.70898     562.7781     506.5347   1421.70898     562.7781     506.5347
   1421.69373     563.2564     506.0667   1421.69373     563.2564     506.0667
   1421.67847     563.2100     504.0941   1421.67847     563.2100     504.0941
   1421.66321     562.9355     503.3209   1421.66321     562.9355     503.3209
   1421.64795     562.8482     501.9703   1421.64795     562.8482     501.9703
   1421.63269     562.5998     500.7051   1421.63269     562.5998     500.7051
   1421.61743     562.3626     500.3997   1421.61743     562.3626     500.3997
   1421.60217     563.0181     499.0154   1421.60217     563.0181     499.0154
   1421.58691     561.8712     497.5999   1421.58691     561.8712     497.5999
   1421.57166     562.2428     495.9903   1421.57166     562.2428     495.9903
   1421.55640     561.8044     495.3929   1421.55640     561.8044     495.3929
   1421.54114     561.2715     494.8502   1421.54114     561.2715     494.8502
   1421.52588     562.1099     493.6844   1421.52588     562.1099     493.6844
   1421.51062     561.6976     491.1672   1421.51062     561.6976     491.1672
   1421.49536     561.3416     491.1220   1421.49536     561.3416     491.1220
   1421.48010     561.4437     489.7424   1421.48010     561.4437     489.7424
   1421.46484     561.6522     488.8958   1421.46484     561.6522     488.8958
   1421.44958     561.0641     487.1484   1421.44958     561.0641     487.1484
   1421.43433     560.9930     486.7561   1421.43433     560.9930     486.7561
   1421.41907     560.6743     485.2570   1421.41907     560.6743     485.2570
   1421.40381     560.5876     484.8648   1421.40381     560.5876     484.8648
   1421.38855     560.9557     483.3950   1421.38855     560.9557     483.3950
   1421.37329     560.8229     481.8331   1421.37329     560.8229     481.8331
   1421.35803     560.8362     480.8579   1421.35803     560.8362     480.8579
   1421.34277     560.1783     479.0471   1421.34277     560.1783     479.0471
   1421.32751     560.5005     478.8103   1421.32751     560.5005     478.8103
   1421.31226     560.7208     478.6810   1421.31226     560.7208     478.6810
   1421.29700     559.7733     476.0499   1421.29700     559.7733     476.0499
   1421.28174     560.2427     474.8578   1421.28174     560.2427     474.8578
   1421.26648     560.3474     474.4481   1421.26648     560.3474     474.4481
   1421.25122     560.3282     473.0372   1421.25122     560.3282     473.0372
   1421.23596     560.2107     471.3719   1421.23596     560.2107     471.3719
   1421.22070     559.1853     470.6408   1421.22070     559.1853     470.6408
   1421.20544     560.2217     469.4308   1421.20544     560.2217     469.4308
   1421.19019     558.7466     469.6259   1421.19019     558.7466     469.6259
   1421.17493     559.7646     468.2345   1421.17493     559.7646     468.2345
   1421.15967     558.6386     467.0405   1421.15967     558.6386     467.0405
   1421.14441     559.0466     465.6479   1421.14441     559.0466     465.6479
   1421.12915     558.2562     464.2515   1421.12915     558.2562     464.2515
   1421.11389     558.7120     463.6945   1421.11389     558.7120     463.6945
   1421.09863     559.3215     463.1459   1421.09863     559.3215     463.1459
   1421.08337     558.9964     461.8687   1421.08337     558.9964     461.8687
   1421.06812     559.4603     461.5008   1421.06812     559.4603     461.5008
   1421.05286     558.7687     460.9506   1421.05286     558.7687     460.9506
   1421.03760     559.7256     458.7622   1421.03760     559.7256     458.7622
   1421.02234     559.6274     459.5772   1421.02234     559.6274     459.5772
   1421.00708     560.7418     459.4845   1421.00708     560.7418     459.4845
   1420.99182     562.5516     458.4870   1420.99182     562.5516     458.4870
   1420.97656     562.4943     459.0083   1420.97656     562.4943     459.0083
   1420.96130     564.2447     457.9927   1420.96130     564.2447     457.9927
   1420.94604     565.0663     458.9789   1420.94604     565.0663     458.9789
   1420.93079     566.8522     459.0830   1420.93079     566.8522     459.0830
   1420.91553     570.2190     460.3657   1420.91553     570.2190     460.3657
   1420.90027     575.0004     463.5074   1420.90027     575.0004     463.5074
   1420.88501     579.7330     466.9012   1420.88501     579.7330     466.9012
   1420.86975     582.5986     467.8257   1420.86975     582.5986     467.8257
   1420.85449     583.8747     467.9825   1420.85449     583.8747     467.9825
   1420.83923     588.0029     469.9482   1420.83923     588.0029     469.9482
   1420.82397     593.8187     474.3557   1420.82397     593.8187     474.3557
   1420.80872     608.0444     484.0051   1420.80872     608.0444     484.0051
   1420.79346     636.2827     505.0514   1420.79346     636.2827     505.0514
   1420.77820     697.9698     551.7725   1420.77820     697.9698     551.7725
   1420.76294     805.8521     634.4233   1420.76294     805.8521     634.4233
   1420.74768     896.7247     703.7548   1420.74768     896.7247     703.7548
   1420.73242    1035.8732     806.1544   1420.73242    1035.8732     806.1544
   1420.71716    1077.1554     837.7812   1420.71716    1077.1554     837.7812
   1420.70190    1007.0763     783.7792   1420.70190    1007.0763     783.7792
   1420.68665     915.5350     711.5733   1420.68665     915.5350     711.5733
   1420.67139     959.6384     745.0103   1420.67139     959.6384     745.0103
   1420.65613    1090.4872     843.7276   1420.65613    1090.4872     843.7276
   1420.64087    1210.6465     933.9159   1420.64087    1210.6465     933.9159
   1420.62561    1354.9475    1040.5790   1420.62561    1354.9475    1040.5790
   1420.61035    1467.2853    1123.5846   1420.61035    1467.2853    1123.5846
   1420.59509    1743.9198    1329.4512   1420.59509    1743.9198    1329.4512
   1420.57983    1942.4045    1475.0909   1420.57983    1942.4045    1475.0909
   1420.56458    1994.4647    1512.6473   1420.56458    1994.4647    1512.6473
   1420.54932    1978.7229    1498.2579   1420.54932    1978.7229    1498.2579
   1420.53406    1862.4788    1407.6393   1420.53406    1862.4788    1407.6393
   1420.51880    1569.2892    1186.2201   1420.51880    1569.2892    1186.2201
   1420.50354    1196.6368     906.5594   1420.50354    1196.6368     906.5594
   1420.48828    1075.1638     814.6199   1420.48828    1075.1638     814.6199
   1420.47302    1197.6064     902.9069   1420.47302    1197.6064     902.9069
   1420.45776    1397.7205    1049.6249   1420.45776    1397.7205    1049.6249
   1420.44250    1558.9397    1167.8107   1420.44250    1558.9397    1167.8107
   1420.42725    1425.5066    1067.3121   1420.42725    1425.5066    1067.3121
   1420.41199    1373.7566    1029.0864   1420.41199    1373.7566    1029.0864
   1420.39673    1417.8171    1061.3484   1420.39673    1417.8171    1061.3484
   1420.38147    1266.0948     944.2469   1420.38147    1266.0948     944.2469
   1420.36621     976.6943     730.1688   1420.36621     976.6943     730.1688
   1420.35095     683.4703     514.0912   1420.35095     683.4703     514.0912
   1420.33569     613.8651     461.8270   1420.33569     613.8651     461.8270
   1420.32043     590.0261     444.1452   1420.32043     590.0261     444.1452
   1420.30518     576.7501     434.5737   1420.30518     576.7501     434.5737
   1420.28992     568.3876     427.3976   1420.28992     568.3876     427.3976
   1420.27466     562.5046     423.3524   1420.27466     562.5046     423.3524
   1420.25940     560.4401     419.8833   1420.25940     560.4401     419.8833
   1420.24414     558.1122     418.1038   1420.24414     558.1122     418.1038
   1420.22888     556.3540     416.5641   1420.22888     556.3540     416.5641
   1420.21362     555.1559     415.5773   1420.21362     555.1559     415.5773
   1420.19836     554.3489     414.6160   1420.19836     554.3489     414.6160
   1420.18311     553.8555     411.9228   1420.18311     553.8555     411.9228
   1420.16785     552.4733     410.8674   1420.16785     552.4733     410.8674
   1420.15259     551.4165     410.2026   1420.15259     551.4165     410.2026
   1420.13733     550.6365     409.1095   1420.13733     550.6365     409.1095
   1420.12207     550.2089     407.9114   1420.12207     550.2089     407.9114
   1420.10681     549.9457     406.4499   1420.10681     549.9457     406.4499
   1420.09155     548.6425     406.2701   1420.09155     548.6425     406.2701
   1420.07629     548.8300     405.4958   1420.07629     548.8300     405.4958
   1420.06104     548.5479     404.8808   1420.06104     548.5479     404.8808
   1420.04578     547.7544     404.1465   1420.04578     547.7544     404.1465
   1420.03052     547.7428     403.6918   1420.03052     547.7428     403.6918
   1420.01526     549.5965     404.6933   1420.01526     549.5965     404.6933
   1420.00000     550.0280     405.1534   1420.00000     550.0280     405.1534
   1419.98474     550.4590     405.6135   1419.98474     550.4590     405.6135
   1419.96948     551.1302     402.2500   1419.96948     551.1302     402.2500
   1419.95422     548.3491     401.1791   1419.95422     548.3491     401.1791
   1419.93896     547.1791     400.5651   1419.93896     547.1791     400.5651
   1419.92371     547.3499     399.7348   1419.92371     547.3499     399.7348
   1419.90845     547.6736     399.2709   1419.90845     547.6736     399.2709
   1419.89319     547.9709     398.2556   1419.89319     547.9709     398.2556
   1419.87793     547.8251     398.4043   1419.87793     547.8251     398.4043
   1419.86267     547.5209     397.6750   1419.86267     547.5209     397.6750
   1419.84741     547.1122     397.4066   1419.84741     547.1122     397.4066
   1419.83215     548.3150     396.6978   1419.83215     548.3150     396.6978
   1419.81689     548.2115     396.1438   1419.81689     548.2115     396.1438
   1419.80164     547.6900     396.4747   1419.80164     547.6900     396.4747
   1419.78638     548.3381     395.7150   1419.78638     548.3381     395.7150
   1419.77112     548.1659     395.5476   1419.77112     548.1659     395.5476
   1419.75586     548.0540     394.7999   1419.75586     548.0540     394.7999
   1419.74060     547.7056     395.2349   1419.74060     547.7056     395.2349
   1419.72534     548.5355     394.9759   1419.72534     548.5355     394.9759
   1419.71008     548.4042     393.6878   1419.71008     548.4042     393.6878
   1419.69482     549.1781     393.8549   1419.69482     549.1781     393.8549
   1419.67957     549.0967     393.3344   1419.67957     549.0967     393.3344
   1419.66431     549.3019     393.4900   1419.66431     549.3019     393.4900
   1419.64905     549.0966     393.2148   1419.64905     549.0966     393.2148
   1419.63379     549.3814     393.5273   1419.63379     549.3814     393.5273
   1419.61853     549.8545     392.9654   1419.61853     549.8545     392.9654
   1419.60327     550.1754     392.5164   1419.60327     550.1754     392.5164
   1419.58801     550.4523     392.3404   1419.58801     550.4523     392.3404
   1419.57275     550.8459     392.8866   1419.57275     550.8459     392.8866
   1419.55750     550.6777     392.8931   1419.55750     550.6777     392.8931
   1419.54224     550.6720     392.1594   1419.54224     550.6720     392.1594
   1419.52698     550.3447     392.0846   1419.52698     550.3447     392.0846
   1419.51172     551.4642     391.8188   1419.51172     551.4642     391.8188
   1419.49646     551.3654     392.6470   1419.49646     551.3654     392.6470
   1419.48120     552.3845     391.9747   1419.48120     552.3845     391.9747
   1419.46594     551.1367     391.8981   1419.46594     551.1367     391.8981
   1419.45068     552.4255     391.2085   1419.45068     552.4255     391.2085
   1419.43542     551.4972     391.5340   1419.43542     551.4972     391.5340
   1419.42017     552.6376     391.7833   1419.42017     552.6376     391.7833
   1419.40491     553.2296     391.0916   1419.40491     553.2296     391.0916
   1419.38965     552.9185     391.2076   1419.38965     552.9185     391.2076
   1419.37439     552.9158     391.2722   1419.37439     552.9158     391.2722
   1419.35913     553.4952     391.1758   1419.35913     553.4952     391.1758
   1419.34387     554.2374     391.0631   1419.34387     554.2374     391.0631
   1419.32861     553.0250     391.1201   1419.32861     553.0250     391.1201
   1419.31335     554.5046     391.7489   1419.31335     554.5046     391.7489
   1419.29810     554.6841     391.0240   1419.29810     554.6841     391.0240
   1419.28284     555.2222     391.1516   1419.28284     555.2222     391.1516
   1419.26758     555.8368     392.0347   1419.26758     555.8368     392.0347
   1419.25232     556.5189     391.6982   1419.25232     556.5189     391.6982
   1419.23706     556.2753     391.4832   1419.23706     556.2753     391.4832
   1419.22180     556.1693     391.7503   1419.22180     556.1693     391.7503
   1419.20654     556.6205     391.8934   1419.20654     556.6205     391.8934
   1419.19128     556.8766     392.3274   1419.19128     556.8766     392.3274
   1419.17603     557.0853     392.6394   1419.17603     557.0853     392.6394
   1419.16077     557.2051     392.6862   1419.16077     557.2051     392.6862
   1419.14551     558.8709     391.8086   1419.14551     558.8709     391.8086
   1419.13025     558.6719     392.8531   1419.13025     558.6719     392.8531
   1419.11499     558.8173     392.5806   1419.11499     558.8173     392.5806
   1419.09973     560.0886     392.6073   1419.09973     560.0886     392.6073
   1419.08447     559.9097     392.8114   1419.08447     559.9097     392.8114
   1419.06921     560.4167     393.5717   1419.06921     560.4167     393.5717
   1419.05396     560.5121     394.2563   1419.05396     560.5121     394.2563
   1419.03870     561.3016     393.9736   1419.03870     561.3016     393.9736
   1419.02344     561.6122     393.7964   1419.02344     561.6122     393.7964
   1419.00818     561.5532     394.3161   1419.00818     561.5532     394.3161
   1418.99292     561.4116     394.4001   1418.99292     561.4116     394.4001
   1418.97766     562.9148     394.9365   1418.97766     562.9148     394.9365
   1418.96240     563.2732     394.9641   1418.96240     563.2732     394.9641
   1418.94714     563.5794     395.9341   1418.94714     563.5794     395.9341
   1418.93188     564.4787     395.7009   1418.93188     564.4787     395.7009
   1418.91663     564.4969     396.2224   1418.91663     564.4969     396.2224
   1418.90137     564.3972     396.4112   1418.90137     564.3972     396.4112
   1418.88611     565.1169     396.8698   1418.88611     565.1169     396.8698
   1418.87085     566.1082     397.2087   1418.87085     566.1082     397.2087
   1418.85559     566.0251     397.1017   1418.85559     566.0251     397.1017
   1418.84033     567.2827     398.0013   1418.84033     567.2827     398.0013
   1418.82507     567.2898     398.4086   1418.82507     567.2898     398.4086
   1418.80981     567.8287     398.9302   1418.80981     567.8287     398.9302
   1418.79456     568.4297     399.2477   1418.79456     568.4297     399.2477
   1418.77930     568.9512     400.3172   1418.77930     568.9512     400.3172
   1418.76404     568.8603     400.5755   1418.76404     568.8603     400.5755
   1418.74878     568.8584     400.6404   1418.74878     568.8584     400.6404
   1418.73352     570.2667     400.2769   1418.73352     570.2667     400.2769
   1418.71826     571.8039     401.9161   1418.71826     571.8039     401.9161
   1418.70300     571.1261     401.9126   1418.70300     571.1261     401.9126
   1418.68774     571.1476     403.0389   1418.68774     571.1476     403.0389
   1418.67249     572.0624     403.6800   1418.67249     572.0624     403.6800
   1418.65723     573.7708     403.5171   1418.65723     573.7708     403.5171
   1418.64197     572.5681     404.4298   1418.64197     572.5681     404.4298
   1418.62671     574.3718     404.8363   1418.62671     574.3718     404.8363
   1418.61145     574.6330     405.3571   1418.61145     574.6330     405.3571
   1418.59619     574.5371     405.6662   1418.59619     574.5371     405.6662
   1418.58093     575.2213     407.1230   1418.58093     575.2213     407.1230
   1418.56567     575.8518     407.0112   1418.56567     575.8518     407.0112
   1418.55042     577.2137     407.9409   1418.55042     577.2137     407.9409
   1418.53516     577.2728     408.1726   1418.53516     577.2728     408.1726
   1418.51990     577.5159     409.1913   1418.51990     577.5159     409.1913
   1418.50464     578.3907     409.5626   1418.50464     578.3907     409.5626
   1418.48938     578.8560     410.2261   1418.48938     578.8560     410.2261
   1418.47412     580.0770     411.1641   1418.47412     580.0770     411.1641
   1418.45886     579.9534     411.6880   1418.45886     579.9534     411.6880
   1418.44360     580.7305     412.4435   1418.44360     580.7305     412.4435
   1418.42834     580.3979     413.1870   1418.42834     580.3979     413.1870
   1418.41309     582.1388     414.3522   1418.41309     582.1388     414.3522
   1418.39783     582.4589     414.5652   1418.39783     582.4589     414.5652
   1418.38257     583.7603     415.2556   1418.38257     583.7603     415.2556
   1418.36731     583.8025     416.2728   1418.36731     583.8025     416.2728
   1418.35205     584.3144     417.1082   1418.35205     584.3144     417.1082
   1418.33679     584.8373     417.7781   1418.33679     584.8373     417.7781
   1418.32153     586.5924     417.8644   1418.32153     586.5924     417.8644
   1418.30627     586.5587     419.0133   1418.30627     586.5587     419.0133
   1418.29102     586.5165     420.0229   1418.29102     586.5165     420.0229
   1418.27576     587.4862     421.2683   1418.27576     587.4862     421.2683
   1418.26050     588.8855     421.5563   1418.26050     588.8855     421.5563
   1418.24524     589.7068     422.9559   1418.24524     589.7068     422.9559
   1418.22998     590.2327     422.9858   1418.22998     590.2327     422.9858
   1418.21472     591.0499     424.4222   1418.21472     591.0499     424.4222
   1418.19946     591.0340     425.7359   1418.19946     591.0340     425.7359
   1418.18420     591.8359     425.8503   1418.18420     591.8359     425.8503
   1418.16895     592.9229     426.0896   1418.16895     592.9229     426.0896
   1418.15369     593.5366     427.2497   1418.15369     593.5366     427.2497
   1418.13843     594.5202     428.5815   1418.13843     594.5202     428.5815
   1418.12317     594.3000     429.4193   1418.12317     594.3000     429.4193
   1418.10791     596.2755     430.3243   1418.10791     596.2755     430.3243
   1418.09265     596.8588     431.4006   1418.09265     596.8588     431.4006
   1418.07739     596.3167     432.7804   1418.07739     596.3167     432.7804
   1418.06213     597.9447     432.4263   1418.06213     597.9447     432.4263
   1418.04688     598.6470     434.0121   1418.04688     598.6470     434.0121
   1418.03162     600.1656     434.6936   1418.03162     600.1656     434.6936
   1418.01636     598.8148     435.7487   1418.01636     598.8148     435.7487
   1418.00110     601.2722     437.3735   1418.00110     601.2722     437.3735
   1417.98584     600.9310     437.8476   1417.98584     600.9310     437.8476
   1417.97058     601.6386     438.5993   1417.97058     601.6386     438.5993
   1417.95532     603.3381     439.8793   1417.95532     603.3381     439.8793
   1417.94006     603.5712     440.7352   1417.94006     603.5712     440.7352
   1417.92480     603.2703     441.4781   1417.92480     603.2703     441.4781
   1417.90955     605.4208     443.1940   1417.90955     605.4208     443.1940
   1417.89429     605.9962     443.4113   1417.89429     605.9962     443.4113
   1417.87903     605.7521     444.9629   1417.87903     605.7521     444.9629
   1417.86377     607.2612     445.7567   1417.86377     607.2612     445.7567
   1417.84851     606.9567     446.5382   1417.84851     606.9567     446.5382
   1417.83325     608.9486     448.2321   1417.83325     608.9486     448.2321
   1417.81799     609.3779     448.8169   1417.81799     609.3779     448.8169
   1417.80273     609.2906     449.0272   1417.80273     609.2906     449.0272
   1417.78748     610.8573     451.3292   1417.78748     610.8573     451.3292
   1417.77222     611.2072     452.1266   1417.77222     611.2072     452.1266
   1417.75696     612.8044     453.0941   1417.75696     612.8044     453.0941
   1417.74170     611.9163     454.3629   1417.74170     611.9163     454.3629
   1417.72644     613.8860     454.8997   1417.72644     613.8860     454.8997
   1417.71118     614.6268     456.5896   1417.71118     614.6268     456.5896
   1417.69592     615.5985     458.3456   1417.69592     615.5985     458.3456
   1417.68066     616.4852     458.9819   1417.68066     616.4852     458.9819
   1417.66541     617.3554     459.7854   1417.66541     617.3554     459.7854
   1417.65015     617.1223     461.2635   1417.65015     617.1223     461.2635
   1417.63489     617.8538     462.5751   1417.63489     617.8538     462.5751
   1417.61963     619.2027     462.5439   1417.61963     619.2027     462.5439
   1417.60437     619.3878     464.4014   1417.60437     619.3878     464.4014
   1417.58911     621.0475     465.5616   1417.58911     621.0475     465.5616
   1417.57385     621.5497     466.1322   1417.57385     621.5497     466.1322
   1417.55859     621.4147     467.7852   1417.55859     621.4147     467.7852
   1417.54333     622.5417     469.9394   1417.54333     622.5417     469.9394
   1417.52808     623.1518     470.7521   1417.52808     623.1518     470.7521
   1417.51282     623.4600     472.1378   1417.51282     623.4600     472.1378
   1417.49756     624.5045     472.5957   1417.49756     624.5045     472.5957
   1417.48230     625.3347     473.6798   1417.48230     625.3347     473.6798
   1417.46704     624.8995     474.5322   1417.46704     624.8995     474.5322
   1417.45178     627.0652     475.6390   1417.45178     627.0652     475.6390
   1417.43652     627.7643     477.3937   1417.43652     627.7643     477.3937
   1417.42126     628.1003     478.4663   1417.42126     628.1003     478.4663
   1417.40601     627.4484     479.0891   1417.40601     627.4484     479.0891
   1417.39075     629.1738     480.4855   1417.39075     629.1738     480.4855
   1417.37549     630.2798     481.7336   1417.37549     630.2798     481.7336
   1417.36023     630.1900     483.3214   1417.36023     630.1900     483.3214
   1417.34497     630.7487     485.0044   1417.34497     630.7487     485.0044
   1417.32971     631.9761     485.2302   1417.32971     631.9761     485.2302
   1417.31445     632.4780     486.5733   1417.31445     632.4780     486.5733
   1417.29919     633.3806     487.7764   1417.29919     633.3806     487.7764
   1417.28394     634.6470     489.0749   1417.28394     634.6470     489.0749
   1417.26868     633.8079     489.7869   1417.26868     633.8079     489.7869
   1417.25342     634.6514     491.9677   1417.25342     634.6514     491.9677
   1417.23816     634.7621     492.8271   1417.23816     634.7621     492.8271
   1417.22290     638.2999     494.0096   1417.22290     638.2999     494.0096
   1417.20764     635.9246     495.4702   1417.20764     635.9246     495.4702
   1417.19238     637.1110     496.1447   1417.19238     637.1110     496.1447
   1417.17712     636.9693     496.9613   1417.17712     636.9693     496.9613
   1417.16187     637.9831     498.9680   1417.16187     637.9831     498.9680
   1417.14661     637.8152     499.8240   1417.14661     637.8152     499.8240
   1417.13135     639.0667     501.0320   1417.13135     639.0667     501.0320
   1417.11609     639.3522     501.9073   1417.11609     639.3522     501.9073
   1417.10083     640.9565     503.0799   1417.10083     640.9565     503.0799
   1417.08557     640.2050     504.5229   1417.08557     640.2050     504.5229
   1417.07031     640.8514     504.6238   1417.07031     640.8514     504.6238
   1417.05505     640.8338     506.8427   1417.05505     640.8338     506.8427
   1417.03979     640.8494     508.0385   1417.03979     640.8494     508.0385
   1417.02454     642.6166     508.5933   1417.02454     642.6166     508.5933
   1417.00928     642.6013     509.3621   1417.00928     642.6013     509.3621
   1416.99402     643.5269     510.1981   1416.99402     643.5269     510.1981
   1416.97876     643.8964     511.8851   1416.97876     643.8964     511.8851
   1416.96350     644.9296     512.9620   1416.96350     644.9296     512.9620
   1416.94824     644.3817     513.5717   1416.94824     644.3817     513.5717
   1416.93298     644.2321     514.8060   1416.93298     644.2321     514.8060
   1416.91772     646.0933     516.0175   1416.91772     646.0933     516.0175
   1416.90247     645.3177     518.1379   1416.90247     645.3177     518.1379
   1416.88721     646.5807     517.8103   1416.88721     646.5807     517.8103
   1416.87195     645.5354     518.6155   1416.87195     645.5354     518.6155
   1416.85669     646.8405     520.2614   1416.85669     646.8405     520.2614
   1416.84143     645.6386     520.2906   1416.84143     645.6386     520.2906
   1416.82617     645.9299     521.4734   1416.82617     645.9299     521.4734
   1416.81091     647.0754     523.4257   1416.81091     647.0754     523.4257
   1416.79565     649.0280     524.0956   1416.79565     649.0280     524.0956
   1416.78040     646.9425     524.8700   1416.78040     646.9425     524.8700
   1416.76514     648.1686     526.3154   1416.76514     648.1686     526.3154
   1416.74988     648.2484     526.4801   1416.74988     648.2484     526.4801
   1416.73462     647.8943     526.8093   1416.73462     647.8943     526.8093
   1416.71936     648.9589     528.2313   1416.71936     648.9589     528.2313
   1416.70410     648.7600     527.7511   1416.70410     648.7600     527.7511
   1416.68884     648.2867     529.0048   1416.68884     648.2867     529.0048
   1416.67358     648.6562     530.2144   1416.67358     648.6562     530.2144
   1416.65833     649.0455     530.2332   1416.65833     649.0455     530.2332
   1416.64307     648.3301     531.9506   1416.64307     648.3301     531.9506
   1416.62781     648.1760     531.5153   1416.62781     648.1760     531.5153
   1416.61255     649.6824     532.1892   1416.61255     649.6824     532.1892
   1416.59729     649.8945     533.7029   1416.59729     649.8945     533.7029
   1416.58203     648.9989     533.4620   1416.58203     648.9989     533.4620
   1416.56677     648.9483     535.5458   1416.56677     648.9483     535.5458
   1416.55151     649.0028     535.2347   1416.55151     649.0028     535.2347
   1416.53625     648.5204     534.8942   1416.53625     648.5204     534.8942
   1416.52100     649.0189     536.8262   1416.52100     649.0189     536.8262
   1416.50574     649.6607     536.5580   1416.50574     649.6607     536.5580
   1416.49048     648.2480     535.9355   1416.49048     648.2480     535.9355
   1416.47522     648.3736     537.3246   1416.47522     648.3736     537.3246
   1416.45996     648.1049     538.1729   1416.45996     648.1049     538.1729
   1416.44470     648.3150     538.1434   1416.44470     648.3150     538.1434
   1416.42944     648.6672     538.1189   1416.42944     648.6672     538.1189
   1416.41418     648.9059     539.7105   1416.41418     648.9059     539.7105
   1416.39893     647.7595     538.4615   1416.39893     647.7595     538.4615
   1416.38367     647.2722     540.1370   1416.38367     647.2722     540.1370
   1416.36841     647.0241     540.0531   1416.36841     647.0241     540.0531
   1416.35315     647.5881     540.5398   1416.35315     647.5881     540.5398
   1416.33789     646.6390     540.1931   1416.33789     646.6390     540.1931
   1416.32263     647.1045     540.3444   1416.32263     647.1045     540.3444
   1416.30737     646.1717     540.8360   1416.30737     646.1717     540.8360
   1416.29211     646.1260     540.4181   1416.29211     646.1260     540.4181
   1416.27686     645.3845     541.4682   1416.27686     645.3845     541.4682
   1416.26160     646.3422     541.7159   1416.26160     646.3422     541.7159
   1416.24634     644.8153     540.7419   1416.24634     644.8153     540.7419
   1416.23108     645.0041     541.8576   1416.23108     645.0041     541.8576
   1416.21582     643.9359     542.3575   1416.21582     643.9359     542.3575
   1416.20056     643.0562     541.2284   1416.20056     643.0562     541.2284
   1416.18530     643.5209     541.1381   1416.18530     643.5209     541.1381
   1416.17004     642.7244     541.5873   1416.17004     642.7244     541.5873
   1416.15479     642.3215     541.6602   1416.15479     642.3215     541.6602
   1416.13953     641.8984     542.1245   1416.13953     641.8984     542.1245
   1416.12427     641.2500     541.7216   1416.12427     641.2500     541.7216
   1416.10901     640.4753     541.1493   1416.10901     640.4753     541.1493
   1416.09375     641.0351     541.2493   1416.09375     641.0351     541.2493
   1416.07849     639.9097     541.1519   1416.07849     639.9097     541.1519
   1416.06323     639.5053     540.9412   1416.06323     639.5053     540.9412
   1416.04797     638.4278     540.4081   1416.04797     638.4278     540.4081
   1416.03271     639.0319     540.4483   1416.03271     639.0319     540.4483
   1416.01746     637.8405     540.0952   1416.01746     637.8405     540.0952
   1416.00220     637.1620     540.2068   1416.00220     637.1620     540.2068
   1415.98694     637.4866     540.0220   1415.98694     637.4866     540.0220
   1415.97168     636.1551     539.6489   1415.97168     636.1551     539.6489
   1415.95642     634.8043     539.5594   1415.95642     634.8043     539.5594
   1415.94116     633.5443     539.2940   1415.94116     633.5443     539.2940
   1415.92590     633.9272     538.5232   1415.92590     633.9272     538.5232
   1415.91064     633.6369     538.9307   1415.91064     633.6369     538.9307
   1415.89539     634.2740     538.4487   1415.89539     634.2740     538.4487
   1415.88013     632.2983     537.6350   1415.88013     632.2983     537.6350
   1415.86487     631.9161     537.1278   1415.86487     631.9161     537.1278
   1415.84961     631.6957     537.9194   1415.84961     631.6957     537.9194
   1415.83435     631.5541     538.1862   1415.83435     631.5541     538.1862
   1415.81909     629.8994     535.8839   1415.81909     629.8994     535.8839
   1415.80383     630.4029     536.5460   1415.80383     630.4029     536.5460
   1415.78857     628.7079     535.7695   1415.78857     628.7079     535.7695
   1415.77332     627.9808     535.2523   1415.77332     627.9808     535.2523
   1415.75806     626.0518     535.0818   1415.75806     626.0518     535.0818
   1415.74280     625.9716     534.9662   1415.74280     625.9716     534.9662
   1415.72754     625.0286     534.1718   1415.72754     625.0286     534.1718
   1415.71228     625.2620     534.1389   1415.71228     625.2620     534.1389
   1415.69702     624.5035     534.2335   1415.69702     624.5035     534.2335
   1415.68176     624.2270     533.6719   1415.68176     624.2270     533.6719
   1415.66650     621.7644     532.5195   1415.66650     621.7644     532.5195
   1415.65125     621.1419     532.4622   1415.65125     621.1419     532.4622
   1415.63599     621.3828     531.6000   1415.63599     621.3828     531.6000
   1415.62073     619.7547     531.6059   1415.62073     619.7547     531.6059
   1415.60547     619.0635     530.3141   1415.60547     619.0635     530.3141
   1415.59021     618.7319     529.8614   1415.59021     618.7319     529.8614
   1415.57495     617.9634     530.6164   1415.57495     617.9634     530.6164
   1415.55969     616.7841     528.5148   1415.55969     616.7841     528.5148
   1415.54443     616.2182     528.5088   1415.54443     616.2182     528.5088
   1415.52917     614.9885     528.1958   1415.52917     614.9885     528.1958
   1415.51392     614.5172     527.2659   1415.51392     614.5172     527.2659
   1415.49866     613.6306     526.6431   1415.49866     613.6306     526.6431
   1415.48340     613.5586     526.8832   1415.48340     613.5586     526.8832
   1415.46814     612.0178     525.3653   1415.46814     612.0178     525.3653
   1415.45288     612.7022     526.3730   1415.45288     612.7022     526.3730
   1415.43762     610.4535     524.5629   1415.43762     610.4535     524.5629
   1415.42236     608.5363     524.1809   1415.42236     608.5363     524.1809
   1415.40710     607.6290     523.4831   1415.40710     607.6290     523.4831
   1415.39185     607.1143     522.9860   1415.39185     607.1143     522.9860
   1415.37659     606.4686     522.0823   1415.37659     606.4686     522.0823
   1415.36133     605.7599     522.1092   1415.36133     605.7599     522.1092
   1415.34607     604.8436     520.5688   1415.34607     604.8436     520.5688
   1415.33081     603.1282     520.3274   1415.33081     603.1282     520.3274
   1415.31555     602.7610     519.5446   1415.31555     602.7610     519.5446
   1415.30029     601.7424     518.5353   1415.30029     601.7424     518.5353
   1415.28503     600.8738     518.0886   1415.28503     600.8738     518.0886
   1415.26978     598.5603     517.2815   1415.26978     598.5603     517.2815
   1415.25452     598.9438     516.0743   1415.25452     598.9438     516.0743
   1415.23926     597.5344     517.1832   1415.23926     597.5344     517.1832
   1415.22400     595.2981     515.3383   1415.22400     595.2981     515.3383
   1415.20874     594.4765     515.1052   1415.20874     594.4765     515.1052
   1415.19348     592.9860     513.5674   1415.19348     592.9860     513.5674
   1415.17822     594.6044     513.3427   1415.17822     594.6044     513.3427
   1415.16296     591.1218     512.5915   1415.16296     591.1218     512.5915
   1415.14771     590.7115     512.1934   1415.14771     590.7115     512.1934
   1415.13245     589.4137     510.9882   1415.13245     589.4137     510.9882
   1415.11719     588.3987     509.8909   1415.11719     588.3987     509.8909
   1415.10193     586.5380     508.8575   1415.10193     586.5380     508.8575
   1415.08667     587.1983     509.0891   1415.08667     587.1983     509.0891
   1415.07141     585.4332     508.5584   1415.07141     585.4332     508.5584
   1415.05615     583.1964     507.2790   1415.05615     583.1964     507.2790
   1415.04089     582.6651     506.4257   1415.04089     582.6651     506.4257
   1415.02563     580.6309     506.0335   1415.02563     580.6309     506.0335
   1415.01038     580.4566     504.8099   1415.01038     580.4566     504.8099
   1414.99512     577.6868     504.7037   1414.99512     577.6868     504.7037
   1414.97986     576.9694     503.2740   1414.97986     576.9694     503.2740
   1414.96460     575.9078     501.4160   1414.96460     575.9078     501.4160
   1414.94934     574.2088     501.0082   1414.94934     574.2088     501.0082
   1414.93408     572.9124     500.1220   1414.93408     572.9124     500.1220
   1414.91882     571.9719     498.7487   1414.91882     571.9719     498.7487
   1414.90356     570.7772     498.5551   1414.90356     570.7772     498.5551
   1414.88831     568.5925     498.0118   1414.88831     568.5925     498.0118
   1414.87305     568.4514     496.6032   1414.87305     568.4514     496.6032
   1414.85779     566.9037     495.0938   1414.85779     566.9037     495.0938
   1414.84253     564.9777     494.4827   1414.84253     564.9777     494.4827
   1414.82727     564.7793     493.1529   1414.82727     564.7793     493.1529
   1414.81201     561.6472     492.4059   1414.81201     561.6472     492.4059
   1414.79675     560.1825     490.9441   1414.79675     560.1825     490.9441
   1414.78149     558.4857     490.7960   1414.78149     558.4857     490.7960
   1414.76624     557.8568     488.5994   1414.76624     557.8568     488.5994
   1414.75098     557.1956     488.4628   1414.75098     557.1956     488.4628
   1414.73572     555.6583     487.0201   1414.73572     555.6583     487.0201
   1414.72046     553.0940     485.8781   1414.72046     553.0940     485.8781
   1414.70520     551.6927     484.7759   1414.70520     551.6927     484.7759
   1414.68994     550.9962     483.1560   1414.68994     550.9962     483.1560
   1414.67468     548.7610     482.5318   1414.67468     548.7610     482.5318
   1414.65942     547.3790     481.6570   1414.65942     547.3790     481.6570
   1414.64417     546.5169     480.5341   1414.64417     546.5169     480.5341
   1414.62891     543.8030     479.0371   1414.62891     543.8030     479.0371
   1414.61365     542.4971     477.6812   1414.61365     542.4971     477.6812
   1414.59839     540.3212     477.5555   1414.59839     540.3212     477.5555
   1414.58313     539.2346     475.6083   1414.58313     539.2346     475.6083
   1414.56787     537.8167     475.3282   1414.56787     537.8167     475.3282
   1414.55261     535.4645     473.4672   1414.55261     535.4645     473.4672
   1414.53735     533.8940     472.1293   1414.53735     533.8940     472.1293
   1414.52209     531.4523     471.1504   1414.52209     531.4523     471.1504
   1414.50684     531.3364     469.7843   1414.50684     531.3364     469.7843
   1414.49158     527.9964     468.3654   1414.49158     527.9964     468.3654
   1414.47632     526.9642     466.6839   1414.47632     526.9642     466.6839
   1414.46106     525.0421     465.8129   1414.46106     525.0421     465.8129
   1414.44580     523.6309     464.1411   1414.44580     523.6309     464.1411
   1414.43054     521.6377     463.2804   1414.43054     521.6377     463.2804
   1414.41528     520.2076     461.6744   1414.41528     520.2076     461.6744
   1414.40002     518.3826     460.7532   1414.40002     518.3826     460.7532
   1414.38477     516.4653     459.6725   1414.38477     516.4653     459.6725
   1414.36951     514.7068     457.6891   1414.36951     514.7068     457.6891
   1414.35425     511.5019     455.5627   1414.35425     511.5019     455.5627
   1414.33899     510.8268     454.2176   1414.33899     510.8268     454.2176
   1414.32373     507.6347     452.9672   1414.32373     507.6347     452.9672
   1414.30847     507.5164     452.5875   1414.30847     507.5164     452.5875
   1414.29321     504.6484     450.5051   1414.29321     504.6484     450.5051
   1414.27795     502.4142     449.1447   1414.27795     502.4142     449.1447
   1414.26270     501.9883     447.1906   1414.26270     501.9883     447.1906
   1414.24744     499.7709     445.9299   1414.24744     499.7709     445.9299
   1414.23218     497.4531     444.3241   1414.23218     497.4531     444.3241
   1414.21692     494.8658     444.0480   1414.21692     494.8658     444.0480
   1414.20166     491.6221     441.6371   1414.20166     491.6221     441.6371
   1414.18640     491.6195     440.6699   1414.18640     491.6195     440.6699
   1414.17114     488.5968     438.4346   1414.17114     488.5968     438.4346
   1414.15588     486.9266     437.3931   1414.15588     486.9266     437.3931
   1414.14062     485.6119     435.9849   1414.14062     485.6119     435.9849
   1414.12537     483.3265     433.5719   1414.12537     483.3265     433.5719
   1414.11011     480.8096     433.3792   1414.11011     480.8096     433.3792
   1414.09485     478.1510     431.2907   1414.09485     478.1510     431.2907
   1414.07959     476.4654     429.4727   1414.07959     476.4654     429.4727
   1414.06433     474.4203     427.9020   1414.06433     474.4203     427.9020
   1414.04907     472.8007     425.9545   1414.04907     472.8007     425.9545
   1414.03381     470.1549     424.9572   1414.03381     470.1549     424.9572
   1414.01855     468.6279     423.9653   1414.01855     468.6279     423.9653
   1414.00330     494.8496     430.2324   1414.00330     494.8496     430.2324
   1413.98804     466.3012     420.2269   1413.98804     466.3012     420.2269
   1413.97278     462.6114     418.4422   1413.97278     462.6114     418.4422
   1413.95752     459.6089     416.8760   1413.95752     459.6089     416.8760
   1413.94226     457.2112     414.6020   1413.94226     457.2112     414.6020
   1413.92700     455.5006     413.7236   1413.92700     455.5006     413.7236
   1413.91174     453.4766     412.8913   1413.91174     453.4766     412.8913
   1413.89648     450.6543     409.6873   1413.89648     450.6543     409.6873
   1413.88123     448.4212     408.4951   1413.88123     448.4212     408.4951
   1413.86597     447.2227     407.2704   1413.86597     447.2227     407.2704
   1413.85071     444.8184     405.0429   1413.85071     444.8184     405.0429
   1413.83545     441.9473     403.6567   1413.83545     441.9473     403.6567
   1413.82019     439.4964     401.3012   1413.82019     439.4964     401.3012
   1413.80493     437.1597     400.3574   1413.80493     437.1597     400.3574
   1413.78967     436.1014     398.4315   1413.78967     436.1014     398.4315
   1413.77441     432.7852     396.8569   1413.77441     432.7852     396.8569
   1413.75916     430.8300     394.6187   1413.75916     430.8300     394.6187
   1413.74390     428.3897     393.6201   1413.74390     428.3897     393.6201
   1413.72864     426.2464     391.7535   1413.72864     426.2464     391.7535
   1413.71338     424.1434     390.3419   1413.71338     424.1434     390.3419
   1413.69812     421.9961     388.1092   1413.69812     421.9961     388.1092
   1413.68286     419.9073     385.7891   1413.68286     419.9073     385.7891
   1413.66760     417.7588     384.7921   1413.66760     417.7588     384.7921
   1413.65234     415.6507     382.8599   1413.65234     415.6507     382.8599
   1413.63708     413.5212     381.6133   1413.63708     413.5212     381.6133
   1413.62183     410.8608     379.4297   1413.62183     410.8608     379.4297
   1413.60657     408.2301     378.0348   1413.60657     408.2301     378.0348
   1413.59131     406.8136     376.7076   1413.59131     406.8136     376.7076
   1413.57605     404.5281     374.8952   1413.57605     404.5281     374.8952
   1413.56079     402.5891     373.3547   1413.56079     402.5891     373.3547
   1413.54553     400.7169     371.8800   1413.54553     400.7169     371.8800
   1413.53027     397.9615     370.1248   1413.53027     397.9615     370.1248
   1413.51501     395.1654     368.7174   1413.51501     395.1654     368.7174
   1413.49976     393.9016     366.5680   1413.49976     393.9016     366.5680
   1413.48450     391.0253     364.8869   1413.48450     391.0253     364.8869
   1413.46924     389.0474     364.0295   1413.46924     389.0474     364.0295
   1413.45398     386.8278     362.7369   1413.45398     386.8278     362.7369
   1413.43872     384.2165     360.2559   1413.43872     384.2165     360.2559
   1413.42346     382.1664     359.0475   1413.42346     382.1664     359.0475
   1413.40820     380.7101     357.5123   1413.40820     380.7101     357.5123
   1413.39294     378.4572     355.8441   1413.39294     378.4572     355.8441
   1413.37769     376.3271     354.0907   1413.37769     376.3271     354.0907
   1413.36243     374.5358     352.4723   1413.36243     374.5358     352.4723
   1413.34717     372.5477     351.0662   1413.34717     372.5477     351.0662
   1413.33191     370.1373     350.0243   1413.33191     370.1373     350.0243
   1413.31665     368.6212     348.2319   1413.31665     368.6212     348.2319
   1413.30139     366.1494     346.7162   1413.30139     366.1494     346.7162
   1413.28613     364.0382     344.9337   1413.28613     364.0382     344.9337
   1413.27087     362.3383     343.3148   1413.27087     362.3383     343.3148
   1413.25562     360.0345     342.6009   1413.25562     360.0345     342.6009
   1413.24036     358.2941     341.0062   1413.24036     358.2941     341.0062
   1413.22510     355.9253     340.5434   1413.22510     355.9253     340.5434
   1413.20984     353.9850     338.0483   1413.20984     353.9850     338.0483
   1413.19458     351.7907     337.4387   1413.19458     351.7907     337.4387
   1413.17932     350.4467     336.2154   1413.17932     350.4467     336.2154
   1413.16406     348.7336     334.9998   1413.16406     348.7336     334.9998
   1413.14880     346.6546     333.5241   1413.14880     346.6546     333.5241
   1413.13354     345.3285     332.5617   1413.13354     345.3285     332.5617
   1413.11829     343.3608     331.0307   1413.11829     343.3608     331.0307
   1413.10303     341.4506     329.5295   1413.10303     341.4506     329.5295
   1413.08777     339.8399     328.6171   1413.08777     339.8399     328.6171
   1413.07251     338.1310     327.5323   1413.07251     338.1310     327.5323
   1413.05725     336.3566     327.3346   1413.05725     336.3566     327.3346
   1413.04199     334.6632     325.1609   1413.04199     334.6632     325.1609
   1413.02673     333.5866     324.2672   1413.02673     333.5866     324.2672
   1413.01147     331.0012     323.2236   1413.01147     331.0012     323.2236
   1412.99622     329.3070     322.4171   1412.99622     329.3070     322.4171
   1412.98096     327.9459     321.8011   1412.98096     327.9459     321.8011
   1412.96570     326.6242     320.9441   1412.96570     326.6242     320.9441
   1412.95044     325.4901     320.1912   1412.95044     325.4901     320.1912
   1412.93518     323.6721     319.0923   1412.93518     323.6721     319.0923
   1412.91992     322.1883     318.6068   1412.91992     322.1883     318.6068
   1412.90466     320.9673     317.1533   1412.90466     320.9673     317.1533
   1412.88940     319.6263     316.7542   1412.88940     319.6263     316.7542
   1412.87415     318.3366     316.3624   1412.87415     318.3366     316.3624
   1412.85889     316.9134     315.6300   1412.85889     316.9134     315.6300
   1412.84363     315.6229     314.7068   1412.84363     315.6229     314.7068
   1412.82837     314.3260     314.2346   1412.82837     314.3260     314.2346
   1412.81311     312.8158     313.7424   1412.81311     312.8158     313.7424
   1412.79785     311.7575     313.1327   1412.79785     311.7575     313.1327
   1412.78259     311.1230     313.3118   1412.78259     311.1230     313.3118
   1412.76733     310.1831     312.9028   1412.76733     310.1831     312.9028
   1412.75208     308.2704     312.6306   1412.75208     308.2704     312.6306
   1412.73682     307.8053     312.1385   1412.73682     307.8053     312.1385
   1412.72156     306.8403     311.7689   1412.72156     306.8403     311.7689
   1412.70630     305.4840     311.5420   1412.70630     305.4840     311.5420
   1412.69104     304.7494     311.3575   1412.69104     304.7494     311.3575
   1412.67578     303.8202     311.0172   1412.67578     303.8202     311.0172
   1412.66052     303.3319     311.0425   1412.66052     303.3319     311.0425
   1412.64526     301.9576     310.7566   1412.64526     301.9576     310.7566
   1412.63000     301.6427     310.8251   1412.63000     301.6427     310.8251
   1412.61475     300.8532     310.8827   1412.61475     300.8532     310.8827
   1412.59949     300.0262     310.8569   1412.59949     300.0262     310.8569
   1412.58423     299.4892     311.3562   1412.58423     299.4892     311.3562
   1412.56897     298.7606     311.1822   1412.56897     298.7606     311.1822
   1412.55371     298.8735     311.5999   1412.55371     298.8735     311.5999
   1412.53845     298.4655     312.1568   1412.53845     298.4655     312.1568
   1412.52319     297.3183     312.3264   1412.52319     297.3183     312.3264
   1412.50793     296.8132     312.5597   1412.50793     296.8132     312.5597
   1412.49268     296.5364     312.9197   1412.49268     296.5364     312.9197
   1412.47742     296.0117     313.4888   1412.47742     296.0117     313.4888
   1412.46216     296.0961     313.5482   1412.46216     296.0961     313.5482
   1412.44690     295.3844     313.8673   1412.44690     295.3844     313.8673
   1412.43164     295.5456     314.6580   1412.43164     295.5456     314.6580
   1412.41638     295.3494     315.1963   1412.41638     295.3494     315.1963
   1412.40112     295.3802     316.0911   1412.40112     295.3802     316.0911
   1412.38586     294.6836     316.5246   1412.38586     294.6836     316.5246
   1412.37061     295.3870     318.1435   1412.37061     295.3870     318.1435
   1412.35535     294.9948     318.4330   1412.35535     294.9948     318.4330
   1412.34009     294.7059     319.2137   1412.34009     294.7059     319.2137
   1412.32483     294.7030     319.8053   1412.32483     294.7030     319.8053
   1412.30957     294.8468     321.3382   1412.30957     294.8468     321.3382
   1412.29431     295.0045     321.5372   1412.29431     295.0045     321.5372
   1412.27905     294.7284     323.4622   1412.27905     294.7284     323.4622
   1412.26379     296.0399     324.2849   1412.26379     296.0399     324.2849
   1412.24854     296.1189     325.0352   1412.24854     296.1189     325.0352
   1412.23328     296.0665     326.2169   1412.23328     296.0665     326.2169
   1412.21802     296.8994     327.3218   1412.21802     296.8994     327.3218
   1412.20276     297.0706     328.4327   1412.20276     297.0706     328.4327