#     FILENAME=!Skynet_57528_lach-cc-241_20657_21014.cyb.fits
#     BASENAME=Skynet_57528_lach-cc-241_20657_21014
#     SRC_NAME=lach-cc-241
#     OBSERVER=ccmadison16_9505
#     DATE_OBS=2016-05-20T19:03:53.430
#        OBSID=20657
#      SCANNUM=21014
#          MJD=57528.7954
#          UTC=68722
#     SCANTYPE=track
#     DATAMODE=HIRES
#     TUNEFREQ=1420.0000
# Actual_FREQ1=1420.0000
# Actual_FREQ2=1420.0000
#    LO1Tuning=6870.000
#     RFFILTER=1355_1435
#        OBSBW=-15.6250
#        NCHAN=1024 
#        FOCUS=37.0489
#           RA=07:46:04.00
#          DEC=-24:45:24.60
#      RA(hrs)=7.767800
#     DEC(deg)=-24.756800
#    AZIM(deg)=148.966
#    ELEV(deg)=19.991
#     IFattens=11.00, 10.00
#      WARNING=None
#    TCAL_XL1=7.9635
#    TCAL_YR1=9.1340
#    TCAL_XL2=7.9635
#    TCAL_YR2=9.1340
#     TRX_XL1=11.7060
#     TRX_YR1=11.7060
#     TRX_XL2=11.7060
#     TRX_YR2=11.7060
#        TAVE=1.0000
#Freq1(MHz)          XL1          YR1  Freq2(MHz)          XL2          YR2 

   1427.81250     303.7725     244.1349   1427.81250     303.7725     244.1349
   1427.79724     304.9718     243.9199   1427.79724     304.9718     243.9199
   1427.78198     305.3108     244.6770   1427.78198     305.3108     244.6770
   1427.76672     305.8965     244.5627   1427.76672     305.8965     244.5627
   1427.75146     306.8315     245.5045   1427.75146     306.8315     245.5045
   1427.73621     307.4395     246.0948   1427.73621     307.4395     246.0948
   1427.72095     307.8627     246.8787   1427.72095     307.8627     246.8787
   1427.70569     308.2437     247.5886   1427.70569     308.2437     247.5886
   1427.69043     309.4395     247.7770   1427.69043     309.4395     247.7770
   1427.67517     310.0464     248.5359   1427.67517     310.0464     248.5359
   1427.65991     311.3000     249.4769   1427.65991     311.3000     249.4769
   1427.64465     312.2453     250.1966   1427.64465     312.2453     250.1966
   1427.62939     313.3576     250.7713   1427.62939     313.3576     250.7713
   1427.61414     313.5591     251.7818   1427.61414     313.5591     251.7818
   1427.59888     314.7229     252.5919   1427.59888     314.7229     252.5919
   1427.58362     316.3851     253.8434   1427.58362     316.3851     253.8434
   1427.56836     317.1907     253.9672   1427.56836     317.1907     253.9672
   1427.55310     317.9043     255.0808   1427.55310     317.9043     255.0808
   1427.53784     319.8580     256.3566   1427.53784     319.8580     256.3566
   1427.52258     321.0813     257.5998   1427.52258     321.0813     257.5998
   1427.50732     322.3626     258.6238   1427.50732     322.3626     258.6238
   1427.49207     323.5644     259.3373   1427.49207     323.5644     259.3373
   1427.47681     324.5827     260.2340   1427.47681     324.5827     260.2340
   1427.46155     326.6236     262.0732   1427.46155     326.6236     262.0732
   1427.44629     327.5004     262.5226   1427.44629     327.5004     262.5226
   1427.43103     329.5647     263.9341   1427.43103     329.5647     263.9341
   1427.41577     330.5910     265.0720   1427.41577     330.5910     265.0720
   1427.40051     332.7046     266.5045   1427.40051     332.7046     266.5045
   1427.38525     333.3134     267.4592   1427.38525     333.3134     267.4592
   1427.37000     335.2891     269.2747   1427.37000     335.2891     269.2747
   1427.35474     337.4478     270.1604   1427.35474     337.4478     270.1604
   1427.33948     338.8499     271.2659   1427.33948     338.8499     271.2659
   1427.32422     340.6705     273.0037   1427.32422     340.6705     273.0037
   1427.30896     342.4902     274.4236   1427.30896     342.4902     274.4236
   1427.29370     344.3148     275.4802   1427.29370     344.3148     275.4802
   1427.27844     345.8621     277.0263   1427.27844     345.8621     277.0263
   1427.26318     347.5748     278.4033   1427.26318     347.5748     278.4033
   1427.24792     349.4025     280.2708   1427.24792     349.4025     280.2708
   1427.23267     350.9707     281.4326   1427.23267     350.9707     281.4326
   1427.21741     353.3987     282.8099   1427.21741     353.3987     282.8099
   1427.20215     355.0317     284.6478   1427.20215     355.0317     284.6478
   1427.18689     357.3236     286.0954   1427.18689     357.3236     286.0954
   1427.17163     359.2059     287.8983   1427.17163     359.2059     287.8983
   1427.15637     361.1862     289.2251   1427.15637     361.1862     289.2251
   1427.14111     363.4207     291.4785   1427.14111     363.4207     291.4785
   1427.12585     365.0944     292.6995   1427.12585     365.0944     292.6995
   1427.11060     367.5937     293.9698   1427.11060     367.5937     293.9698
   1427.09534     369.1962     296.0497   1427.09534     369.1962     296.0497
   1427.08008     371.8904     297.4196   1427.08008     371.8904     297.4196
   1427.06482     373.8460     299.2313   1427.06482     373.8460     299.2313
   1427.04956     375.8839     301.3647   1427.04956     375.8839     301.3647
   1427.03430     377.3932     303.0793   1427.03430     377.3932     303.0793
   1427.01904     380.3639     304.4112   1427.01904     380.3639     304.4112
   1427.00378     382.6633     306.2746   1427.00378     382.6633     306.2746
   1426.98853     384.7308     308.4930   1426.98853     384.7308     308.4930
   1426.97327     387.1517     310.2657   1426.97327     387.1517     310.2657
   1426.95801     389.4239     311.8970   1426.95801     389.4239     311.8970
   1426.94275     391.6128     313.6526   1426.94275     391.6128     313.6526
   1426.92749     393.6913     315.7382   1426.92749     393.6913     315.7382
   1426.91223     395.5904     317.8065   1426.91223     395.5904     317.8065
   1426.89697     398.2621     319.2603   1426.89697     398.2621     319.2603
   1426.88171     400.7532     321.2720   1426.88171     400.7532     321.2720
   1426.86646     402.4399     323.6703   1426.86646     402.4399     323.6703
   1426.85120     404.7386     324.9148   1426.85120     404.7386     324.9148
   1426.83594     408.4384     327.1156   1426.83594     408.4384     327.1156
   1426.82068     409.9921     329.2772   1426.82068     409.9921     329.2772
   1426.80542     412.8844     331.4680   1426.80542     412.8844     331.4680
   1426.79016     414.1232     333.0508   1426.79016     414.1232     333.0508
   1426.77490     416.9832     334.6148   1426.77490     416.9832     334.6148
   1426.75964     419.3294     337.1844   1426.75964     419.3294     337.1844
   1426.74438     421.6210     339.1759   1426.74438     421.6210     339.1759
   1426.72913     423.4749     340.9273   1426.72913     423.4749     340.9273
   1426.71387     426.5671     342.8110   1426.71387     426.5671     342.8110
   1426.69861     429.0591     345.2312   1426.69861     429.0591     345.2312
   1426.68335     431.8360     346.8110   1426.68335     431.8360     346.8110
   1426.66809     433.6190     348.9296   1426.66809     433.6190     348.9296
   1426.65283     435.8191     350.3382   1426.65283     435.8191     350.3382
   1426.63757     438.3234     353.0269   1426.63757     438.3234     353.0269
   1426.62231     444.0147     355.7513   1426.62231     444.0147     355.7513
   1426.60706     443.7089     357.2044   1426.60706     443.7089     357.2044
   1426.59180     446.9140     359.2154   1426.59180     446.9140     359.2154
   1426.57654     448.3353     361.7967   1426.57654     448.3353     361.7967
   1426.56128     450.5970     363.3663   1426.56128     450.5970     363.3663
   1426.54602     452.4471     364.8476   1426.54602     452.4471     364.8476
   1426.53076     454.9374     367.1369   1426.53076     454.9374     367.1369
   1426.51550     457.1224     369.5841   1426.51550     457.1224     369.5841
   1426.50024     460.5039     371.2617   1426.50024     460.5039     371.2617
   1426.48499     462.0435     373.3969   1426.48499     462.0435     373.3969
   1426.46973     465.4012     375.4876   1426.46973     465.4012     375.4876
   1426.45447     467.6384     377.4735   1426.45447     467.6384     377.4735
   1426.43921     469.7250     379.4261   1426.43921     469.7250     379.4261
   1426.42395     471.5307     381.6593   1426.42395     471.5307     381.6593
   1426.40869     474.1774     383.1476   1426.40869     474.1774     383.1476
   1426.39343     476.1737     385.7777   1426.39343     476.1737     385.7777
   1426.37817     478.6875     387.4802   1426.37817     478.6875     387.4802
   1426.36292     481.9376     389.5233   1426.36292     481.9376     389.5233
   1426.34766     482.7620     391.5767   1426.34766     482.7620     391.5767
   1426.33240     485.4590     393.4567   1426.33240     485.4590     393.4567
   1426.31714     487.3584     395.5468   1426.31714     487.3584     395.5468
   1426.30188     489.7718     397.5405   1426.30188     489.7718     397.5405
   1426.28662     492.4190     399.6087   1426.28662     492.4190     399.6087
   1426.27136     494.5558     401.4973   1426.27136     494.5558     401.4973
   1426.25610     496.7269     403.1065   1426.25610     496.7269     403.1065
   1426.24084     499.1546     404.9357   1426.24084     499.1546     404.9357
   1426.22559     500.9793     407.0121   1426.22559     500.9793     407.0121
   1426.21033     503.4064     409.2108   1426.21033     503.4064     409.2108
   1426.19507     505.4907     411.1165   1426.19507     505.4907     411.1165
   1426.17981     507.7177     413.1905   1426.17981     507.7177     413.1905
   1426.16455     509.5112     414.9390   1426.16455     509.5112     414.9390
   1426.14929     511.6693     416.9951   1426.14929     511.6693     416.9951
   1426.13403     513.6935     418.8485   1426.13403     513.6935     418.8485
   1426.11877     516.1577     420.4550   1426.11877     516.1577     420.4550
   1426.10352     517.3018     422.7474   1426.10352     517.3018     422.7474
   1426.08826     520.1957     424.6043   1426.08826     520.1957     424.6043
   1426.07300     522.4016     426.5728   1426.07300     522.4016     426.5728
   1426.05774     523.9807     428.7534   1426.05774     523.9807     428.7534
   1426.04248     526.1710     430.3620   1426.04248     526.1710     430.3620
   1426.02722     527.2612     431.6805   1426.02722     527.2612     431.6805
   1426.01196     529.6500     433.6220   1426.01196     529.6500     433.6220
   1425.99670     531.5498     435.8847   1425.99670     531.5498     435.8847
   1425.98145     532.8435     437.7182   1425.98145     532.8435     437.7182
   1425.96619     535.5831     439.5499   1425.96619     535.5831     439.5499
   1425.95093     536.6127     441.5969   1425.95093     536.6127     441.5969
   1425.93567     538.6709     443.1270   1425.93567     538.6709     443.1270
   1425.92041     540.8476     445.0243   1425.92041     540.8476     445.0243
   1425.90515     542.7427     447.0112   1425.90515     542.7427     447.0112
   1425.88989     544.1097     448.3670   1425.88989     544.1097     448.3670
   1425.87463     546.5882     449.6920   1425.87463     546.5882     449.6920
   1425.85938     547.9298     451.9639   1425.85938     547.9298     451.9639
   1425.84412     549.1428     454.2271   1425.84412     549.1428     454.2271
   1425.82886     551.5601     456.2573   1425.82886     551.5601     456.2573
   1425.81360     551.6084     457.4643   1425.81360     551.6084     457.4643
   1425.79834     555.5737     459.7686   1425.79834     555.5737     459.7686
   1425.78308     555.1116     460.1552   1425.78308     555.1116     460.1552
   1425.76782     556.9291     461.9794   1425.76782     556.9291     461.9794
   1425.75256     559.1602     463.9106   1425.75256     559.1602     463.9106
   1425.73730     560.4935     466.4034   1425.73730     560.4935     466.4034
   1425.72205     562.6940     467.2809   1425.72205     562.6940     467.2809
   1425.70679     562.9958     468.7533   1425.70679     562.9958     468.7533
   1425.69153     563.6153     470.8009   1425.69153     563.6153     470.8009
   1425.67627     566.9146     471.9936   1425.67627     566.9146     471.9936
   1425.66101     566.9835     473.7736   1425.66101     566.9835     473.7736
   1425.64575     569.5435     475.4880   1425.64575     569.5435     475.4880
   1425.63049     570.4924     477.2518   1425.63049     570.4924     477.2518
   1425.61523     571.4572     478.8680   1425.61523     571.4572     478.8680
   1425.59998     572.3002     480.3116   1425.59998     572.3002     480.3116
   1425.58472     574.3568     482.3861   1425.58472     574.3568     482.3861
   1425.56946     575.1513     483.3215   1425.56946     575.1513     483.3215
   1425.55420     576.1208     485.5157   1425.55420     576.1208     485.5157
   1425.53894     577.3190     486.6629   1425.53894     577.3190     486.6629
   1425.52368     578.5521     487.7064   1425.52368     578.5521     487.7064
   1425.50842     579.7430     489.3870   1425.50842     579.7430     489.3870
   1425.49316     582.2642     491.3127   1425.49316     582.2642     491.3127
   1425.47791     583.3679     492.1450   1425.47791     583.3679     492.1450
   1425.46265     584.0247     493.3037   1425.46265     584.0247     493.3037
   1425.44739     583.8751     494.9184   1425.44739     583.8751     494.9184
   1425.43213     585.0535     497.0259   1425.43213     585.0535     497.0259
   1425.41687     586.6659     499.3596   1425.41687     586.6659     499.3596
   1425.40161     588.8253     500.6996   1425.40161     588.8253     500.6996
   1425.38635     590.4639     501.6178   1425.38635     590.4639     501.6178
   1425.37109     588.9984     501.9575   1425.37109     588.9984     501.9575
   1425.35583     590.5253     503.8888   1425.35583     590.5253     503.8888
   1425.34058     590.1122     504.9984   1425.34058     590.1122     504.9984
   1425.32532     592.6904     506.1754   1425.32532     592.6904     506.1754
   1425.31006     593.0182     507.6675   1425.31006     593.0182     507.6675
   1425.29480     593.8604     508.8992   1425.29480     593.8604     508.8992
   1425.27954     595.1490     510.3481   1425.27954     595.1490     510.3481
   1425.26428     595.3240     512.0801   1425.26428     595.3240     512.0801
   1425.24902     596.9425     514.0090   1425.24902     596.9425     514.0090
   1425.23376     597.6067     514.8598   1425.23376     597.6067     514.8598
   1425.21851     598.8434     515.5626   1425.21851     598.8434     515.5626
   1425.20325     599.4989     517.2821   1425.20325     599.4989     517.2821
   1425.18799     599.3599     518.4088   1425.18799     599.3599     518.4088
   1425.17273     600.5275     519.6445   1425.17273     600.5275     519.6445
   1425.15747     601.9258     520.6449   1425.15747     601.9258     520.6449
   1425.14221     602.1990     521.8949   1425.14221     602.1990     521.8949
   1425.12695     605.9463     523.6351   1425.12695     605.9463     523.6351
   1425.11169     602.6096     524.9247   1425.11169     602.6096     524.9247
   1425.09644     603.3584     525.5282   1425.09644     603.3584     525.5282
   1425.08118     603.5988     526.8265   1425.08118     603.5988     526.8265
   1425.06592     604.1995     527.9576   1425.06592     604.1995     527.9576
   1425.05066     603.9003     529.0630   1425.05066     603.9003     529.0630
   1425.03540     605.2933     530.6521   1425.03540     605.2933     530.6521
   1425.02014     605.8934     531.7987   1425.02014     605.8934     531.7987
   1425.00488     608.1229     535.0746   1425.00488     608.1229     535.0746
   1424.98962     609.2664     534.9176   1424.98962     609.2664     534.9176
   1424.97437     606.2109     534.7714   1424.97437     606.2109     534.7714
   1424.95911     607.4237     535.7217   1424.95911     607.4237     535.7217
   1424.94385     607.9944     536.6725   1424.94385     607.9944     536.6725
   1424.92859     608.5856     538.1285   1424.92859     608.5856     538.1285
   1424.91333     608.9904     539.9982   1424.91333     608.9904     539.9982
   1424.89807     609.5494     540.1472   1424.89807     609.5494     540.1472
   1424.88281     608.5917     540.7319   1424.88281     608.5917     540.7319
   1424.86755     609.4391     541.0593   1424.86755     609.4391     541.0593
   1424.85229     609.4526     543.3351   1424.85229     609.4526     543.3351
   1424.83704     609.4659     543.7147   1424.83704     609.4659     543.7147
   1424.82178     610.6279     545.4151   1424.82178     610.6279     545.4151
   1424.80652     610.1615     546.7042   1424.80652     610.1615     546.7042
   1424.79126     611.0137     547.7453   1424.79126     611.0137     547.7453
   1424.77600     610.8860     548.3156   1424.77600     610.8860     548.3156
   1424.76074     611.9197     548.4745   1424.76074     611.9197     548.4745
   1424.74548     611.4711     548.7535   1424.74548     611.4711     548.7535
   1424.73022     613.0059     549.8813   1424.73022     613.0059     549.8813
   1424.71497     611.5210     550.6218   1424.71497     611.5210     550.6218
   1424.69971     612.3691     552.1819   1424.69971     612.3691     552.1819
   1424.68445     612.2407     552.2394   1424.68445     612.2407     552.2394
   1424.66919     612.9302     553.7397   1424.66919     612.9302     553.7397
   1424.65393     612.6057     554.8490   1424.65393     612.6057     554.8490
   1424.63867     613.2818     555.2181   1424.63867     613.2818     555.2181
   1424.62341     612.6130     555.7819   1424.62341     612.6130     555.7819
   1424.60815     613.3326     556.8402   1424.60815     613.3326     556.8402
   1424.59290     613.2335     557.9564   1424.59290     613.2335     557.9564
   1424.57764     613.8696     558.0068   1424.57764     613.8696     558.0068
   1424.56238     612.2992     560.2557   1424.56238     612.2992     560.2557
   1424.54712     613.2944     560.2838   1424.54712     613.2944     560.2838
   1424.53186     613.2865     560.6049   1424.53186     613.2865     560.6049
   1424.51660     613.8490     561.8492   1424.51660     613.8490     561.8492
   1424.50134     614.5164     561.8120   1424.50134     614.5164     561.8120
   1424.48608     614.1239     563.4200   1424.48608     614.1239     563.4200
   1424.47083     613.0290     563.7444   1424.47083     613.0290     563.7444
   1424.45557     613.4169     564.2155   1424.45557     613.4169     564.2155
   1424.44031     614.1267     564.5665   1424.44031     614.1267     564.5665
   1424.42505     612.6967     565.3992   1424.42505     612.6967     565.3992
   1424.40979     613.8985     565.6142   1424.40979     613.8985     565.6142
   1424.39453     612.6718     566.6611   1424.39453     612.6718     566.6611
   1424.37927     614.6375     567.5070   1424.37927     614.6375     567.5070
   1424.36401     613.8657     567.3725   1424.36401     613.8657     567.3725
   1424.34875     613.8643     568.8893   1424.34875     613.8643     568.8893
   1424.33350     614.1171     569.4005   1424.33350     614.1171     569.4005
   1424.31824     614.7191     570.4135   1424.31824     614.7191     570.4135
   1424.30298     613.0689     570.1298   1424.30298     613.0689     570.1298
   1424.28772     613.6662     570.4725   1424.28772     613.6662     570.4725
   1424.27246     613.5707     571.7222   1424.27246     613.5707     571.7222
   1424.25720     614.5902     571.1182   1424.25720     614.5902     571.1182
   1424.24194     613.9225     572.8427   1424.24194     613.9225     572.8427
   1424.22668     613.0032     573.1191   1424.22668     613.0032     573.1191
   1424.21143     613.0132     573.6597   1424.21143     613.0132     573.6597
   1424.19617     614.5616     573.1709   1424.19617     614.5616     573.1709
   1424.18091     612.7182     574.0417   1424.18091     612.7182     574.0417
   1424.16565     613.7193     574.2170   1424.16565     613.7193     574.2170
   1424.15039     612.0601     575.1953   1424.15039     612.0601     575.1953
   1424.13513     613.7504     575.1207   1424.13513     613.7504     575.1207
   1424.11987     613.4426     575.2747   1424.11987     613.4426     575.2747
   1424.10461     612.8577     576.4362   1424.10461     612.8577     576.4362
   1424.08936     612.5873     576.3417   1424.08936     612.5873     576.3417
   1424.07410     612.0195     576.8804   1424.07410     612.0195     576.8804
   1424.05884     613.6943     577.2607   1424.05884     613.6943     577.2607
   1424.04358     612.3459     577.0670   1424.04358     612.3459     577.0670
   1424.02832     611.9650     577.9269   1424.02832     611.9650     577.9269
   1424.01306     611.4075     578.9333   1424.01306     611.4075     578.9333
   1423.99780     611.3717     578.6747   1423.99780     611.3717     578.6747
   1423.98254     612.4136     579.6069   1423.98254     612.4136     579.6069
   1423.96729     611.9905     578.2195   1423.96729     611.9905     578.2195
   1423.95203     610.6434     579.3527   1423.95203     610.6434     579.3527
   1423.93677     610.5516     578.9519   1423.93677     610.5516     578.9519
   1423.92151     610.9940     579.3552   1423.92151     610.9940     579.3552
   1423.90625     610.8600     579.9259   1423.90625     610.8600     579.9259
   1423.89099     610.7190     580.6107   1423.89099     610.7190     580.6107
   1423.87573     610.8463     581.3577   1423.87573     610.8463     581.3577
   1423.86047     611.3371     580.5515   1423.86047     611.3371     580.5515
   1423.84521     609.9712     581.2857   1423.84521     609.9712     581.2857
   1423.82996     609.7006     581.4283   1423.82996     609.7006     581.4283
   1423.81470     610.4327     581.4915   1423.81470     610.4327     581.4915
   1423.79944     610.4829     581.5647   1423.79944     610.4829     581.5647
   1423.78418     609.4510     580.4661   1423.78418     609.4510     580.4661
   1423.76892     610.4280     580.5222   1423.76892     610.4280     580.5222
   1423.75366     609.6302     581.3361   1423.75366     609.6302     581.3361
   1423.73840     609.5260     580.9736   1423.73840     609.5260     580.9736
   1423.72314     609.6730     581.9655   1423.72314     609.6730     581.9655
   1423.70789     608.1215     580.2617   1423.70789     608.1215     580.2617
   1423.69263     609.3161     581.7248   1423.69263     609.3161     581.7248
   1423.67737     608.1583     580.9955   1423.67737     608.1583     580.9955
   1423.66211     608.9858     581.4100   1423.66211     608.9858     581.4100
   1423.64685     609.9038     580.8753   1423.64685     609.9038     580.8753
   1423.63159     608.1967     581.5474   1423.63159     608.1967     581.5474
   1423.61633     607.7397     581.5526   1423.61633     607.7397     581.5526
   1423.60107     607.8111     580.8120   1423.60107     607.8111     580.8120
   1423.58582     607.6936     581.1115   1423.58582     607.6936     581.1115
   1423.57056     608.5240     579.9164   1423.57056     608.5240     579.9164
   1423.55530     607.5656     580.8412   1423.55530     607.5656     580.8412
   1423.54004     606.9949     580.1935   1423.54004     606.9949     580.1935
   1423.52478     607.0143     579.9174   1423.52478     607.0143     579.9174
   1423.50952     606.5753     580.7197   1423.50952     606.5753     580.7197
   1423.49426     606.4276     579.7792   1423.49426     606.4276     579.7792
   1423.47900     606.7902     579.5110   1423.47900     606.7902     579.5110
   1423.46375     606.6434     579.7765   1423.46375     606.6434     579.7765
   1423.44849     605.7130     579.7538   1423.44849     605.7130     579.7538
   1423.43323     606.2831     578.4485   1423.43323     606.2831     578.4485
   1423.41797     605.6541     578.8959   1423.41797     605.6541     578.8959
   1423.40271     605.4023     577.6223   1423.40271     605.4023     577.6223
   1423.38745     605.2230     578.2928   1423.38745     605.2230     578.2928
   1423.37219     604.5170     578.1982   1423.37219     604.5170     578.1982
   1423.35693     605.3721     577.9601   1423.35693     605.3721     577.9601
   1423.34167     605.0303     576.9920   1423.34167     605.0303     576.9920
   1423.32642     605.0089     576.5408   1423.32642     605.0089     576.5408
   1423.31116     603.7734     575.1303   1423.31116     603.7734     575.1303
   1423.29590     602.8743     575.2048   1423.29590     602.8743     575.2048
   1423.28064     603.7570     574.6813   1423.28064     603.7570     574.6813
   1423.26538     604.6550     574.4185   1423.26538     604.6550     574.4185
   1423.25012     603.8922     574.7584   1423.25012     603.8922     574.7584
   1423.23486     603.8150     573.1412   1423.23486     603.8150     573.1412
   1423.21960     603.2709     573.6343   1423.21960     603.2709     573.6343
   1423.20435     603.3116     573.1818   1423.20435     603.3116     573.1818
   1423.18909     602.3792     571.2553   1423.18909     602.3792     571.2553
   1423.17383     602.5161     571.5866   1423.17383     602.5161     571.5866
   1423.15857     602.3853     571.3813   1423.15857     602.3853     571.3813
   1423.14331     603.5097     570.4738   1423.14331     603.5097     570.4738
   1423.12805     602.8195     570.4884   1423.12805     602.8195     570.4884
   1423.11279     602.0430     568.9238   1423.11279     602.0430     568.9238
   1423.09753     601.2725     569.6385   1423.09753     601.2725     569.6385
   1423.08228     600.9647     569.0255   1423.08228     600.9647     569.0255
   1423.06702     601.5156     567.6430   1423.06702     601.5156     567.6430
   1423.05176     600.6540     566.5958   1423.05176     600.6540     566.5958
   1423.03650     601.3061     565.9595   1423.03650     601.3061     565.9595
   1423.02124     601.6152     564.2951   1423.02124     601.6152     564.2951
   1423.00598     599.8230     564.4796   1423.00598     599.8230     564.4796
   1422.99072     600.7113     563.9929   1422.99072     600.7113     563.9929
   1422.97546     600.2310     562.9478   1422.97546     600.2310     562.9478
   1422.96021     599.5233     561.7565   1422.96021     599.5233     561.7565
   1422.94495     599.8221     560.6113   1422.94495     599.8221     560.6113
   1422.92969     599.4929     561.0811   1422.92969     599.4929     561.0811
   1422.91443     599.5253     558.8063   1422.91443     599.5253     558.8063
   1422.89917     600.1072     559.4706   1422.89917     600.1072     559.4706
   1422.88391     599.1420     558.4883   1422.88391     599.1420     558.4883
   1422.86865     598.5775     557.2715   1422.86865     598.5775     557.2715
   1422.85339     598.4404     556.0792   1422.85339     598.4404     556.0792
   1422.83813     597.9932     554.8969   1422.83813     597.9932     554.8969
   1422.82288     597.2422     554.0383   1422.82288     597.2422     554.0383
   1422.80762     598.5402     553.0404   1422.80762     598.5402     553.0404
   1422.79236     597.8115     553.2057   1422.79236     597.8115     553.2057
   1422.77710     597.9456     552.3557   1422.77710     597.9456     552.3557
   1422.76184     596.7217     550.3928   1422.76184     596.7217     550.3928
   1422.74658     597.0124     550.4996   1422.74658     597.0124     550.4996
   1422.73132     597.3752     549.8549   1422.73132     597.3752     549.8549
   1422.71606     596.0471     548.4793   1422.71606     596.0471     548.4793
   1422.70081     596.5043     547.2250   1422.70081     596.5043     547.2250
   1422.68555     596.2697     545.6253   1422.68555     596.2697     545.6253
   1422.67029     595.8423     544.6872   1422.67029     595.8423     544.6872
   1422.65503     596.3733     543.9945   1422.65503     596.3733     543.9945
   1422.63977     595.6287     543.1582   1422.63977     595.6287     543.1582
   1422.62451     594.7698     541.2196   1422.62451     594.7698     541.2196
   1422.60925     595.2532     540.3531   1422.60925     595.2532     540.3531
   1422.59399     595.7550     540.3124   1422.59399     595.7550     540.3124
   1422.57874     594.9771     539.0313   1422.57874     594.9771     539.0313
   1422.56348     595.3107     537.9957   1422.56348     595.3107     537.9957
   1422.54822     595.0200     536.7027   1422.54822     595.0200     536.7027
   1422.53296     594.4188     534.8604   1422.53296     594.4188     534.8604
   1422.51770     593.5288     535.0018   1422.51770     593.5288     535.0018
   1422.50244     593.2641     532.0593   1422.50244     593.2641     532.0593
   1422.48718     593.0748     531.6084   1422.48718     593.0748     531.6084
   1422.47192     592.8642     531.0666   1422.47192     592.8642     531.0666
   1422.45667     592.5843     528.8466   1422.45667     592.5843     528.8466
   1422.44141     593.2906     529.1426   1422.44141     593.2906     529.1426
   1422.42615     593.2175     527.5840   1422.42615     593.2175     527.5840
   1422.41089     592.2911     527.0041   1422.41089     592.2911     527.0041
   1422.39563     592.1382     525.2446   1422.39563     592.1382     525.2446
   1422.38037     592.1321     523.7880   1422.38037     592.1321     523.7880
   1422.36511     592.9978     524.1362   1422.36511     592.9978     524.1362
   1422.34985     591.1030     522.2703   1422.34985     591.1030     522.2703
   1422.33459     591.8923     521.3420   1422.33459     591.8923     521.3420
   1422.31934     590.9025     519.6957   1422.31934     590.9025     519.6957
   1422.30408     591.4278     518.2693   1422.30408     591.4278     518.2693
   1422.28882     590.6674     517.4095   1422.28882     590.6674     517.4095
   1422.27356     591.0931     515.7006   1422.27356     591.0931     515.7006
   1422.25830     591.1852     515.1977   1422.25830     591.1852     515.1977
   1422.24304     592.4132     516.9577   1422.24304     592.4132     516.9577
   1422.22778     590.8079     511.8754   1422.22778     590.8079     511.8754
   1422.21252     589.6924     511.3859   1422.21252     589.6924     511.3859
   1422.19727     589.6918     510.3726   1422.19727     589.6918     510.3726
   1422.18201     589.6109     508.3861   1422.18201     589.6109     508.3861
   1422.16675     589.6946     506.7001   1422.16675     589.6946     506.7001
   1422.15149     589.6603     505.7331   1422.15149     589.6603     505.7331
   1422.13623     589.1305     504.1985   1422.13623     589.1305     504.1985
   1422.12097     588.5610     504.1840   1422.12097     588.5610     504.1840
   1422.10571     588.6130     502.1194   1422.10571     588.6130     502.1194
   1422.09045     587.9708     500.9753   1422.09045     587.9708     500.9753
   1422.07520     589.1508     499.8555   1422.07520     589.1508     499.8555
   1422.05994     588.6740     498.1674   1422.05994     588.6740     498.1674
   1422.04468     588.1299     497.3508   1422.04468     588.1299     497.3508
   1422.02942     588.8697     496.3853   1422.02942     588.8697     496.3853
   1422.01416     588.2923     495.0620   1422.01416     588.2923     495.0620
   1421.99890     587.0225     493.9574   1421.99890     587.0225     493.9574
   1421.98364     587.4562     491.7966   1421.98364     587.4562     491.7966
   1421.96838     587.6874     491.8802   1421.96838     587.6874     491.8802
   1421.95312     586.2289     489.9661   1421.95312     586.2289     489.9661
   1421.93787     587.2095     488.0609   1421.93787     587.2095     488.0609
   1421.92261     586.9285     487.2724   1421.92261     586.9285     487.2724
   1421.90735     585.8262     485.6764   1421.90735     585.8262     485.6764
   1421.89209     585.8950     484.9519   1421.89209     585.8950     484.9519
   1421.87683     585.7469     483.6588   1421.87683     585.7469     483.6588
   1421.86157     585.6332     482.5078   1421.86157     585.6332     482.5078
   1421.84631     585.5408     480.9917   1421.84631     585.5408     480.9917
   1421.83105     584.8754     480.0302   1421.83105     584.8754     480.0302
   1421.81580     585.3345     479.2406   1421.81580     585.3345     479.2406
   1421.80054     584.7848     478.1482   1421.80054     584.7848     478.1482
   1421.78528     583.8295     475.6653   1421.78528     583.8295     475.6653
   1421.77002     584.5883     475.3988   1421.77002     584.5883     475.3988
   1421.75476     584.2740     473.7032   1421.75476     584.2740     473.7032
   1421.73950     583.9387     472.3677   1421.73950     583.9387     472.3677
   1421.72424     583.6202     470.7734   1421.72424     583.6202     470.7734
   1421.70898     583.3681     470.3576   1421.70898     583.3681     470.3576
   1421.69373     582.7203     468.6901   1421.69373     582.7203     468.6901
   1421.67847     583.0405     467.8872   1421.67847     583.0405     467.8872
   1421.66321     582.4576     467.2371   1421.66321     582.4576     467.2371
   1421.64795     582.9266     464.3896   1421.64795     582.9266     464.3896
   1421.63269     581.4185     463.9966   1421.63269     581.4185     463.9966
   1421.61743     583.7491     462.9386   1421.61743     583.7491     462.9386
   1421.60217     583.1081     462.2469   1421.60217     583.1081     462.2469
   1421.58691     581.5520     460.2877   1421.58691     581.5520     460.2877
   1421.57166     582.4861     458.9536   1421.57166     582.4861     458.9536
   1421.55640     581.7379     458.1839   1421.55640     581.7379     458.1839
   1421.54114     581.8069     456.8563   1421.54114     581.8069     456.8563
   1421.52588     580.6265     454.7671   1421.52588     580.6265     454.7671
   1421.51062     581.2529     453.9339   1421.51062     581.2529     453.9339
   1421.49536     580.8887     453.3890   1421.49536     580.8887     453.3890
   1421.48010     580.7225     451.4415   1421.48010     580.7225     451.4415
   1421.46484     580.7784     451.3816   1421.46484     580.7784     451.3816
   1421.44958     579.6558     450.1872   1421.44958     579.6558     450.1872
   1421.43433     580.1724     447.3871   1421.43433     580.1724     447.3871
   1421.41907     580.9675     447.3073   1421.41907     580.9675     447.3073
   1421.40381     579.5200     446.3934   1421.40381     579.5200     446.3934
   1421.38855     579.9370     445.4603   1421.38855     579.9370     445.4603
   1421.37329     579.8141     444.1962   1421.37329     579.8141     444.1962
   1421.35803     579.2278     443.9537   1421.35803     579.2278     443.9537
   1421.34277     578.3357     441.7009   1421.34277     578.3357     441.7009
   1421.32751     579.0341     440.9376   1421.32751     579.0341     440.9376
   1421.31226     579.2866     439.7233   1421.31226     579.2866     439.7233
   1421.29700     578.6022     438.3286   1421.29700     578.6022     438.3286
   1421.28174     577.9863     437.4167   1421.28174     577.9863     437.4167
   1421.26648     577.5720     436.0800   1421.26648     577.5720     436.0800
   1421.25122     577.9302     435.3985   1421.25122     577.9302     435.3985
   1421.23596     576.9612     434.1167   1421.23596     576.9612     434.1167
   1421.22070     577.9205     432.9366   1421.22070     577.9205     432.9366
   1421.20544     577.7277     432.0600   1421.20544     577.7277     432.0600
   1421.19019     576.8642     430.7799   1421.19019     576.8642     430.7799
   1421.17493     576.8835     429.5677   1421.17493     576.8835     429.5677
   1421.15967     575.8199     428.8831   1421.15967     575.8199     428.8831
   1421.14441     576.1954     427.7050   1421.14441     576.1954     427.7050
   1421.12915     575.7059     426.5909   1421.12915     575.7059     426.5909
   1421.11389     575.7256     426.0407   1421.11389     575.7256     426.0407
   1421.09863     575.2349     423.9562   1421.09863     575.2349     423.9562
   1421.08337     575.0580     423.3099   1421.08337     575.0580     423.3099
   1421.06812     575.1223     422.5354   1421.06812     575.1223     422.5354
   1421.05286     575.8564     422.2461   1421.05286     575.8564     422.2461
   1421.03760     574.8279     420.3381   1421.03760     574.8279     420.3381
   1421.02234     574.8060     419.5346   1421.02234     574.8060     419.5346
   1421.00708     574.4821     418.7558   1421.00708     574.4821     418.7558
   1420.99182     575.2168     417.3376   1420.99182     575.2168     417.3376
   1420.97656     574.1049     416.6647   1420.97656     574.1049     416.6647
   1420.96130     574.0896     415.5251   1420.96130     574.0896     415.5251
   1420.94604     573.5522     414.8576   1420.94604     573.5522     414.8576
   1420.93079     573.0759     414.1155   1420.93079     573.0759     414.1155
   1420.91553     573.1880     412.7359   1420.91553     573.1880     412.7359
   1420.90027     572.9744     411.1734   1420.90027     572.9744     411.1734
   1420.88501     573.2803     410.4116   1420.88501     573.2803     410.4116
   1420.86975     573.7766     409.0514   1420.86975     573.7766     409.0514
   1420.85449     573.2194     408.1911   1420.85449     573.2194     408.1911
   1420.83923     572.4711     408.7618   1420.83923     572.4711     408.7618
   1420.82397     574.0504     407.6362   1420.82397     574.0504     407.6362
   1420.80872     572.7988     406.0867   1420.80872     572.7988     406.0867
   1420.79346     572.5302     406.5232   1420.79346     572.5302     406.5232
   1420.77820     572.9808     405.3702   1420.77820     572.9808     405.3702
   1420.76294     573.2020     403.5558   1420.76294     573.2020     403.5558
   1420.74768     572.8251     403.6998   1420.74768     572.8251     403.6998
   1420.73242     572.8295     402.9896   1420.73242     572.8295     402.9896
   1420.71716     573.3671     401.9239   1420.71716     573.3671     401.9239
   1420.70190     572.4775     401.7825   1420.70190     572.4775     401.7825
   1420.68665     572.3302     400.9302   1420.68665     572.3302     400.9302
   1420.67139     572.2035     399.1776   1420.67139     572.2035     399.1776
   1420.65613     571.9726     398.8768   1420.65613     571.9726     398.8768
   1420.64087     573.0381     397.9349   1420.64087     573.0381     397.9349
   1420.62561     572.7330     397.0654   1420.62561     572.7330     397.0654
   1420.61035     572.7040     396.1261   1420.61035     572.7040     396.1261
   1420.59509     572.3866     395.3896   1420.59509     572.3866     395.3896
   1420.57983     573.3807     395.1003   1420.57983     573.3807     395.1003
   1420.56458     573.8867     394.5578   1420.56458     573.8867     394.5578
   1420.54932     574.8915     394.5725   1420.54932     574.8915     394.5725
   1420.53406     574.6476     393.9053   1420.53406     574.6476     393.9053
   1420.51880     575.0880     393.7793   1420.51880     575.0880     393.7793
   1420.50354     575.2233     393.7917   1420.50354     575.2233     393.7917
   1420.48828     575.6370     393.0714   1420.48828     575.6370     393.0714
   1420.47302     575.4257     391.9149   1420.47302     575.4257     391.9149
   1420.45776     575.6102     391.1013   1420.45776     575.6102     391.1013
   1420.44250     574.5944     390.7635   1420.44250     574.5944     390.7635
   1420.42725     574.7215     389.4256   1420.42725     574.7215     389.4256
   1420.41199     573.4755     388.2069   1420.41199     573.4755     388.2069
   1420.39673     573.0570     387.1302   1420.39673     573.0570     387.1302
   1420.38147     573.2181     386.3056   1420.38147     573.2181     386.3056
   1420.36621     573.3995     385.9062   1420.36621     573.3995     385.9062
   1420.35095     572.4439     385.7956   1420.35095     572.4439     385.7956
   1420.33569     573.6700     384.5979   1420.33569     573.6700     384.5979
   1420.32043     574.4158     385.2847   1420.32043     574.4158     385.2847
   1420.30518     576.0876     386.3813   1420.30518     576.0876     386.3813
   1420.28992     579.6151     387.9160   1420.28992     579.6151     387.9160
   1420.27466     586.7023     391.9416   1420.27466     586.7023     391.9416
   1420.25940     610.0159     405.9644   1420.25940     610.0159     405.9644
   1420.24414     658.4135     436.1689   1420.24414     658.4135     436.1689
   1420.22888     691.1411     455.3599   1420.22888     691.1411     455.3599
   1420.21362     691.0147     454.6549   1420.21362     691.0147     454.6549
   1420.19836     699.2288     459.6316   1420.19836     699.2288     459.6316
   1420.18311     758.8911     496.4329   1420.18311     758.8911     496.4329
   1420.16785     950.9852     616.7854   1420.16785     950.9852     616.7854
   1420.15259    1297.5055     837.7594   1420.15259    1297.5055     837.7594
   1420.13733    1538.1221     988.7902   1420.13733    1538.1221     988.7902
   1420.12207    1239.8348     798.3118   1420.12207    1239.8348     798.3118
   1420.10681     879.1883     568.0764   1420.10681     879.1883     568.0764
   1420.09155     709.0325     460.9347   1420.09155     709.0325     460.9347
   1420.07629     631.4832     411.5436   1420.07629     631.4832     411.5436
   1420.06104     603.9537     393.5466   1420.06104     603.9537     393.5466
   1420.04578     599.1915     389.7222   1420.04578     599.1915     389.7222
   1420.03052     606.1541     393.7965   1420.03052     606.1541     393.7965
   1420.01526     633.6016     407.9495   1420.01526     633.6016     407.9495
   1420.00000     735.3643     472.5347   1420.00000     735.3643     472.5347
   1419.98474     837.1269     537.1196   1419.98474     837.1269     537.1196
   1419.96948    1047.8784     666.7938   1419.96948    1047.8784     666.7938
   1419.95422    1213.4058     765.9922   1419.95422    1213.4058     765.9922
   1419.93896    1281.0164     808.0450   1419.93896    1281.0164     808.0450
   1419.92371    1292.9457     815.9174   1419.92371    1292.9457     815.9174
   1419.90845    1389.2102     874.7021   1419.90845    1389.2102     874.7021
   1419.89319    1246.1761     784.3275   1419.89319    1246.1761     784.3275
   1419.87793    1112.1669     700.9453   1419.87793    1112.1669     700.9453
   1419.86267    1070.7162     673.1058   1419.86267    1070.7162     673.1058
   1419.84741    1009.3109     636.4579   1419.84741    1009.3109     636.4579
   1419.83215     967.3698     609.5504   1419.83215     967.3698     609.5504
   1419.81689     909.1254     573.9431   1419.81689     909.1254     573.9431
   1419.80164     848.0179     535.3748   1419.80164     848.0179     535.3748
   1419.78638     774.3719     489.4954   1419.78638     774.3719     489.4954
   1419.77112     717.2126     454.6211   1419.77112     717.2126     454.6211
   1419.75586     685.6085     434.3527   1419.75586     685.6085     434.3527
   1419.74060     667.7078     423.0383   1419.74060     667.7078     423.0383
   1419.72534     656.8207     415.7135   1419.72534     656.8207     415.7135
   1419.71008     648.2469     410.0826   1419.71008     648.2469     410.0826
   1419.69482     641.6926     405.9589   1419.69482     641.6926     405.9589
   1419.67957     633.6265     400.3246   1419.67957     633.6265     400.3246
   1419.66431     623.7239     393.9416   1419.66431     623.7239     393.9416
   1419.64905     613.7242     388.5156   1419.64905     613.7242     388.5156
   1419.63379     605.2678     382.5837   1419.63379     605.2678     382.5837
   1419.61853     597.3100     376.3241   1419.61853     597.3100     376.3241
   1419.60327     587.6350     371.4163   1419.60327     587.6350     371.4163
   1419.58801     579.5533     366.1418   1419.58801     579.5533     366.1418
   1419.57275     576.4836     363.5186   1419.57275     576.4836     363.5186
   1419.55750     572.8688     361.5644   1419.55750     572.8688     361.5644
   1419.54224     572.5627     359.9196   1419.54224     572.5627     359.9196
   1419.52698     570.4353     359.1461   1419.52698     570.4353     359.1461
   1419.51172     571.0609     358.9262   1419.51172     571.0609     358.9262
   1419.49646     570.4459     358.1764   1419.49646     570.4459     358.1764
   1419.48120     571.1665     357.6599   1419.48120     571.1665     357.6599
   1419.46594     570.3363     357.9469   1419.46594     570.3363     357.9469
   1419.45068     570.9923     357.6308   1419.45068     570.9923     357.6308
   1419.43542     571.4567     356.8269   1419.43542     571.4567     356.8269
   1419.42017     571.4002     357.6462   1419.42017     571.4002     357.6462
   1419.40491     572.0025     357.7910   1419.40491     572.0025     357.7910
   1419.38965     572.1393     357.1051   1419.38965     572.1393     357.1051
   1419.37439     572.6191     356.5742   1419.37439     572.6191     356.5742
   1419.35913     572.6067     356.6021   1419.35913     572.6067     356.6021
   1419.34387     573.3522     356.9593   1419.34387     573.3522     356.9593
   1419.32861     573.9866     355.7593   1419.32861     573.9866     355.7593
   1419.31335     573.6281     356.9171   1419.31335     573.6281     356.9171
   1419.29810     573.4017     356.2724   1419.29810     573.4017     356.2724
   1419.28284     573.6565     356.4026   1419.28284     573.6565     356.4026
   1419.26758     575.5706     355.9505   1419.26758     575.5706     355.9505
   1419.25232     574.7120     356.5672   1419.25232     574.7120     356.5672
   1419.23706     575.0818     356.0504   1419.23706     575.0818     356.0504
   1419.22180     576.4402     355.6871   1419.22180     576.4402     355.6871
   1419.20654     575.8303     356.7265   1419.20654     575.8303     356.7265
   1419.19128     576.1834     355.9434   1419.19128     576.1834     355.9434
   1419.17603     576.3769     356.4495   1419.17603     576.3769     356.4495
   1419.16077     576.5974     356.3284   1419.16077     576.5974     356.3284
   1419.14551     577.2114     356.4955   1419.14551     577.2114     356.4955
   1419.13025     578.0214     356.1221   1419.13025     578.0214     356.1221
   1419.11499     578.1155     356.1917   1419.11499     578.1155     356.1917
   1419.09973     578.0126     355.9820   1419.09973     578.0126     355.9820
   1419.08447     578.6081     356.5009   1419.08447     578.6081     356.5009
   1419.06921     578.7685     356.3785   1419.06921     578.7685     356.3785
   1419.05396     580.2634     356.8736   1419.05396     580.2634     356.8736
   1419.03870     579.5591     357.3133   1419.03870     579.5591     357.3133
   1419.02344     581.2824     357.2134   1419.02344     581.2824     357.2134
   1419.00818     581.7971     356.7604   1419.00818     581.7971     356.7604
   1418.99292     582.6215     357.3152   1418.99292     582.6215     357.3152
   1418.97766     583.0273     357.3759   1418.97766     583.0273     357.3759
   1418.96240     584.2443     357.5068   1418.96240     584.2443     357.5068
   1418.94714     583.8674     357.2854   1418.94714     583.8674     357.2854
   1418.93188     584.4659     357.4337   1418.93188     584.4659     357.4337
   1418.91663     584.3363     358.2177   1418.91663     584.3363     358.2177
   1418.90137     585.3652     358.3123   1418.90137     585.3652     358.3123
   1418.88611     585.8637     357.8058   1418.88611     585.8637     357.8058
   1418.87085     586.5368     357.9732   1418.87085     586.5368     357.9732
   1418.85559     587.6439     359.0774   1418.85559     587.6439     359.0774
   1418.84033     587.8874     358.6382   1418.84033     587.8874     358.6382
   1418.82507     587.8482     358.9147   1418.82507     587.8482     358.9147
   1418.80981     589.2177     359.5159   1418.80981     589.2177     359.5159
   1418.79456     588.9977     359.7440   1418.79456     588.9977     359.7440
   1418.77930     589.2112     359.6932   1418.77930     589.2112     359.6932
   1418.76404     590.1260     360.1492   1418.76404     590.1260     360.1492
   1418.74878     591.1708     359.5719   1418.74878     591.1708     359.5719
   1418.73352     591.0148     360.9295   1418.73352     591.0148     360.9295
   1418.71826     592.3105     360.8789   1418.71826     592.3105     360.8789
   1418.70300     593.2163     360.4965   1418.70300     593.2163     360.4965
   1418.68774     593.2081     361.4016   1418.68774     593.2081     361.4016
   1418.67249     594.1593     361.4534   1418.67249     594.1593     361.4534
   1418.65723     594.9601     362.0569   1418.65723     594.9601     362.0569
   1418.64197     595.7006     362.3665   1418.64197     595.7006     362.3665
   1418.62671     596.1517     361.9969   1418.62671     596.1517     361.9969
   1418.61145     597.2324     363.1225   1418.61145     597.2324     363.1225
   1418.59619     598.0914     363.3595   1418.59619     598.0914     363.3595
   1418.58093     598.3270     363.5420   1418.58093     598.3270     363.5420
   1418.56567     599.5618     363.9092   1418.56567     599.5618     363.9092
   1418.55042     600.4245     364.3846   1418.55042     600.4245     364.3846
   1418.53516     601.1539     364.3062   1418.53516     601.1539     364.3062
   1418.51990     601.9680     364.8255   1418.51990     601.9680     364.8255
   1418.50464     602.8185     365.2790   1418.50464     602.8185     365.2790
   1418.48938     603.3904     365.8622   1418.48938     603.3904     365.8622
   1418.47412     604.2298     366.2296   1418.47412     604.2298     366.2296
   1418.45886     605.6990     366.5830   1418.45886     605.6990     366.5830
   1418.44360     606.0714     367.3484   1418.44360     606.0714     367.3484
   1418.42834     606.5712     367.4344   1418.42834     606.5712     367.4344
   1418.41309     606.8353     367.9677   1418.41309     606.8353     367.9677
   1418.39783     608.3770     368.5320   1418.39783     608.3770     368.5320
   1418.38257     607.6913     368.0080   1418.38257     607.6913     368.0080
   1418.36731     609.7633     369.3316   1418.36731     609.7633     369.3316
   1418.35205     610.4965     369.7758   1418.35205     610.4965     369.7758
   1418.33679     612.4218     369.4700   1418.33679     612.4218     369.4700
   1418.32153     612.6535     370.7572   1418.32153     612.6535     370.7572
   1418.30627     613.6766     371.0708   1418.30627     613.6766     371.0708
   1418.29102     614.2538     371.3074   1418.29102     614.2538     371.3074
   1418.27576     615.0916     371.8791   1418.27576     615.0916     371.8791
   1418.26050     616.5680     372.8466   1418.26050     616.5680     372.8466
   1418.24524     615.8231     372.7791   1418.24524     615.8231     372.7791
   1418.22998     617.1732     373.2558   1418.22998     617.1732     373.2558
   1418.21472     619.3427     373.3252   1418.21472     619.3427     373.3252
   1418.19946     618.7719     373.7293   1418.19946     618.7719     373.7293
   1418.18420     620.7178     374.7406   1418.18420     620.7178     374.7406
   1418.16895     622.1535     374.6208   1418.16895     622.1535     374.6208
   1418.15369     623.2125     376.2461   1418.15369     623.2125     376.2461
   1418.13843     623.1662     376.2437   1418.13843     623.1662     376.2437
   1418.12317     623.5985     376.5428   1418.12317     623.5985     376.5428
   1418.10791     625.4158     377.4774   1418.10791     625.4158     377.4774
   1418.09265     626.3937     377.9849   1418.09265     626.3937     377.9849
   1418.07739     627.4585     378.4153   1418.07739     627.4585     378.4153
   1418.06213     628.3958     379.0251   1418.06213     628.3958     379.0251
   1418.04688     630.3102     379.4345   1418.04688     630.3102     379.4345
   1418.03162     630.9819     380.0838   1418.03162     630.9819     380.0838
   1418.01636     631.9665     380.9229   1418.01636     631.9665     380.9229
   1418.00110     632.8298     381.0664   1418.00110     632.8298     381.0664
   1417.98584     633.7698     381.3181   1417.98584     633.7698     381.3181
   1417.97058     635.2169     381.9860   1417.97058     635.2169     381.9860
   1417.95532     636.0616     382.6969   1417.95532     636.0616     382.6969
   1417.94006     635.4979     383.4302   1417.94006     635.4979     383.4302
   1417.92480     637.0062     383.5274   1417.92480     637.0062     383.5274
   1417.90955     637.8954     384.5441   1417.90955     637.8954     384.5441
   1417.89429     640.5259     384.8769   1417.89429     640.5259     384.8769
   1417.87903     641.3195     385.5069   1417.87903     641.3195     385.5069
   1417.86377     641.4493     386.3270   1417.86377     641.4493     386.3270
   1417.84851     641.9644     386.7480   1417.84851     641.9644     386.7480
   1417.83325     642.3922     387.5090   1417.83325     642.3922     387.5090
   1417.81799     644.1100     388.2661   1417.81799     644.1100     388.2661
   1417.80273     645.0881     388.8280   1417.80273     645.0881     388.8280
   1417.78748     645.9216     389.0259   1417.78748     645.9216     389.0259
   1417.77222     647.6022     389.8537   1417.77222     647.6022     389.8537
   1417.75696     648.6328     390.8971   1417.75696     648.6328     390.8971
   1417.74170     649.7460     391.2435   1417.74170     649.7460     391.2435
   1417.72644     651.1163     391.4683   1417.72644     651.1163     391.4683
   1417.71118     651.4748     392.6201   1417.71118     651.4748     392.6201
   1417.69592     653.6931     392.9095   1417.69592     653.6931     392.9095
   1417.68066     654.3552     393.3929   1417.68066     654.3552     393.3929
   1417.66541     655.0214     394.0017   1417.66541     655.0214     394.0017
   1417.65015     656.4006     395.0359   1417.65015     656.4006     395.0359
   1417.63489     657.1816     395.2705   1417.63489     657.1816     395.2705
   1417.61963     656.7603     395.4278   1417.61963     656.7603     395.4278
   1417.60437     659.9365     396.4808   1417.60437     659.9365     396.4808
   1417.58911     661.5073     396.8734   1417.58911     661.5073     396.8734
   1417.57385     661.2661     396.7392   1417.57385     661.2661     396.7392
   1417.55859     662.0612     398.3698   1417.55859     662.0612     398.3698
   1417.54333     662.7595     398.6411   1417.54333     662.7595     398.6411
   1417.52808     664.5548     399.2455   1417.52808     664.5548     399.2455
   1417.51282     665.2283     400.7262   1417.51282     665.2283     400.7262
   1417.49756     668.1510     401.0615   1417.49756     668.1510     401.0615
   1417.48230     667.7170     401.8901   1417.48230     667.7170     401.8901
   1417.46704     669.2880     402.4767   1417.46704     669.2880     402.4767
   1417.45178     670.0121     402.6272   1417.45178     670.0121     402.6272
   1417.43652     670.5746     403.8369   1417.43652     670.5746     403.8369
   1417.42126     671.1934     404.2621   1417.42126     671.1934     404.2621
   1417.40601     672.2439     404.0955   1417.40601     672.2439     404.0955
   1417.39075     674.2096     405.5101   1417.39075     674.2096     405.5101
   1417.37549     674.3414     405.3539   1417.37549     674.3414     405.3539
   1417.36023     676.0367     406.1792   1417.36023     676.0367     406.1792
   1417.34497     677.5393     406.6057   1417.34497     677.5393     406.6057
   1417.32971     676.9876     407.0215   1417.32971     676.9876     407.0215
   1417.31445     678.6218     407.9396   1417.31445     678.6218     407.9396
   1417.29919     679.3459     408.2547   1417.29919     679.3459     408.2547
   1417.28394     680.5375     408.3574   1417.28394     680.5375     408.3574
   1417.26868     681.5623     409.0740   1417.26868     681.5623     409.0740
   1417.25342     681.5201     410.2072   1417.25342     681.5201     410.2072
   1417.23816     683.9281     411.1614   1417.23816     683.9281     411.1614
   1417.22290     684.6221     411.3428   1417.22290     684.6221     411.3428
   1417.20764     685.4547     412.0317   1417.20764     685.4547     412.0317
   1417.19238     685.6937     411.6261   1417.19238     685.6937     411.6261
   1417.17712     687.1108     412.8682   1417.17712     687.1108     412.8682
   1417.16187     687.4599     413.4347   1417.16187     687.4599     413.4347
   1417.14661     687.6994     413.7877   1417.14661     687.6994     413.7877
   1417.13135     689.2395     414.6847   1417.13135     689.2395     414.6847
   1417.11609     689.7858     414.3752   1417.11609     689.7858     414.3752
   1417.10083     691.2334     414.9339   1417.10083     691.2334     414.9339
   1417.08557     692.1277     416.2746   1417.08557     692.1277     416.2746
   1417.07031     691.8959     415.4331   1417.07031     691.8959     415.4331
   1417.05505     693.8127     416.9525   1417.05505     693.8127     416.9525
   1417.03979     695.2516     416.6682   1417.03979     695.2516     416.6682
   1417.02454     694.4066     417.4186   1417.02454     694.4066     417.4186
   1417.00928     695.7372     417.7804   1417.00928     695.7372     417.7804
   1416.99402     697.2324     418.6076   1416.99402     697.2324     418.6076
   1416.97876     696.5326     418.8001   1416.97876     696.5326     418.8001
   1416.96350     696.7811     419.3902   1416.96350     696.7811     419.3902
   1416.94824     698.0261     419.8241   1416.94824     698.0261     419.8241
   1416.93298     700.0067     420.4341   1416.93298     700.0067     420.4341
   1416.91772     698.3179     420.3695   1416.91772     698.3179     420.3695
   1416.90247     699.1704     421.3069   1416.90247     699.1704     421.3069
   1416.88721     701.5134     421.7905   1416.88721     701.5134     421.7905
   1416.87195     702.4551     421.6340   1416.87195     702.4551     421.6340
   1416.85669     701.5351     421.8995   1416.85669     701.5351     421.8995
   1416.84143     702.4987     421.8735   1416.84143     702.4987     421.8735
   1416.82617     704.0051     422.2838   1416.82617     704.0051     422.2838
   1416.81091     703.8118     422.4169   1416.81091     703.8118     422.4169
   1416.79565     704.1925     423.3887   1416.79565     704.1925     423.3887
   1416.78040     705.0352     423.3312   1416.78040     705.0352     423.3312
   1416.76514     705.4984     424.2033   1416.76514     705.4984     424.2033
   1416.74988     705.0179     424.0668   1416.74988     705.0179     424.0668
   1416.73462     705.9273     424.5710   1416.73462     705.9273     424.5710
   1416.71936     705.7107     424.6336   1416.71936     705.7107     424.6336
   1416.70410     706.8745     425.2126   1416.70410     706.8745     425.2126
   1416.68884     706.7161     425.4065   1416.68884     706.7161     425.4065
   1416.67358     706.7547     425.6790   1416.67358     706.7547     425.6790
   1416.65833     707.4252     424.8657   1416.65833     707.4252     424.8657
   1416.64307     706.4609     426.1094   1416.64307     706.4609     426.1094
   1416.62781     708.2602     426.2582   1416.62781     708.2602     426.2582
   1416.61255     708.1674     426.5332   1416.61255     708.1674     426.5332
   1416.59729     708.7374     426.4097   1416.59729     708.7374     426.4097
   1416.58203     707.9785     426.0920   1416.58203     707.9785     426.0920
   1416.56677     707.4088     426.3501   1416.56677     707.4088     426.3501
   1416.55151     708.7645     426.6998   1416.55151     708.7645     426.6998
   1416.53625     708.9184     426.7020   1416.53625     708.9184     426.7020
   1416.52100     708.8002     427.2646   1416.52100     708.8002     427.2646
   1416.50574     708.7645     426.7117   1416.50574     708.7645     426.7117
   1416.49048     708.6953     427.0407   1416.49048     708.6953     427.0407
   1416.47522     708.8516     426.6163   1416.47522     708.8516     426.6163
   1416.45996     708.4496     427.5274   1416.45996     708.4496     427.5274
   1416.44470     708.1046     426.7120   1416.44470     708.1046     426.7120
   1416.42944     709.2802     426.7622   1416.42944     709.2802     426.7622
   1416.41418     708.9607     426.3941   1416.41418     708.9607     426.3941
   1416.39893     707.1018     426.4929   1416.39893     707.1018     426.4929
   1416.38367     708.6850     426.9942   1416.38367     708.6850     426.9942
   1416.36841     710.0704     426.7375   1416.36841     710.0704     426.7375
   1416.35315     707.8461     426.8550   1416.35315     707.8461     426.8550
   1416.33789     707.4514     426.8236   1416.33789     707.4514     426.8236
   1416.32263     707.9916     426.8855   1416.32263     707.9916     426.8855
   1416.30737     707.0842     426.1437   1416.30737     707.0842     426.1437
   1416.29211     708.0310     426.1030   1416.29211     708.0310     426.1030
   1416.27686     705.9896     427.0733   1416.27686     705.9896     427.0733
   1416.26160     705.8760     426.4144   1416.26160     705.8760     426.4144
   1416.24634     706.7283     425.7182   1416.24634     706.7283     425.7182
   1416.23108     704.6345     426.6694   1416.23108     704.6345     426.6694
   1416.21582     706.4721     426.7434   1416.21582     706.4721     426.7434
   1416.20056     704.9975     425.3465   1416.20056     704.9975     425.3465
   1416.18530     703.8276     425.6705   1416.18530     703.8276     425.6705
   1416.17004     705.0781     424.8740   1416.17004     705.0781     424.8740
   1416.15479     703.4564     426.0666   1416.15479     703.4564     426.0666
   1416.13953     703.1591     425.0336   1416.13953     703.1591     425.0336
   1416.12427     703.3650     425.0865   1416.12427     703.3650     425.0865
   1416.10901     703.2358     424.3121   1416.10901     703.2358     424.3121
   1416.09375     702.2295     425.2623   1416.09375     702.2295     425.2623
   1416.07849     700.6119     424.7093   1416.07849     700.6119     424.7093
   1416.06323     701.6166     423.3470   1416.06323     701.6166     423.3470
   1416.04797     700.7703     424.2457   1416.04797     700.7703     424.2457
   1416.03271     700.2313     424.4286   1416.03271     700.2313     424.4286
   1416.01746     698.6251     423.5852   1416.01746     698.6251     423.5852
   1416.00220     698.7839     423.6437   1416.00220     698.7839     423.6437
   1415.98694     696.7748     421.8921   1415.98694     696.7748     421.8921
   1415.97168     697.2957     422.7859   1415.97168     697.2957     422.7859
   1415.95642     697.4156     422.7381   1415.95642     697.4156     422.7381
   1415.94116     695.8998     421.9572   1415.94116     695.8998     421.9572
   1415.92590     696.0090     421.9820   1415.92590     696.0090     421.9820
   1415.91064     694.4542     421.7564   1415.91064     694.4542     421.7564
   1415.89539     694.1348     421.3984   1415.89539     694.1348     421.3984
   1415.88013     692.9241     421.4466   1415.88013     692.9241     421.4466
   1415.86487     691.6556     421.1497   1415.86487     691.6556     421.1497
   1415.84961     692.7498     421.0720   1415.84961     692.7498     421.0720
   1415.83435     692.2123     421.2299   1415.83435     692.2123     421.2299
   1415.81909     689.8865     420.0184   1415.81909     689.8865     420.0184
   1415.80383     690.1776     420.0559   1415.80383     690.1776     420.0559
   1415.78857     689.9121     419.0844   1415.78857     689.9121     419.0844
   1415.77332     688.4088     418.9841   1415.77332     688.4088     418.9841
   1415.75806     687.1599     419.3942   1415.75806     687.1599     419.3942
   1415.74280     686.1912     418.4323   1415.74280     686.1912     418.4323
   1415.72754     685.1501     418.5441   1415.72754     685.1501     418.5441
   1415.71228     684.1778     418.5299   1415.71228     684.1778     418.5299
   1415.69702     683.2626     417.2335   1415.69702     683.2626     417.2335
   1415.68176     683.5372     417.3925   1415.68176     683.5372     417.3925
   1415.66650     682.9481     417.5626   1415.66650     682.9481     417.5626
   1415.65125     682.1998     417.2328   1415.65125     682.1998     417.2328
   1415.63599     680.8740     416.8768   1415.63599     680.8740     416.8768
   1415.62073     681.0979     416.3437   1415.62073     681.0979     416.3437
   1415.60547     679.2845     415.7242   1415.60547     679.2845     415.7242
   1415.59021     678.5901     415.8758   1415.59021     678.5901     415.8758
   1415.57495     677.1926     415.2266   1415.57495     677.1926     415.2266
   1415.55969     674.6917     415.4544   1415.55969     674.6917     415.4544
   1415.54443     674.6523     414.4493   1415.54443     674.6523     414.4493
   1415.52917     673.7578     414.3623   1415.52917     673.7578     414.3623
   1415.51392     673.1568     414.2603   1415.51392     673.1568     414.2603
   1415.49866     671.9344     413.0519   1415.49866     671.9344     413.0519
   1415.48340     671.4987     412.6827   1415.48340     671.4987     412.6827
   1415.46814     670.8645     412.9153   1415.46814     670.8645     412.9153
   1415.45288     669.9786     413.5581   1415.45288     669.9786     413.5581
   1415.43762     667.8741     412.2389   1415.43762     667.8741     412.2389
   1415.42236     666.6051     411.4212   1415.42236     666.6051     411.4212
   1415.40710     666.4866     410.5551   1415.40710     666.4866     410.5551
   1415.39185     664.9871     410.9572   1415.39185     664.9871     410.9572
   1415.37659     664.2653     411.2033   1415.37659     664.2653     411.2033
   1415.36133     662.7272     411.0138   1415.36133     662.7272     411.0138
   1415.34607     661.1323     409.9745   1415.34607     661.1323     409.9745
   1415.33081     660.8486     409.5514   1415.33081     660.8486     409.5514
   1415.31555     659.3389     409.3206   1415.31555     659.3389     409.3206
   1415.30029     658.1794     409.0094   1415.30029     658.1794     409.0094
   1415.28503     656.9044     409.0685   1415.28503     656.9044     409.0685
   1415.26978     654.8162     407.5825   1415.26978     654.8162     407.5825
   1415.25452     654.5938     407.4219   1415.25452     654.5938     407.4219
   1415.23926     651.6912     407.0428   1415.23926     651.6912     407.0428
   1415.22400     651.8372     406.2946   1415.22400     651.8372     406.2946
   1415.20874     649.6747     406.5015   1415.20874     649.6747     406.5015
   1415.19348     648.6256     406.0193   1415.19348     648.6256     406.0193
   1415.17822     647.4536     405.4648   1415.17822     647.4536     405.4648
   1415.16296     646.7590     404.7834   1415.16296     646.7590     404.7834
   1415.14771     644.6226     404.2182   1415.14771     644.6226     404.2182
   1415.13245     644.1731     403.8654   1415.13245     644.1731     403.8654
   1415.11719     641.4642     403.2439   1415.11719     641.4642     403.2439
   1415.10193     640.7429     402.6129   1415.10193     640.7429     402.6129
   1415.08667     640.0624     402.6275   1415.08667     640.0624     402.6275
   1415.07141     638.1976     402.2559   1415.07141     638.1976     402.2559
   1415.05615     636.0534     402.1013   1415.05615     636.0534     402.1013
   1415.04089     634.8837     401.2234   1415.04089     634.8837     401.2234
   1415.02563     633.1962     400.5644   1415.02563     633.1962     400.5644
   1415.01038     632.8447     399.7879   1415.01038     632.8447     399.7879
   1414.99512     630.8440     399.7698   1414.99512     630.8440     399.7698
   1414.97986     628.4582     399.0919   1414.97986     628.4582     399.0919
   1414.96460     627.2717     398.6142   1414.96460     627.2717     398.6142
   1414.94934     625.5604     398.2270   1414.94934     625.5604     398.2270
   1414.93408     624.0533     396.6750   1414.93408     624.0533     396.6750
   1414.91882     623.5093     396.1577   1414.91882     623.5093     396.1577
   1414.90356     621.1492     396.1172   1414.90356     621.1492     396.1172
   1414.88831     620.3906     395.7571   1414.88831     620.3906     395.7571
   1414.87305     618.7078     394.1501   1414.87305     618.7078     394.1501
   1414.85779     616.2864     394.0667   1414.85779     616.2864     394.0667
   1414.84253     614.4567     394.2017   1414.84253     614.4567     394.2017
   1414.82727     613.5958     393.1725   1414.82727     613.5958     393.1725
   1414.81201     610.7972     392.9184   1414.81201     610.7972     392.9184
   1414.79675     609.2792     392.5338   1414.79675     609.2792     392.5338
   1414.78149     608.5834     391.7263   1414.78149     608.5834     391.7263
   1414.76624     606.1456     390.4866   1414.76624     606.1456     390.4866
   1414.75098     604.5292     389.7870   1414.75098     604.5292     389.7870
   1414.73572     602.3034     389.4685   1414.73572     602.3034     389.4685
   1414.72046     600.9031     388.7914   1414.72046     600.9031     388.7914
   1414.70520     598.0071     387.9233   1414.70520     598.0071     387.9233
   1414.68994     596.4221     387.2182   1414.68994     596.4221     387.2182
   1414.67468     594.8970     386.5914   1414.67468     594.8970     386.5914
   1414.65942     593.2265     386.0206   1414.65942     593.2265     386.0206
   1414.64417     591.1330     385.6100   1414.64417     591.1330     385.6100
   1414.62891     589.8127     384.6235   1414.62891     589.8127     384.6235
   1414.61365     587.2567     384.5977   1414.61365     587.2567     384.5977
   1414.59839     585.4645     383.0109   1414.59839     585.4645     383.0109
   1414.58313     583.6823     382.2846   1414.58313     583.6823     382.2846
   1414.56787     580.6304     381.4503   1414.56787     580.6304     381.4503
   1414.55261     579.3223     380.1233   1414.55261     579.3223     380.1233
   1414.53735     577.4719     379.7809   1414.53735     577.4719     379.7809
   1414.52209     575.2745     379.0228   1414.52209     575.2745     379.0228
   1414.50684     572.9961     377.7973   1414.50684     572.9961     377.7973
   1414.49158     570.9293     377.1138   1414.49158     570.9293     377.1138
   1414.47632     568.8064     376.1228   1414.47632     568.8064     376.1228
   1414.46106     566.9292     375.0797   1414.46106     566.9292     375.0797
   1414.44580     564.3564     374.2555   1414.44580     564.3564     374.2555
   1414.43054     563.2639     373.4629   1414.43054     563.2639     373.4629
   1414.41528     559.6951     373.1531   1414.41528     559.6951     373.1531
   1414.40002     557.2640     372.6460   1414.40002     557.2640     372.6460
   1414.38477     556.2094     371.5426   1414.38477     556.2094     371.5426
   1414.36951     553.9642     370.8801   1414.36951     553.9642     370.8801
   1414.35425     550.3849     369.6234   1414.35425     550.3849     369.6234
   1414.33899     549.9571     369.2289   1414.33899     549.9571     369.2289
   1414.32373     546.8196     367.8682   1414.32373     546.8196     367.8682
   1414.30847     543.4798     366.9008   1414.30847     543.4798     366.9008
   1414.29321     542.7454     366.0217   1414.29321     542.7454     366.0217
   1414.27795     540.1288     364.6465   1414.27795     540.1288     364.6465
   1414.26270     537.8518     363.2851   1414.26270     537.8518     363.2851
   1414.24744     535.4042     363.1593   1414.24744     535.4042     363.1593
   1414.23218     532.6747     361.4082   1414.23218     532.6747     361.4082
   1414.21692     530.8172     360.6397   1414.21692     530.8172     360.6397
   1414.20166     528.7090     359.7608   1414.20166     528.7090     359.7608
   1414.18640     526.4744     358.8988   1414.18640     526.4744     358.8988
   1414.17114     523.6789     356.9785   1414.17114     523.6789     356.9785
   1414.15588     521.1964     357.4623   1414.15588     521.1964     357.4623
   1414.14062     518.9896     355.7896   1414.14062     518.9896     355.7896
   1414.12537     515.4096     354.9836   1414.12537     515.4096     354.9836
   1414.11011     514.3479     353.5978   1414.11011     514.3479     353.5978
   1414.09485     510.6971     352.1882   1414.09485     510.6971     352.1882
   1414.07959     509.0646     351.2828   1414.07959     509.0646     351.2828
   1414.06433     505.3977     350.5651   1414.06433     505.3977     350.5651
   1414.04907     503.9657     349.0696   1414.04907     503.9657     349.0696
   1414.03381     500.6653     347.7875   1414.03381     500.6653     347.7875
   1414.01855     499.2627     346.8460   1414.01855     499.2627     346.8460
   1414.00330     520.8363     353.3772   1414.00330     520.8363     353.3772
   1413.98804     495.6483     345.4497   1413.98804     495.6483     345.4497
   1413.97278     490.9283     343.5361   1413.97278     490.9283     343.5361
   1413.95752     488.2483     341.9458   1413.95752     488.2483     341.9458
   1413.94226     485.6567     340.8165   1413.94226     485.6567     340.8165
   1413.92700     483.7276     339.6850   1413.92700     483.7276     339.6850
   1413.91174     480.6872     338.2321   1413.91174     480.6872     338.2321
   1413.89648     478.1149     337.3582   1413.89648     478.1149     337.3582
   1413.88123     475.4452     336.4129   1413.88123     475.4452     336.4129
   1413.86597     472.9243     334.3806   1413.86597     472.9243     334.3806
   1413.85071     470.2733     333.6668   1413.85071     470.2733     333.6668
   1413.83545     467.3711     332.3561   1413.83545     467.3711     332.3561
   1413.82019     465.5435     330.8764   1413.82019     465.5435     330.8764
   1413.80493     462.4138     329.7373   1413.80493     462.4138     329.7373
   1413.78967     460.3500     328.7873   1413.78967     460.3500     328.7873
   1413.77441     457.5129     327.8522   1413.77441     457.5129     327.8522
   1413.75916     455.2960     326.4022   1413.75916     455.2960     326.4022
   1413.74390     452.8979     325.1053   1413.74390     452.8979     325.1053
   1413.72864     449.9535     324.0014   1413.72864     449.9535     324.0014
   1413.71338     447.4987     321.9980   1413.71338     447.4987     321.9980
   1413.69812     444.5882     320.9400   1413.69812     444.5882     320.9400
   1413.68286     442.7533     320.1310   1413.68286     442.7533     320.1310
   1413.66760     439.3815     318.9224   1413.66760     439.3815     318.9224
   1413.65234     437.1996     317.4896   1413.65234     437.1996     317.4896
   1413.63708     434.7396     316.1241   1413.63708     434.7396     316.1241
   1413.62183     431.9695     314.5667   1413.62183     431.9695     314.5667
   1413.60657     428.8730     313.7020   1413.60657     428.8730     313.7020
   1413.59131     426.5446     312.2241   1413.59131     426.5446     312.2241
   1413.57605     424.1140     310.9088   1413.57605     424.1140     310.9088
   1413.56079     421.3569     309.7025   1413.56079     421.3569     309.7025
   1413.54553     419.1261     308.8433   1413.54553     419.1261     308.8433
   1413.53027     416.7280     306.8877   1413.53027     416.7280     306.8877
   1413.51501     414.5240     305.7974   1413.51501     414.5240     305.7974
   1413.49976     412.5522     304.1755   1413.49976     412.5522     304.1755
   1413.48450     409.1583     303.1623   1413.48450     409.1583     303.1623
   1413.46924     406.3491     302.0162   1413.46924     406.3491     302.0162
   1413.45398     404.1427     300.2874   1413.45398     404.1427     300.2874
   1413.43872     401.2923     299.2759   1413.43872     401.2923     299.2759
   1413.42346     399.2325     297.9077   1413.42346     399.2325     297.9077
   1413.40820     396.7892     296.5724   1413.40820     396.7892     296.5724
   1413.39294     394.2850     295.5941   1413.39294     394.2850     295.5941
   1413.37769     392.1328     293.7538   1413.37769     392.1328     293.7538
   1413.36243     389.6763     292.8004   1413.36243     389.6763     292.8004
   1413.34717     386.7783     291.4296   1413.34717     386.7783     291.4296
   1413.33191     384.4423     290.2529   1413.33191     384.4423     290.2529
   1413.31665     382.4097     289.2781   1413.31665     382.4097     289.2781
   1413.30139     380.2711     287.9086   1413.30139     380.2711     287.9086
   1413.28613     378.0949     286.7712   1413.28613     378.0949     286.7712
   1413.27087     376.4727     284.7210   1413.27087     376.4727     284.7210
   1413.25562     373.7727     283.9315   1413.25562     373.7727     283.9315
   1413.24036     371.3156     282.6277   1413.24036     371.3156     282.6277
   1413.22510     369.4603     281.9915   1413.22510     369.4603     281.9915
   1413.20984     367.0420     280.4156   1413.20984     367.0420     280.4156
   1413.19458     365.7426     279.4621   1413.19458     365.7426     279.4621
   1413.17932     363.0301     277.6199   1413.17932     363.0301     277.6199
   1413.16406     360.9252     277.0528   1413.16406     360.9252     277.0528
   1413.14880     358.8618     275.7207   1413.14880     358.8618     275.7207
   1413.13354     357.0390     274.5462   1413.13354     357.0390     274.5462
   1413.11829     354.8603     273.6450   1413.11829     354.8603     273.6450
   1413.10303     352.8697     272.5359   1413.10303     352.8697     272.5359
   1413.08777     350.7828     271.2857   1413.08777     350.7828     271.2857
   1413.07251     348.9448     269.6383   1413.07251     348.9448     269.6383
   1413.05725     346.8694     268.7425   1413.05725     346.8694     268.7425
   1413.04199     344.7856     267.7078   1413.04199     344.7856     267.7078
   1413.02673     343.7480     267.3919   1413.02673     343.7480     267.3919
   1413.01147     341.2726     266.0426   1413.01147     341.2726     266.0426
   1412.99622     340.1626     264.6814   1412.99622     340.1626     264.6814
   1412.98096     338.2775     263.8706   1412.98096     338.2775     263.8706
   1412.96570     336.0479     262.9932   1412.96570     336.0479     262.9932
   1412.95044     335.1612     262.3484   1412.95044     335.1612     262.3484
   1412.93518     333.8113     260.6299   1412.93518     333.8113     260.6299
   1412.91992     331.4640     259.6936   1412.91992     331.4640     259.6936
   1412.90466     329.8743     258.8830   1412.90466     329.8743     258.8830
   1412.88940     328.5302     258.1212   1412.88940     328.5302     258.1212
   1412.87415     326.8740     257.2681   1412.87415     326.8740     257.2681
   1412.85889     325.1391     256.2735   1412.85889     325.1391     256.2735
   1412.84363     324.6133     255.2845   1412.84363     324.6133     255.2845
   1412.82837     322.8784     254.5840   1412.82837     322.8784     254.5840
   1412.81311     321.3014     253.8406   1412.81311     321.3014     253.8406
   1412.79785     320.0712     253.3859   1412.79785     320.0712     253.3859
   1412.78259     319.0079     252.1488   1412.78259     319.0079     252.1488
   1412.76733     317.3342     251.2218   1412.76733     317.3342     251.2218
   1412.75208     316.7544     250.5636   1412.75208     316.7544     250.5636
   1412.73682     315.6192     250.0382   1412.73682     315.6192     250.0382
   1412.72156     314.4231     249.0522   1412.72156     314.4231     249.0522
   1412.70630     313.5816     248.4822   1412.70630     313.5816     248.4822
   1412.69104     312.4125     248.0389   1412.69104     312.4125     248.0389
   1412.67578     311.1967     247.2328   1412.67578     311.1967     247.2328
   1412.66052     310.3162     246.7790   1412.66052     310.3162     246.7790
   1412.64526     309.4452     246.5516   1412.64526     309.4452     246.5516
   1412.63000     308.9693     245.7752   1412.63000     308.9693     245.7752
   1412.61475     308.2211     245.4772   1412.61475     308.2211     245.4772
   1412.59949     307.3405     244.5282   1412.59949     307.3405     244.5282
   1412.58423     306.4981     244.3175   1412.58423     306.4981     244.3175
   1412.56897     305.2060     244.2659   1412.56897     305.2060     244.2659
   1412.55371     305.2359     243.5888   1412.55371     305.2359     243.5888
   1412.53845     304.6775     243.5068   1412.53845     304.6775     243.5068
   1412.52319     304.1063     242.7098   1412.52319     304.1063     242.7098
   1412.50793     303.5406     242.4308   1412.50793     303.5406     242.4308
   1412.49268     303.5265     243.0002   1412.49268     303.5265     243.0002
   1412.47742     302.7369     242.0085   1412.47742     302.7369     242.0085
   1412.46216     302.5935     241.9224   1412.46216     302.5935     241.9224
   1412.44690     301.5971     241.9753   1412.44690     301.5971     241.9753
   1412.43164     302.1543     241.7153   1412.43164     302.1543     241.7153
   1412.41638     301.5660     241.5550   1412.41638     301.5660     241.5550
   1412.40112     301.5185     242.0028   1412.40112     301.5185     242.0028
   1412.38586     301.5983     241.7631   1412.38586     301.5983     241.7631
   1412.37061     301.3442     241.4705   1412.37061     301.3442     241.4705
   1412.35535     301.6443     241.3713   1412.35535     301.6443     241.3713
   1412.34009     301.2790     241.6401   1412.34009     301.2790     241.6401
   1412.32483     300.9583     241.5663   1412.32483     300.9583     241.5663
   1412.30957     301.8780     242.2574   1412.30957     301.8780     242.2574
   1412.29431     301.3124     241.9206   1412.29431     301.3124     241.9206
   1412.27905     301.9220     242.0437   1412.27905     301.9220     242.0437
   1412.26379     302.2208     242.2034   1412.26379     302.2208     242.2034
   1412.24854     302.5462     242.5096   1412.24854     302.5462     242.5096
   1412.23328     302.8427     242.6365   1412.23328     302.8427     242.6365
   1412.21802     302.9827     243.3056   1412.21802     302.9827     243.3056
   1412.20276     303.3491     243.9711   1412.20276     303.3491     243.9711