#     FILENAME=!Skynet_57535_lach-hhg-247-2_20900_21315.cyb.fits
#     BASENAME=Skynet_57535_lach-hhg-247-2_20900_21315
#     SRC_NAME=lach-hhg-247-2
#     OBSERVER=hhgmadison16_9500
#     DATE_OBS=2016-05-27T21:36:06.810
#        OBSID=20900
#      SCANNUM=21315
#          MJD=57535.9011
#          UTC=77856
#     SCANTYPE=track
#     DATAMODE=HIRES
#     TUNEFREQ=1420.0000
# Actual_FREQ1=1420.0000
# Actual_FREQ2=1420.0000
#    LO1Tuning=6870.000
#     RFFILTER=1355_1435
#        OBSBW=-15.6250
#        NCHAN=1024 
#        FOCUS=37.1148
#           RA=07:59:59.51
#          DEC=-29:54:16.41
#      RA(hrs)=7.999900
#     DEC(deg)=-29.904600
#    AZIM(deg)=188.664
#    ELEV(deg)=20.846
#     IFattens=10.00, 9.00
#      WARNING=None
#    TCAL_XL1=7.9635
#    TCAL_YR1=9.1340
#    TCAL_XL2=7.9635
#    TCAL_YR2=9.1340
#     TRX_XL1=11.7060
#     TRX_YR1=11.7060
#     TRX_XL2=11.7060
#     TRX_YR2=11.7060
#        TAVE=1.0000
#Freq1(MHz)          XL1          YR1  Freq2(MHz)          XL2          YR2 

   1427.81250     383.0884     244.4815   1427.81250     383.0884     244.4815
   1427.79724     383.6034     244.0679   1427.79724     383.6034     244.0679
   1427.78198     384.2513     244.2466   1427.78198     384.2513     244.2466
   1427.76672     385.1654     244.9542   1427.76672     385.1654     244.9542
   1427.75146     385.6352     244.9143   1427.75146     385.6352     244.9143
   1427.73621     386.9185     245.9441   1427.73621     386.9185     245.9441
   1427.72095     387.8997     245.8791   1427.72095     387.8997     245.8791
   1427.70569     388.9788     246.4249   1427.70569     388.9788     246.4249
   1427.69043     390.1284     247.2985   1427.69043     390.1284     247.2985
   1427.67517     390.6726     247.3349   1427.67517     390.6726     247.3349
   1427.65991     391.5950     248.1942   1427.65991     391.5950     248.1942
   1427.64465     392.7926     248.7368   1427.64465     392.7926     248.7368
   1427.62939     394.2426     249.7602   1427.62939     394.2426     249.7602
   1427.61414     395.2219     250.2424   1427.61414     395.2219     250.2424
   1427.59888     397.0410     250.4369   1427.59888     397.0410     250.4369
   1427.58362     397.8863     251.7344   1427.58362     397.8863     251.7344
   1427.56836     399.8860     252.2883   1427.56836     399.8860     252.2883
   1427.55310     401.1296     253.1699   1427.55310     401.1296     253.1699
   1427.53784     402.6208     253.6061   1427.53784     402.6208     253.6061
   1427.52258     404.2502     254.7363   1427.52258     404.2502     254.7363
   1427.50732     405.3752     255.9810   1427.50732     405.3752     255.9810
   1427.49207     407.7816     256.5122   1427.49207     407.7816     256.5122
   1427.47681     409.6403     257.6527   1427.47681     409.6403     257.6527
   1427.46155     411.1135     258.7527   1427.46155     411.1135     258.7527
   1427.44629     412.2874     259.6065   1427.44629     412.2874     259.6065
   1427.43103     414.4343     260.6210   1427.43103     414.4343     260.6210
   1427.41577     416.7184     261.8284   1427.41577     416.7184     261.8284
   1427.40051     418.6317     263.1887   1427.40051     418.6317     263.1887
   1427.38525     420.4825     264.4522   1427.38525     420.4825     264.4522
   1427.37000     422.0294     265.2487   1427.37000     422.0294     265.2487
   1427.35474     424.4793     266.9964   1427.35474     424.4793     266.9964
   1427.33948     426.4242     268.1072   1427.33948     426.4242     268.1072
   1427.32422     427.7663     269.2623   1427.32422     427.7663     269.2623
   1427.30896     430.0191     270.8880   1427.30896     430.0191     270.8880
   1427.29370     432.6477     272.1857   1427.29370     432.6477     272.1857
   1427.27844     434.7312     273.8140   1427.27844     434.7312     273.8140
   1427.26318     437.2012     275.0712   1427.26318     437.2012     275.0712
   1427.24792     438.9869     276.7488   1427.24792     438.9869     276.7488
   1427.23267     441.5019     278.0133   1427.23267     441.5019     278.0133
   1427.21741     443.4607     279.4608   1427.21741     443.4607     279.4608
   1427.20215     446.3329     281.1698   1427.20215     446.3329     281.1698
   1427.18689     448.2795     282.3244   1427.18689     448.2795     282.3244
   1427.17163     450.7219     283.9244   1427.17163     450.7219     283.9244
   1427.15637     453.5055     286.0767   1427.15637     453.5055     286.0767
   1427.14111     455.4617     287.5369   1427.14111     455.4617     287.5369
   1427.12585     458.1973     289.1961   1427.12585     458.1973     289.1961
   1427.11060     461.2059     290.9022   1427.11060     461.2059     290.9022
   1427.09534     462.7732     292.3862   1427.09534     462.7732     292.3862
   1427.08008     465.7769     294.6165   1427.08008     465.7769     294.6165
   1427.06482     467.8950     296.1331   1427.06482     467.8950     296.1331
   1427.04956     471.0406     298.1858   1427.04956     471.0406     298.1858
   1427.03430     473.7303     299.1967   1427.03430     473.7303     299.1967
   1427.01904     476.0519     301.6912   1427.01904     476.0519     301.6912
   1427.00378     479.4505     303.1904   1427.00378     479.4505     303.1904
   1426.98853     481.6640     305.1469   1426.98853     481.6640     305.1469
   1426.97327     484.1765     307.1686   1426.97327     484.1765     307.1686
   1426.95801     486.9621     309.1562   1426.95801     486.9621     309.1562
   1426.94275     490.0584     310.1549   1426.94275     490.0584     310.1549
   1426.92749     492.4924     313.2365   1426.92749     492.4924     313.2365
   1426.91223     495.9076     314.7939   1426.91223     495.9076     314.7939
   1426.89697     498.1691     317.0858   1426.89697     498.1691     317.0858
   1426.88171     501.7863     319.0207   1426.88171     501.7863     319.0207
   1426.86646     503.9283     320.4821   1426.86646     503.9283     320.4821
   1426.85120     506.8859     322.8430   1426.85120     506.8859     322.8430
   1426.83594     509.4400     325.1459   1426.83594     509.4400     325.1459
   1426.82068     512.1437     326.6584   1426.82068     512.1437     326.6584
   1426.80542     515.3502     329.0129   1426.80542     515.3502     329.0129
   1426.79016     517.6909     331.2468   1426.79016     517.6909     331.2468
   1426.77490     521.3360     332.9064   1426.77490     521.3360     332.9064
   1426.75964     523.8219     335.2250   1426.75964     523.8219     335.2250
   1426.74438     526.7556     337.5163   1426.74438     526.7556     337.5163
   1426.72913     528.9203     339.5217   1426.72913     528.9203     339.5217
   1426.71387     532.6696     341.6104   1426.71387     532.6696     341.6104
   1426.69861     535.4543     343.9860   1426.69861     535.4543     343.9860
   1426.68335     538.1884     345.3112   1426.68335     538.1884     345.3112
   1426.66809     541.5068     347.9701   1426.66809     541.5068     347.9701
   1426.65283     544.0969     349.7251   1426.65283     544.0969     349.7251
   1426.63757     546.6295     351.6678   1426.63757     546.6295     351.6678
   1426.62231     551.1202     354.0625   1426.62231     551.1202     354.0625
   1426.60706     553.8152     356.3601   1426.60706     553.8152     356.3601
   1426.59180     555.4542     358.6609   1426.59180     555.4542     358.6609
   1426.57654     558.4673     360.4694   1426.57654     558.4673     360.4694
   1426.56128     560.7399     363.1002   1426.56128     560.7399     363.1002
   1426.54602     564.0009     365.6649   1426.54602     564.0009     365.6649
   1426.53076     566.9031     367.0228   1426.53076     566.9031     367.0228
   1426.51550     569.9661     369.1187   1426.51550     569.9661     369.1187
   1426.50024     571.6165     371.7224   1426.50024     571.6165     371.7224
   1426.48499     576.0048     373.7701   1426.48499     576.0048     373.7701
   1426.46973     578.7101     375.8875   1426.46973     578.7101     375.8875
   1426.45447     581.9680     377.9259   1426.45447     581.9680     377.9259
   1426.43921     584.2463     380.3188   1426.43921     584.2463     380.3188
   1426.42395     586.3213     382.2747   1426.42395     586.3213     382.2747
   1426.40869     589.2501     384.1826   1426.40869     589.2501     384.1826
   1426.39343     592.5919     386.6325   1426.39343     592.5919     386.6325
   1426.37817     595.0218     388.7247   1426.37817     595.0218     388.7247
   1426.36292     597.5596     390.3195   1426.36292     597.5596     390.3195
   1426.34766     600.8351     392.1961   1426.34766     600.8351     392.1961
   1426.33240     602.6602     394.0945   1426.33240     602.6602     394.0945
   1426.31714     605.9728     397.0210   1426.31714     605.9728     397.0210
   1426.30188     608.5630     398.4151   1426.30188     608.5630     398.4151
   1426.28662     611.6091     399.9235   1426.28662     611.6091     399.9235
   1426.27136     614.0889     403.1251   1426.27136     614.0889     403.1251
   1426.25610     617.4992     405.1864   1426.25610     617.4992     405.1864
   1426.24084     619.8911     405.9946   1426.24084     619.8911     405.9946
   1426.22559     622.0856     409.8635   1426.22559     622.0856     409.8635
   1426.21033     625.3022     410.5156   1426.21033     625.3022     410.5156
   1426.19507     627.9849     413.3056   1426.19507     627.9849     413.3056
   1426.17981     629.0522     415.2156   1426.17981     629.0522     415.2156
   1426.16455     632.5361     417.3672   1426.16455     632.5361     417.3672
   1426.14929     635.4315     419.1403   1426.14929     635.4315     419.1403
   1426.13403     636.8891     421.3010   1426.13403     636.8891     421.3010
   1426.11877     639.3431     423.1680   1426.11877     639.3431     423.1680
   1426.10352     643.1859     425.8475   1426.10352     643.1859     425.8475
   1426.08826     645.0264     427.0646   1426.08826     645.0264     427.0646
   1426.07300     648.0503     428.9503   1426.07300     648.0503     428.9503
   1426.05774     649.8373     431.3336   1426.05774     649.8373     431.3336
   1426.04248     651.6200     432.7929   1426.04248     651.6200     432.7929
   1426.02722     654.9487     435.3253   1426.02722     654.9487     435.3253
   1426.01196     656.8694     436.5153   1426.01196     656.8694     436.5153
   1425.99670     658.4861     438.1508   1425.99670     658.4861     438.1508
   1425.98145     661.4698     440.3622   1425.98145     661.4698     440.3622
   1425.96619     663.3986     442.3396   1425.96619     663.3986     442.3396
   1425.95093     665.0618     444.2730   1425.95093     665.0618     444.2730
   1425.93567     667.8031     445.8550   1425.93567     667.8031     445.8550
   1425.92041     670.6157     447.9152   1425.92041     670.6157     447.9152
   1425.90515     673.0713     449.1203   1425.90515     673.0713     449.1203
   1425.88989     674.4021     450.9631   1425.88989     674.4021     450.9631
   1425.87463     676.3493     453.1684   1425.87463     676.3493     453.1684
   1425.85938     679.7064     454.4963   1425.85938     679.7064     454.4963
   1425.84412     679.5659     456.7372   1425.84412     679.5659     456.7372
   1425.82886     682.5031     457.4456   1425.82886     682.5031     457.4456
   1425.81360     685.0715     459.7310   1425.81360     685.0715     459.7310
   1425.79834     686.6047     461.6196   1425.79834     686.6047     461.6196
   1425.78308     688.6266     462.3055   1425.78308     688.6266     462.3055
   1425.76782     690.0739     465.7316   1425.76782     690.0739     465.7316
   1425.75256     691.1565     465.9166   1425.75256     691.1565     465.9166
   1425.73730     694.6633     467.2221   1425.73730     694.6633     467.2221
   1425.72205     697.1155     469.3943   1425.72205     697.1155     469.3943
   1425.70679     696.9564     471.2673   1425.70679     696.9564     471.2673
   1425.69153     699.3411     471.9013   1425.69153     699.3411     471.9013
   1425.67627     701.8003     474.3650   1425.67627     701.8003     474.3650
   1425.66101     703.2759     475.5050   1425.66101     703.2759     475.5050
   1425.64575     705.3704     477.5157   1425.64575     705.3704     477.5157
   1425.63049     706.0327     477.6723   1425.63049     706.0327     477.6723
   1425.61523     707.2906     480.1153   1425.61523     707.2906     480.1153
   1425.59998     709.6105     482.2419   1425.59998     709.6105     482.2419
   1425.58472     710.4751     482.6477   1425.58472     710.4751     482.6477
   1425.56946     712.5181     483.9451   1425.56946     712.5181     483.9451
   1425.55420     714.2207     486.0562   1425.55420     714.2207     486.0562
   1425.53894     715.2540     487.0908   1425.53894     715.2540     487.0908
   1425.52368     717.7515     489.0621   1425.52368     717.7515     489.0621
   1425.50842     717.4048     490.9921   1425.50842     717.4048     490.9921
   1425.49316     718.9020     491.9799   1425.49316     718.9020     491.9799
   1425.47791     720.3664     493.0155   1425.47791     720.3664     493.0155
   1425.46265     721.8819     494.4819   1425.46265     721.8819     494.4819
   1425.44739     724.1633     495.3342   1425.44739     724.1633     495.3342
   1425.43213     725.2043     496.4348   1425.43213     725.2043     496.4348
   1425.41687     727.5264     498.1593   1425.41687     727.5264     498.1593
   1425.40161     728.1100     499.3267   1425.40161     728.1100     499.3267
   1425.38635     729.2800     500.5789   1425.38635     729.2800     500.5789
   1425.37109     729.9320     501.6792   1425.37109     729.9320     501.6792
   1425.35583     730.9973     503.2083   1425.35583     730.9973     503.2083
   1425.34058     731.9343     504.2315   1425.34058     731.9343     504.2315
   1425.32532     734.8065     505.1921   1425.32532     734.8065     505.1921
   1425.31006     734.9088     506.9893   1425.31006     734.9088     506.9893
   1425.29480     735.4949     508.6058   1425.29480     735.4949     508.6058
   1425.27954     736.3758     509.2207   1425.27954     736.3758     509.2207
   1425.26428     738.0872     510.1309   1425.26428     738.0872     510.1309
   1425.24902     739.5530     511.9901   1425.24902     739.5530     511.9901
   1425.23376     740.0316     512.5807   1425.23376     740.0316     512.5807
   1425.21851     740.6317     513.1993   1425.21851     740.6317     513.1993
   1425.20325     743.1965     515.0610   1425.20325     743.1965     515.0610
   1425.18799     742.8688     515.0584   1425.18799     742.8688     515.0584
   1425.17273     743.4031     517.5995   1425.17273     743.4031     517.5995
   1425.15747     744.8253     517.7993   1425.15747     744.8253     517.7993
   1425.14221     745.6121     518.8073   1425.14221     745.6121     518.8073
   1425.12695     746.6238     520.0290   1425.12695     746.6238     520.0290
   1425.11169     745.2493     521.7296   1425.11169     745.2493     521.7296
   1425.09644     747.7937     522.1165   1425.09644     747.7937     522.1165
   1425.08118     748.3657     523.5317   1425.08118     748.3657     523.5317
   1425.06592     749.0716     523.6058   1425.06592     749.0716     523.6058
   1425.05066     750.7361     525.0541   1425.05066     750.7361     525.0541
   1425.03540     750.0830     526.7507   1425.03540     750.0830     526.7507
   1425.02014     752.1368     526.8606   1425.02014     752.1368     526.8606
   1425.00488     751.6552     528.1425   1425.00488     751.6552     528.1425
   1424.98962     752.3292     527.8419   1424.98962     752.3292     527.8419
   1424.97437     752.7109     529.6293   1424.97437     752.7109     529.6293
   1424.95911     753.1795     530.2949   1424.95911     753.1795     530.2949
   1424.94385     754.9037     532.3264   1424.94385     754.9037     532.3264
   1424.92859     754.9326     532.4907   1424.92859     754.9326     532.4907
   1424.91333     754.9664     533.3102   1424.91333     754.9664     533.3102
   1424.89807     756.0936     533.7615   1424.89807     756.0936     533.7615
   1424.88281     756.8348     534.9915   1424.88281     756.8348     534.9915
   1424.86755     757.2584     536.5708   1424.86755     757.2584     536.5708
   1424.85229     758.1651     536.1114   1424.85229     758.1651     536.1114
   1424.83704     756.9434     536.9902   1424.83704     756.9434     536.9902
   1424.82178     757.8284     537.4425   1424.82178     757.8284     537.4425
   1424.80652     757.9758     539.3192   1424.80652     757.9758     539.3192
   1424.79126     757.9270     539.7186   1424.79126     757.9270     539.7186
   1424.77600     758.5767     540.2930   1424.77600     758.5767     540.2930
   1424.76074     758.2044     541.5811   1424.76074     758.2044     541.5811
   1424.74548     760.0152     542.6012   1424.74548     760.0152     542.6012
   1424.73022     760.3256     542.3797   1424.73022     760.3256     542.3797
   1424.71497     760.8752     543.4234   1424.71497     760.8752     543.4234
   1424.69971     760.7912     543.4312   1424.69971     760.7912     543.4312
   1424.68445     761.4723     544.8461   1424.68445     761.4723     544.8461
   1424.66919     761.6337     546.0128   1424.66919     761.6337     546.0128
   1424.65393     761.6727     546.9454   1424.65393     761.6727     546.9454
   1424.63867     761.6381     546.7437   1424.63867     761.6381     546.7437
   1424.62341     760.6929     548.1490   1424.62341     760.6929     548.1490
   1424.60815     762.5967     549.4676   1424.60815     762.5967     549.4676
   1424.59290     762.4198     549.3019   1424.59290     762.4198     549.3019
   1424.57764     761.6241     549.1815   1424.57764     761.6241     549.1815
   1424.56238     760.7128     551.4243   1424.56238     760.7128     551.4243
   1424.54712     763.8813     551.8549   1424.54712     763.8813     551.8549
   1424.53186     762.7059     551.7732   1424.53186     762.7059     551.7732
   1424.51660     763.5504     552.5079   1424.51660     763.5504     552.5079
   1424.50134     763.5390     553.6060   1424.50134     763.5390     553.6060
   1424.48608     762.0223     554.0480   1424.48608     762.0223     554.0480
   1424.47083     763.5868     554.2285   1424.47083     763.5868     554.2285
   1424.45557     763.0242     555.2211   1424.45557     763.0242     555.2211
   1424.44031     763.6292     555.3955   1424.44031     763.6292     555.3955
   1424.42505     763.7446     555.7764   1424.42505     763.7446     555.7764
   1424.40979     763.1778     556.7161   1424.40979     763.1778     556.7161
   1424.39453     762.4792     557.8442   1424.39453     762.4792     557.8442
   1424.37927     764.8221     557.6971   1424.37927     764.8221     557.6971
   1424.36401     763.7339     558.2778   1424.36401     763.7339     558.2778
   1424.34875     764.7076     558.3460   1424.34875     764.7076     558.3460
   1424.33350     763.8110     559.8797   1424.33350     763.8110     559.8797
   1424.31824     763.7169     559.7495   1424.31824     763.7169     559.7495
   1424.30298     764.1588     559.6534   1424.30298     764.1588     559.6534
   1424.28772     763.6744     561.4855   1424.28772     763.6744     561.4855
   1424.27246     763.7820     560.8881   1424.27246     763.7820     560.8881
   1424.25720     762.8720     562.3717   1424.25720     762.8720     562.3717
   1424.24194     763.2651     561.9575   1424.24194     763.2651     561.9575
   1424.22668     763.9998     563.4296   1424.22668     763.9998     563.4296
   1424.21143     763.0990     564.2399   1424.21143     763.0990     564.2399
   1424.19617     763.5128     563.8450   1424.19617     763.5128     563.8450
   1424.18091     764.3288     564.4954   1424.18091     764.3288     564.4954
   1424.16565     764.2610     565.1475   1424.16565     764.2610     565.1475
   1424.15039     764.1489     565.9759   1424.15039     764.1489     565.9759
   1424.13513     763.2620     565.7948   1424.13513     763.2620     565.7948
   1424.11987     764.3931     566.7278   1424.11987     764.3931     566.7278
   1424.10461     763.5014     567.6519   1424.10461     763.5014     567.6519
   1424.08936     763.6978     568.0460   1424.08936     763.6978     568.0460
   1424.07410     764.9696     568.0872   1424.07410     764.9696     568.0872
   1424.05884     763.7270     567.3686   1424.05884     763.7270     567.3686
   1424.04358     764.7350     569.3085   1424.04358     764.7350     569.3085
   1424.02832     764.1829     568.4882   1424.02832     764.1829     568.4882
   1424.01306     763.5074     570.2021   1424.01306     763.5074     570.2021
   1423.99780     763.4821     569.7410   1423.99780     763.4821     569.7410
   1423.98254     762.8456     570.9799   1423.98254     762.8456     570.9799
   1423.96729     763.4225     569.7760   1423.96729     763.4225     569.7760
   1423.95203     762.5481     570.2747   1423.95203     762.5481     570.2747
   1423.93677     763.3860     571.1204   1423.93677     763.3860     571.1204
   1423.92151     763.0855     570.8845   1423.92151     763.0855     570.8845
   1423.90625     763.6448     571.5577   1423.90625     763.6448     571.5577
   1423.89099     762.7156     572.1994   1423.89099     762.7156     572.1994
   1423.87573     761.8279     572.1407   1423.87573     761.8279     572.1407
   1423.86047     763.1683     572.6148   1423.86047     763.1683     572.6148
   1423.84521     763.2413     573.0410   1423.84521     763.2413     573.0410
   1423.82996     762.7379     573.7258   1423.82996     762.7379     573.7258
   1423.81470     762.0361     573.6722   1423.81470     762.0361     573.6722
   1423.79944     762.4172     574.1441   1423.79944     762.4172     574.1441
   1423.78418     761.9033     573.6930   1423.78418     761.9033     573.6930
   1423.76892     761.6816     574.5330   1423.76892     761.6816     574.5330
   1423.75366     761.9543     573.5739   1423.75366     761.9543     573.5739
   1423.73840     762.4286     574.4270   1423.73840     762.4286     574.4270
   1423.72314     761.1698     575.3088   1423.72314     761.1698     575.3088
   1423.70789     761.0257     575.6905   1423.70789     761.0257     575.6905
   1423.69263     761.4991     575.3190   1423.69263     761.4991     575.3190
   1423.67737     761.4512     575.2880   1423.67737     761.4512     575.2880
   1423.66211     761.3139     575.5084   1423.66211     761.3139     575.5084
   1423.64685     760.6299     574.8535   1423.64685     760.6299     574.8535
   1423.63159     760.5779     576.0645   1423.63159     760.5779     576.0645
   1423.61633     760.3404     575.6068   1423.61633     760.3404     575.6068
   1423.60107     760.5854     575.8334   1423.60107     760.5854     575.8334
   1423.58582     760.5787     576.0112   1423.58582     760.5787     576.0112
   1423.57056     760.5629     576.4888   1423.57056     760.5629     576.4888
   1423.55530     760.0218     576.2746   1423.55530     760.0218     576.2746
   1423.54004     758.9612     575.9673   1423.54004     758.9612     575.9673
   1423.52478     760.0560     577.0466   1423.52478     760.0560     577.0466
   1423.50952     760.0171     577.2328   1423.50952     760.0171     577.2328
   1423.49426     760.9691     576.3395   1423.49426     760.9691     576.3395
   1423.47900     760.1193     576.8953   1423.47900     760.1193     576.8953
   1423.46375     759.6599     576.6652   1423.46375     759.6599     576.6652
   1423.44849     759.6926     576.6346   1423.44849     759.6926     576.6346
   1423.43323     757.8234     576.3481   1423.43323     757.8234     576.3481
   1423.41797     758.6546     576.8303   1423.41797     758.6546     576.8303
   1423.40271     758.8816     576.7161   1423.40271     758.8816     576.7161
   1423.38745     758.4044     576.5787   1423.38745     758.4044     576.5787
   1423.37219     759.0689     577.6129   1423.37219     759.0689     577.6129
   1423.35693     758.7262     576.4125   1423.35693     758.7262     576.4125
   1423.34167     758.5468     576.9866   1423.34167     758.5468     576.9866
   1423.32642     759.0118     577.1866   1423.32642     759.0118     577.1866
   1423.31116     756.9608     576.4130   1423.31116     756.9608     576.4130
   1423.29590     757.0662     576.8348   1423.29590     757.0662     576.8348
   1423.28064     756.3892     576.5269   1423.28064     756.3892     576.5269
   1423.26538     756.7779     575.4186   1423.26538     756.7779     575.4186
   1423.25012     757.3273     576.0636   1423.25012     757.3273     576.0636
   1423.23486     757.2017     576.2617   1423.23486     757.2017     576.2617
   1423.21960     756.3353     575.0555   1423.21960     756.3353     575.0555
   1423.20435     756.4685     575.3670   1423.20435     756.4685     575.3670
   1423.18909     756.9238     575.8672   1423.18909     756.9238     575.8672
   1423.17383     756.1691     575.2145   1423.17383     756.1691     575.2145
   1423.15857     756.0747     576.0545   1423.15857     756.0747     576.0545
   1423.14331     754.9984     574.1051   1423.14331     754.9984     574.1051
   1423.12805     756.4219     574.4931   1423.12805     756.4219     574.4931
   1423.11279     755.8032     574.3334   1423.11279     755.8032     574.3334
   1423.09753     755.7648     574.5690   1423.09753     755.7648     574.5690
   1423.08228     755.2000     574.2144   1423.08228     755.2000     574.2144
   1423.06702     753.9052     573.9636   1423.06702     753.9052     573.9636
   1423.05176     755.4670     572.7897   1423.05176     755.4670     572.7897
   1423.03650     755.0384     572.8990   1423.03650     755.0384     572.8990
   1423.02124     754.0676     571.8839   1423.02124     754.0676     571.8839
   1423.00598     755.1770     572.1886   1423.00598     755.1770     572.1886
   1422.99072     753.1068     571.7899   1422.99072     753.1068     571.7899
   1422.97546     753.5948     571.4382   1422.97546     753.5948     571.4382
   1422.96021     753.5610     570.9798   1422.96021     753.5610     570.9798
   1422.94495     752.6642     571.0020   1422.94495     752.6642     571.0020
   1422.92969     753.9805     569.7303   1422.92969     753.9805     569.7303
   1422.91443     752.7956     570.6440   1422.91443     752.7956     570.6440
   1422.89917     753.1863     569.7359   1422.89917     753.1863     569.7359
   1422.88391     752.5703     568.5453   1422.88391     752.5703     568.5453
   1422.86865     752.1926     569.9227   1422.86865     752.1926     569.9227
   1422.85339     751.9085     567.7582   1422.85339     751.9085     567.7582
   1422.83813     752.3101     568.1679   1422.83813     752.3101     568.1679
   1422.82288     751.0745     567.4332   1422.82288     751.0745     567.4332
   1422.80762     751.4715     566.2530   1422.80762     751.4715     566.2530
   1422.79236     751.6992     566.3701   1422.79236     751.6992     566.3701
   1422.77710     750.4802     565.4623   1422.77710     750.4802     565.4623
   1422.76184     750.4688     565.2304   1422.76184     750.4688     565.2304
   1422.74658     750.3148     563.2237   1422.74658     750.3148     563.2237
   1422.73132     750.1028     563.2357   1422.73132     750.1028     563.2357
   1422.71606     751.1428     563.1805   1422.71606     751.1428     563.1805
   1422.70081     749.8591     562.9415   1422.70081     749.8591     562.9415
   1422.68555     749.5475     562.3730   1422.68555     749.5475     562.3730
   1422.67029     749.0825     561.4969   1422.67029     749.0825     561.4969
   1422.65503     748.8824     560.8047   1422.65503     748.8824     560.8047
   1422.63977     749.3760     559.9026   1422.63977     749.3760     559.9026
   1422.62451     749.0582     560.2341   1422.62451     749.0582     560.2341
   1422.60925     748.2620     558.4768   1422.60925     748.2620     558.4768
   1422.59399     746.3798     558.0931   1422.59399     746.3798     558.0931
   1422.57874     747.6860     558.0621   1422.57874     747.6860     558.0621
   1422.56348     747.6514     556.8770   1422.56348     747.6514     556.8770
   1422.54822     747.4538     556.0630   1422.54822     747.4538     556.0630
   1422.53296     745.5414     555.0290   1422.53296     745.5414     555.0290
   1422.51770     746.3875     553.4833   1422.51770     746.3875     553.4833
   1422.50244     745.3203     552.5408   1422.50244     745.3203     552.5408
   1422.48718     744.9805     552.1443   1422.48718     744.9805     552.1443
   1422.47192     744.7969     552.9803   1422.47192     744.7969     552.9803
   1422.45667     745.9293     551.7695   1422.45667     745.9293     551.7695
   1422.44141     743.7695     550.5532   1422.44141     743.7695     550.5532
   1422.42615     744.4777     549.8135   1422.42615     744.4777     549.8135
   1422.41089     744.3792     547.7518   1422.41089     744.3792     547.7518
   1422.39563     743.0944     547.6514   1422.39563     743.0944     547.6514
   1422.38037     743.2071     546.8801   1422.38037     743.2071     546.8801
   1422.36511     743.0266     545.7316   1422.36511     743.0266     545.7316
   1422.34985     743.0069     545.1420   1422.34985     743.0069     545.1420
   1422.33459     743.2609     544.3268   1422.33459     743.2609     544.3268
   1422.31934     742.2888     543.7485   1422.31934     742.2888     543.7485
   1422.30408     742.5202     541.9356   1422.30408     742.5202     541.9356
   1422.28882     741.2939     541.6205   1422.28882     741.2939     541.6205
   1422.27356     740.9945     541.0502   1422.27356     740.9945     541.0502
   1422.25830     740.7228     540.3833   1422.25830     740.7228     540.3833
   1422.24304     740.7660     538.3890   1422.24304     740.7660     538.3890
   1422.22778     739.7966     538.7740   1422.22778     739.7966     538.7740
   1422.21252     739.4056     536.8792   1422.21252     739.4056     536.8792
   1422.19727     739.1171     536.7516   1422.19727     739.1171     536.7516
   1422.18201     739.6735     535.5281   1422.18201     739.6735     535.5281
   1422.16675     736.6901     534.8709   1422.16675     736.6901     534.8709
   1422.15149     738.2346     533.0836   1422.15149     738.2346     533.0836
   1422.13623     736.3075     532.5223   1422.13623     736.3075     532.5223
   1422.12097     736.7098     531.6218   1422.12097     736.7098     531.6218
   1422.10571     736.4769     529.7634   1422.10571     736.4769     529.7634
   1422.09045     736.1896     529.2742   1422.09045     736.1896     529.2742
   1422.07520     735.5999     528.0595   1422.07520     735.5999     528.0595
   1422.05994     735.8408     526.8318   1422.05994     735.8408     526.8318
   1422.04468     736.3057     525.4877   1422.04468     736.3057     525.4877
   1422.02942     734.8922     524.7391   1422.02942     734.8922     524.7391
   1422.01416     734.0878     523.7640   1422.01416     734.0878     523.7640
   1421.99890     734.8925     523.1946   1421.99890     734.8925     523.1946
   1421.98364     735.0230     521.1981   1421.98364     735.0230     521.1981
   1421.96838     733.0120     521.0173   1421.96838     733.0120     521.0173
   1421.95312     732.4441     519.0729   1421.95312     732.4441     519.0729
   1421.93787     732.7562     517.8441   1421.93787     732.7562     517.8441
   1421.92261     731.7793     517.3105   1421.92261     731.7793     517.3105
   1421.90735     731.7764     517.0727   1421.90735     731.7764     517.0727
   1421.89209     730.3805     514.2368   1421.89209     730.3805     514.2368
   1421.87683     731.8665     514.2028   1421.87683     731.8665     514.2028
   1421.86157     730.3414     513.3989   1421.86157     730.3414     513.3989
   1421.84631     730.3155     511.7361   1421.84631     730.3155     511.7361
   1421.83105     729.7339     510.2165   1421.83105     729.7339     510.2165
   1421.81580     728.9339     509.7178   1421.81580     728.9339     509.7178
   1421.80054     727.8894     508.7354   1421.80054     727.8894     508.7354
   1421.78528     727.7896     507.2579   1421.78528     727.7896     507.2579
   1421.77002     728.5204     506.4641   1421.77002     728.5204     506.4641
   1421.75476     726.9994     505.5432   1421.75476     726.9994     505.5432
   1421.73950     726.5074     503.4640   1421.73950     726.5074     503.4640
   1421.72424     725.0101     503.0934   1421.72424     725.0101     503.0934
   1421.70898     726.6943     502.1692   1421.70898     726.6943     502.1692
   1421.69373     724.4529     500.7214   1421.69373     724.4529     500.7214
   1421.67847     723.9332     499.1541   1421.67847     723.9332     499.1541
   1421.66321     724.2884     498.6476   1421.66321     724.2884     498.6476
   1421.64795     723.8991     497.4597   1421.64795     723.8991     497.4597
   1421.63269     723.5147     495.2722   1421.63269     723.5147     495.2722
   1421.61743     723.2379     495.8755   1421.61743     723.2379     495.8755
   1421.60217     721.8927     493.6134   1421.60217     721.8927     493.6134
   1421.58691     721.3658     492.7166   1421.58691     721.3658     492.7166
   1421.57166     720.8867     491.3192   1421.57166     720.8867     491.3192
   1421.55640     721.3932     489.3003   1421.55640     721.3932     489.3003
   1421.54114     720.4131     488.4508   1421.54114     720.4131     488.4508
   1421.52588     719.8882     488.2240   1421.52588     719.8882     488.2240
   1421.51062     719.2717     487.4178   1421.51062     719.2717     487.4178
   1421.49536     719.2762     486.2312   1421.49536     719.2762     486.2312
   1421.48010     718.6160     484.0768   1421.48010     718.6160     484.0768
   1421.46484     717.8794     483.2727   1421.46484     717.8794     483.2727
   1421.44958     717.0299     481.9577   1421.44958     717.0299     481.9577
   1421.43433     715.9528     480.7230   1421.43433     715.9528     480.7230
   1421.41907     716.2939     479.7651   1421.41907     716.2939     479.7651
   1421.40381     716.4578     478.7021   1421.40381     716.4578     478.7021
   1421.38855     714.7767     476.9766   1421.38855     714.7767     476.9766
   1421.37329     714.8455     475.4664   1421.37329     714.8455     475.4664
   1421.35803     713.4673     474.9215   1421.35803     713.4673     474.9215
   1421.34277     712.3312     474.0165   1421.34277     712.3312     474.0165
   1421.32751     714.4044     473.3779   1421.32751     714.4044     473.3779
   1421.31226     713.5975     471.8873   1421.31226     713.5975     471.8873
   1421.29700     711.8869     470.2042   1421.29700     711.8869     470.2042
   1421.28174     711.3039     468.4095   1421.28174     711.3039     468.4095
   1421.26648     711.5843     467.4660   1421.26648     711.5843     467.4660
   1421.25122     711.1356     466.7035   1421.25122     711.1356     466.7035
   1421.23596     711.4459     466.2075   1421.23596     711.4459     466.2075
   1421.22070     708.2195     464.2680   1421.22070     708.2195     464.2680
   1421.20544     709.5776     462.5673   1421.20544     709.5776     462.5673
   1421.19019     708.2887     461.6802   1421.19019     708.2887     461.6802
   1421.17493     709.3217     460.3737   1421.17493     709.3217     460.3737
   1421.15967     707.8688     460.4488   1421.15967     707.8688     460.4488
   1421.14441     707.9207     458.3304   1421.14441     707.9207     458.3304
   1421.12915     705.9233     457.3552   1421.12915     705.9233     457.3552
   1421.11389     705.9060     454.9205   1421.11389     705.9060     454.9205
   1421.09863     706.7480     455.1233   1421.09863     706.7480     455.1233
   1421.08337     704.9523     453.5849   1421.08337     704.9523     453.5849
   1421.06812     705.0851     452.3919   1421.06812     705.0851     452.3919
   1421.05286     705.4990     451.2838   1421.05286     705.4990     451.2838
   1421.03760     703.5817     450.2636   1421.03760     703.5817     450.2636
   1421.02234     702.2833     448.8178   1421.02234     702.2833     448.8178
   1421.00708     703.2482     447.8459   1421.00708     703.2482     447.8459
   1420.99182     702.6530     447.1403   1420.99182     702.6530     447.1403
   1420.97656     701.7928     446.0727   1420.97656     701.7928     446.0727
   1420.96130     701.0977     444.2435   1420.96130     701.0977     444.2435
   1420.94604     701.1119     443.7890   1420.94604     701.1119     443.7890
   1420.93079     701.4022     443.2432   1420.93079     701.4022     443.2432
   1420.91553     700.1407     441.3510   1420.91553     700.1407     441.3510
   1420.90027     699.1334     439.7399   1420.90027     699.1334     439.7399
   1420.88501     698.9313     439.1492   1420.88501     698.9313     439.1492
   1420.86975     699.4894     438.6099   1420.86975     699.4894     438.6099
   1420.85449     698.4249     436.7950   1420.85449     698.4249     436.7950
   1420.83923     698.5177     435.7608   1420.83923     698.5177     435.7608
   1420.82397     697.3887     435.0113   1420.82397     697.3887     435.0113
   1420.80872     697.6342     433.8003   1420.80872     697.6342     433.8003
   1420.79346     697.5649     432.7778   1420.79346     697.5649     432.7778
   1420.77820     697.5682     431.6590   1420.77820     697.5682     431.6590
   1420.76294     696.4357     430.5332   1420.76294     696.4357     430.5332
   1420.74768     696.2188     429.8172   1420.74768     696.2188     429.8172
   1420.73242     695.5536     428.4396   1420.73242     695.5536     428.4396
   1420.71716     696.0835     428.5523   1420.71716     696.0835     428.5523
   1420.70190     694.8745     426.9076   1420.70190     694.8745     426.9076
   1420.68665     695.1829     425.8480   1420.68665     695.1829     425.8480
   1420.67139     694.3457     425.5668   1420.67139     694.3457     425.5668
   1420.65613     695.0879     423.7878   1420.65613     695.0879     423.7878
   1420.64087     694.6427     422.4751   1420.64087     694.6427     422.4751
   1420.62561     693.8655     421.7558   1420.62561     693.8655     421.7558
   1420.61035     694.2039     420.8140   1420.61035     694.2039     420.8140
   1420.59509     694.1423     420.0593   1420.59509     694.1423     420.0593
   1420.57983     694.2677     418.6736   1420.57983     694.2677     418.6736
   1420.56458     692.6963     417.6038   1420.56458     692.6963     417.6038
   1420.54932     693.9510     417.8255   1420.54932     693.9510     417.8255
   1420.53406     694.0854     417.0622   1420.53406     694.0854     417.0622
   1420.51880     694.4560     416.2033   1420.51880     694.4560     416.2033
   1420.50354     696.4077     416.0015   1420.50354     696.4077     416.0015
   1420.48828     695.9853     415.5733   1420.48828     695.9853     415.5733
   1420.47302     695.0589     414.1360   1420.47302     695.0589     414.1360
   1420.45776     694.9082     414.0011   1420.45776     694.9082     414.0011
   1420.44250     695.8156     413.6997   1420.44250     695.8156     413.6997
   1420.42725     695.1611     412.2181   1420.42725     695.1611     412.2181
   1420.41199     695.4008     410.4908   1420.41199     695.4008     410.4908
   1420.39673     694.1456     409.9655   1420.39673     694.1456     409.9655
   1420.38147     693.6746     409.0350   1420.38147     693.6746     409.0350
   1420.36621     695.1766     408.4455   1420.36621     695.1766     408.4455
   1420.35095     694.6194     408.2686   1420.35095     694.6194     408.2686
   1420.33569     695.4847     408.1385   1420.33569     695.4847     408.1385
   1420.32043     699.1866     408.8453   1420.32043     699.1866     408.8453
   1420.30518     702.6741     410.2371   1420.30518     702.6741     410.2371
   1420.28992     711.4129     414.7005   1420.28992     711.4129     414.7005
   1420.27466     737.3587     428.8902   1420.27466     737.3587     428.8902
   1420.25940     814.2059     470.6952   1420.25940     814.2059     470.6952
   1420.24414     858.3439     495.3452   1420.24414     858.3439     495.3452
   1420.22888     898.4210     516.8948   1420.22888     898.4210     516.8948
   1420.21362     989.4723     566.1700   1420.21362     989.4723     566.1700
   1420.19836    1185.4331     674.6024   1420.19836    1185.4331     674.6024
   1420.18311    1370.9333     774.1037   1420.18311    1370.9333     774.1037
   1420.16785    1578.3593     889.0046   1420.16785    1578.3593     889.0046
   1420.15259    1797.4320    1007.8429   1420.15259    1797.4320    1007.8429
   1420.13733    1946.2896    1086.7791   1420.13733    1946.2896    1086.7791
   1420.12207    1864.1858    1039.7050   1420.12207    1864.1858    1039.7050
   1420.10681    1507.5338     842.6290   1420.10681    1507.5338     842.6290
   1420.09155    1069.6859     601.1201   1420.09155    1069.6859     601.1201
   1420.07629     833.9316     471.5238   1420.07629     833.9316     471.5238
   1420.06104     767.6382     433.7830   1420.06104     767.6382     433.7830
   1420.04578     761.5222     429.8592   1420.04578     761.5222     429.8592
   1420.03052     790.5375     444.8888   1420.03052     790.5375     444.8888
   1420.01526     867.6051     486.4597   1420.01526     867.6051     486.4597
   1420.00000    1042.3654     580.7899   1420.00000    1042.3654     580.7899
   1419.98474    1217.1257     675.1205   1419.98474    1217.1257     675.1205
   1419.96948    1376.7096     759.5822   1419.96948    1376.7096     759.5822
   1419.95422    1296.0068     715.9957   1419.95422    1296.0068     715.9957
   1419.93896    1126.8944     622.4876   1419.93896    1126.8944     622.4876
   1419.92371    1064.3945     586.6133   1419.92371    1064.3945     586.6133
   1419.90845    1202.9226     662.6968   1419.90845    1202.9226     662.6968
   1419.89319    1244.0583     681.5135   1419.89319    1244.0583     681.5135
   1419.87793    1183.7491     646.9422   1419.87793    1183.7491     646.9422
   1419.86267    1111.0385     606.4181   1419.86267    1111.0385     606.4181
   1419.84741    1034.5579     565.1066   1419.84741    1034.5579     565.1066
   1419.83215    1048.2827     573.3234   1419.83215    1048.2827     573.3234
   1419.81689    1116.8242     607.3745   1419.81689    1116.8242     607.3745
   1419.80164    1155.6487     627.4178   1419.80164    1155.6487     627.4178
   1419.78638    1078.8962     585.2714   1419.78638    1078.8962     585.2714
   1419.77112     930.3923     506.3324   1419.77112     930.3923     506.3324
   1419.75586     855.1879     465.1485   1419.75586     855.1879     465.1485
   1419.74060     819.9195     446.3015   1419.74060     819.9195     446.3015
   1419.72534     803.2498     436.6199   1419.72534     803.2498     436.6199
   1419.71008     780.9004     424.3285   1419.71008     780.9004     424.3285
   1419.69482     759.6069     412.1880   1419.69482     759.6069     412.1880
   1419.67957     749.9831     407.0049   1419.67957     749.9831     407.0049
   1419.66431     744.4559     402.8278   1419.66431     744.4559     402.8278
   1419.64905     737.3350     398.8713   1419.64905     737.3350     398.8713
   1419.63379     730.8483     395.0470   1419.63379     730.8483     395.0470
   1419.61853     723.9853     390.4185   1419.61853     723.9853     390.4185
   1419.60327     715.4796     386.2081   1419.60327     715.4796     386.2081
   1419.58801     705.8569     380.6533   1419.58801     705.8569     380.6533
   1419.57275     700.7991     376.8347   1419.57275     700.7991     376.8347
   1419.55750     695.4987     373.9014   1419.55750     695.4987     373.9014
   1419.54224     691.8012     372.1316   1419.54224     691.8012     372.1316
   1419.52698     689.4302     369.0983   1419.52698     689.4302     369.0983
   1419.51172     688.0828     368.5664   1419.51172     688.0828     368.5664
   1419.49646     688.1136     367.7245   1419.49646     688.1136     367.7245
   1419.48120     687.4595     367.1968   1419.48120     687.4595     367.1968
   1419.46594     688.1788     366.3782   1419.46594     688.1788     366.3782
   1419.45068     687.2553     365.9705   1419.45068     687.2553     365.9705
   1419.43542     688.7073     365.6200   1419.43542     688.7073     365.6200
   1419.42017     687.6133     365.0818   1419.42017     687.6133     365.0818
   1419.40491     688.3545     364.5687   1419.40491     688.3545     364.5687
   1419.38965     688.9347     364.4019   1419.38965     688.9347     364.4019
   1419.37439     687.2791     363.1010   1419.37439     687.2791     363.1010
   1419.35913     687.4313     363.5532   1419.35913     687.4313     363.5532
   1419.34387     689.5720     363.1363   1419.34387     689.5720     363.1363
   1419.32861     689.1890     362.6462   1419.32861     689.1890     362.6462
   1419.31335     689.2316     362.7348   1419.31335     689.2316     362.7348
   1419.29810     689.9684     362.4431   1419.29810     689.9684     362.4431
   1419.28284     689.9069     362.1039   1419.28284     689.9069     362.1039
   1419.26758     689.8700     362.4280   1419.26758     689.8700     362.4280
   1419.25232     691.5546     361.4475   1419.25232     691.5546     361.4475
   1419.23706     691.7321     361.3896   1419.23706     691.7321     361.3896
   1419.22180     692.4399     360.6465   1419.22180     692.4399     360.6465
   1419.20654     692.9583     360.7656   1419.20654     692.9583     360.7656
   1419.19128     692.2609     360.7366   1419.19128     692.2609     360.7366
   1419.17603     693.7814     360.5706   1419.17603     693.7814     360.5706
   1419.16077     694.0184     359.9458   1419.16077     694.0184     359.9458
   1419.14551     695.1711     360.0403   1419.14551     695.1711     360.0403
   1419.13025     694.4441     360.4769   1419.13025     694.4441     360.4769
   1419.11499     696.5945     359.4126   1419.11499     696.5945     359.4126
   1419.09973     697.0173     359.4959   1419.09973     697.0173     359.4959
   1419.08447     695.6699     359.6143   1419.08447     695.6699     359.6143
   1419.06921     696.7877     358.4422   1419.06921     696.7877     358.4422
   1419.05396     697.5963     358.7981   1419.05396     697.5963     358.7981
   1419.03870     698.0609     358.9292   1419.03870     698.0609     358.9292
   1419.02344     699.8690     358.5737   1419.02344     699.8690     358.5737
   1419.00818     699.4517     358.4329   1419.00818     699.4517     358.4329
   1418.99292     699.1185     358.6382   1418.99292     699.1185     358.6382
   1418.97766     699.5189     357.9051   1418.97766     699.5189     357.9051
   1418.96240     700.3617     357.9013   1418.96240     700.3617     357.9013
   1418.94714     701.0251     357.6034   1418.94714     701.0251     357.6034
   1418.93188     701.9214     357.7197   1418.93188     701.9214     357.7197
   1418.91663     701.6163     358.7955   1418.91663     701.6163     358.7955
   1418.90137     701.8671     357.6819   1418.90137     701.8671     357.6819
   1418.88611     704.1348     357.3552   1418.88611     704.1348     357.3552
   1418.87085     703.8674     357.7316   1418.87085     703.8674     357.7316
   1418.85559     704.8447     358.1024   1418.85559     704.8447     358.1024
   1418.84033     705.0643     357.7838   1418.84033     705.0643     357.7838
   1418.82507     707.1504     358.0955   1418.82507     707.1504     358.0955
   1418.80981     706.4761     357.3672   1418.80981     706.4761     357.3672
   1418.79456     706.8527     357.5144   1418.79456     706.8527     357.5144
   1418.77930     706.7328     357.2497   1418.77930     706.7328     357.2497
   1418.76404     708.3221     358.0126   1418.76404     708.3221     358.0126
   1418.74878     709.3712     357.7295   1418.74878     709.3712     357.7295
   1418.73352     709.8826     358.2469   1418.73352     709.8826     358.2469
   1418.71826     711.6572     357.7216   1418.71826     711.6572     357.7216
   1418.70300     712.1591     358.2660   1418.70300     712.1591     358.2660
   1418.68774     711.7596     358.0011   1418.68774     711.7596     358.0011
   1418.67249     712.8810     357.5571   1418.67249     712.8810     357.5571
   1418.65723     713.4009     357.9722   1418.65723     713.4009     357.9722
   1418.64197     716.1050     357.9780   1418.64197     716.1050     357.9780
   1418.62671     715.3405     358.1171   1418.62671     715.3405     358.1171
   1418.61145     716.3785     358.0372   1418.61145     716.3785     358.0372
   1418.59619     716.0409     357.7910   1418.59619     716.0409     357.7910
   1418.58093     717.9785     358.6314   1418.58093     717.9785     358.6314
   1418.56567     717.4319     358.4678   1418.56567     717.4319     358.4678
   1418.55042     719.6634     358.3463   1418.55042     719.6634     358.3463
   1418.53516     721.1025     359.3600   1418.53516     721.1025     359.3600
   1418.51990     720.6763     358.4188   1418.51990     720.6763     358.4188
   1418.50464     720.6815     359.0057   1418.50464     720.6815     359.0057
   1418.48938     721.8249     359.1780   1418.48938     721.8249     359.1780
   1418.47412     723.3785     359.2841   1418.47412     723.3785     359.2841
   1418.45886     723.1996     358.9553   1418.45886     723.1996     358.9553
   1418.44360     725.4316     359.4350   1418.44360     725.4316     359.4350
   1418.42834     726.7281     359.8146   1418.42834     726.7281     359.8146
   1418.41309     726.3187     359.4706   1418.41309     726.3187     359.4706
   1418.39783     728.2042     359.9527   1418.39783     728.2042     359.9527
   1418.38257     728.5650     359.4862   1418.38257     728.5650     359.4862
   1418.36731     729.0228     360.3137   1418.36731     729.0228     360.3137
   1418.35205     730.2069     360.4865   1418.35205     730.2069     360.4865
   1418.33679     731.0438     360.8155   1418.33679     731.0438     360.8155
   1418.32153     732.0980     360.7620   1418.32153     732.0980     360.7620
   1418.30627     732.1558     360.5025   1418.30627     732.1558     360.5025
   1418.29102     732.7580     361.2249   1418.29102     732.7580     361.2249
   1418.27576     734.9512     361.6535   1418.27576     734.9512     361.6535
   1418.26050     735.8900     361.3064   1418.26050     735.8900     361.3064
   1418.24524     736.4130     361.7867   1418.24524     736.4130     361.7867
   1418.22998     736.7927     362.1941   1418.22998     736.7927     362.1941
   1418.21472     737.8167     362.9193   1418.21472     737.8167     362.9193
   1418.19946     739.5069     362.6903   1418.19946     739.5069     362.6903
   1418.18420     739.5917     362.9049   1418.18420     739.5917     362.9049
   1418.16895     740.7502     363.1275   1418.16895     740.7502     363.1275
   1418.15369     742.4698     363.1508   1418.15369     742.4698     363.1508
   1418.13843     744.3284     363.7926   1418.13843     744.3284     363.7926
   1418.12317     744.0576     363.7218   1418.12317     744.0576     363.7218
   1418.10791     744.1567     363.8701   1418.10791     744.1567     363.8701
   1418.09265     746.4820     364.7929   1418.09265     746.4820     364.7929
   1418.07739     747.0245     365.3676   1418.07739     747.0245     365.3676
   1418.06213     748.2810     365.1525   1418.06213     748.2810     365.1525
   1418.04688     749.4671     366.1388   1418.04688     749.4671     366.1388
   1418.03162     749.2664     366.2449   1418.03162     749.2664     366.2449
   1418.01636     750.5122     366.3848   1418.01636     750.5122     366.3848
   1418.00110     752.9212     367.1799   1418.00110     752.9212     367.1799
   1417.98584     753.4615     366.5090   1417.98584     753.4615     366.5090
   1417.97058     754.0629     366.6124   1417.97058     754.0629     366.6124
   1417.95532     755.6254     367.2745   1417.95532     755.6254     367.2745
   1417.94006     755.1815     367.3684   1417.94006     755.1815     367.3684
   1417.92480     756.3311     368.6917   1417.92480     756.3311     368.6917
   1417.90955     758.2390     368.3707   1417.90955     758.2390     368.3707
   1417.89429     759.1984     368.3375   1417.89429     759.1984     368.3375
   1417.87903     760.1256     369.5372   1417.87903     760.1256     369.5372
   1417.86377     762.4089     369.5060   1417.86377     762.4089     369.5060
   1417.84851     762.7079     369.8405   1417.84851     762.7079     369.8405
   1417.83325     764.4590     370.9451   1417.83325     764.4590     370.9451
   1417.81799     764.4876     370.8818   1417.81799     764.4876     370.8818
   1417.80273     765.1526     371.4594   1417.80273     765.1526     371.4594
   1417.78748     766.7548     371.5299   1417.78748     766.7548     371.5299
   1417.77222     766.9186     371.3789   1417.77222     766.9186     371.3789
   1417.75696     769.3767     372.1746   1417.75696     769.3767     372.1746
   1417.74170     769.8361     372.5028   1417.74170     769.8361     372.5028
   1417.72644     771.6458     373.1293   1417.72644     771.6458     373.1293
   1417.71118     771.9340     373.9770   1417.71118     771.9340     373.9770
   1417.69592     772.1679     373.9448   1417.69592     772.1679     373.9448
   1417.68066     773.1766     374.2542   1417.68066     773.1766     374.2542
   1417.66541     776.5053     375.3180   1417.66541     776.5053     375.3180
   1417.65015     775.9214     375.1219   1417.65015     775.9214     375.1219
   1417.63489     778.4409     375.5714   1417.63489     778.4409     375.5714
   1417.61963     778.4721     376.2296   1417.61963     778.4721     376.2296
   1417.60437     780.0206     376.5525   1417.60437     780.0206     376.5525
   1417.58911     781.0777     377.2158   1417.58911     781.0777     377.2158
   1417.57385     780.8260     377.4077   1417.57385     780.8260     377.4077
   1417.55859     782.7829     377.9588   1417.55859     782.7829     377.9588
   1417.54333     783.1220     378.5099   1417.54333     783.1220     378.5099
   1417.52808     785.2852     379.2244   1417.52808     785.2852     379.2244
   1417.51282     786.0364     379.3152   1417.51282     786.0364     379.3152
   1417.49756     787.0841     379.3535   1417.49756     787.0841     379.3535
   1417.48230     788.6949     380.7639   1417.48230     788.6949     380.7639
   1417.46704     789.1971     380.5447   1417.46704     789.1971     380.5447
   1417.45178     790.4354     381.0067   1417.45178     790.4354     381.0067
   1417.43652     790.8419     381.7370   1417.43652     790.8419     381.7370
   1417.42126     792.2223     382.4996   1417.42126     792.2223     382.4996
   1417.40601     793.1479     382.3831   1417.40601     793.1479     382.3831
   1417.39075     793.7986     383.4783   1417.39075     793.7986     383.4783
   1417.37549     795.3638     383.8127   1417.37549     795.3638     383.8127
   1417.36023     797.5023     383.7406   1417.36023     797.5023     383.7406
   1417.34497     797.2684     384.0424   1417.34497     797.2684     384.0424
   1417.32971     797.9995     385.2756   1417.32971     797.9995     385.2756
   1417.31445     800.1266     385.4529   1417.31445     800.1266     385.4529
   1417.29919     801.0076     386.0703   1417.29919     801.0076     386.0703
   1417.28394     800.5623     386.5676   1417.28394     800.5623     386.5676
   1417.26868     803.1408     387.1499   1417.26868     803.1408     387.1499
   1417.25342     803.7849     387.5330   1417.25342     803.7849     387.5330
   1417.23816     805.7258     388.0537   1417.23816     805.7258     388.0537
   1417.22290     806.8192     390.6518   1417.22290     806.8192     390.6518
   1417.20764     809.2532     389.2442   1417.20764     809.2532     389.2442
   1417.19238     810.1282     389.0963   1417.19238     810.1282     389.0963
   1417.17712     809.6846     390.0682   1417.17712     809.6846     390.0682
   1417.16187     810.5946     390.6596   1417.16187     810.5946     390.6596
   1417.14661     810.6641     391.5893   1417.14661     810.6641     391.5893
   1417.13135     812.6281     391.4727   1417.13135     812.6281     391.4727
   1417.11609     814.3102     392.2346   1417.11609     814.3102     392.2346
   1417.10083     814.3521     392.3556   1417.10083     814.3521     392.3556
   1417.08557     815.5587     392.5787   1417.08557     815.5587     392.5787
   1417.07031     818.4703     393.7181   1417.07031     818.4703     393.7181
   1417.05505     818.1456     393.6933   1417.05505     818.1456     393.6933
   1417.03979     817.5055     394.6578   1417.03979     817.5055     394.6578
   1417.02454     819.5642     394.7095   1417.02454     819.5642     394.7095
   1417.00928     820.2885     395.1232   1417.00928     820.2885     395.1232
   1416.99402     822.7074     396.0743   1416.99402     822.7074     396.0743
   1416.97876     822.3460     396.1701   1416.97876     822.3460     396.1701
   1416.96350     822.9094     396.9417   1416.96350     822.9094     396.9417
   1416.94824     823.4986     396.9979   1416.94824     823.4986     396.9979
   1416.93298     826.1880     397.6104   1416.93298     826.1880     397.6104
   1416.91772     826.9660     398.5078   1416.91772     826.9660     398.5078
   1416.90247     826.5996     398.4439   1416.90247     826.5996     398.4439
   1416.88721     829.6923     399.4803   1416.88721     829.6923     399.4803
   1416.87195     829.3203     400.0333   1416.87195     829.3203     400.0333
   1416.85669     830.9330     400.6058   1416.85669     830.9330     400.6058
   1416.84143     831.6995     400.8489   1416.84143     831.6995     400.8489
   1416.82617     832.0226     400.8942   1416.82617     832.0226     400.8942
   1416.81091     832.3906     401.7700   1416.81091     832.3906     401.7700
   1416.79565     833.4827     402.5843   1416.79565     833.4827     402.5843
   1416.78040     834.8240     402.5498   1416.78040     834.8240     402.5498
   1416.76514     835.6157     403.1064   1416.76514     835.6157     403.1064
   1416.74988     836.2902     403.7347   1416.74988     836.2902     403.7347
   1416.73462     837.7468     403.9853   1416.73462     837.7468     403.9853
   1416.71936     838.3045     404.8016   1416.71936     838.3045     404.8016
   1416.70410     838.8376     404.7807   1416.70410     838.8376     404.7807
   1416.68884     840.3242     404.7471   1416.68884     840.3242     404.7471
   1416.67358     840.7511     405.2477   1416.67358     840.7511     405.2477
   1416.65833     840.5807     406.1153   1416.65833     840.5807     406.1153
   1416.64307     842.4261     406.4376   1416.64307     842.4261     406.4376
   1416.62781     843.0327     407.1385   1416.62781     843.0327     407.1385
   1416.61255     842.6048     407.1687   1416.61255     842.6048     407.1687
   1416.59729     844.0304     407.3518   1416.59729     844.0304     407.3518
   1416.58203     844.7061     407.7270   1416.58203     844.7061     407.7270
   1416.56677     844.7764     408.4588   1416.56677     844.7764     408.4588
   1416.55151     845.7203     408.7195   1416.55151     845.7203     408.7195
   1416.53625     847.4927     409.0262   1416.53625     847.4927     409.0262
   1416.52100     847.7742     409.3760   1416.52100     847.7742     409.3760
   1416.50574     848.7448     409.9136   1416.50574     848.7448     409.9136
   1416.49048     849.5701     410.3948   1416.49048     849.5701     410.3948
   1416.47522     848.9438     410.3304   1416.47522     848.9438     410.3304
   1416.45996     851.3209     410.7144   1416.45996     851.3209     410.7144
   1416.44470     851.0699     411.4346   1416.44470     851.0699     411.4346
   1416.42944     850.3611     412.3663   1416.42944     850.3611     412.3663
   1416.41418     851.1026     411.7911   1416.41418     851.1026     411.7911
   1416.39893     852.0950     412.5142   1416.39893     852.0950     412.5142
   1416.38367     852.8442     411.8786   1416.38367     852.8442     411.8786
   1416.36841     853.4447     412.3260   1416.36841     853.4447     412.3260
   1416.35315     853.6063     412.6567   1416.35315     853.6063     412.6567
   1416.33789     853.7346     412.8258   1416.33789     853.7346     412.8258
   1416.32263     853.5099     413.6003   1416.32263     853.5099     413.6003
   1416.30737     855.4434     414.0574   1416.30737     855.4434     414.0574
   1416.29211     854.6857     413.3413   1416.29211     854.6857     413.3413
   1416.27686     854.8439     413.9240   1416.27686     854.8439     413.9240
   1416.26160     855.7528     413.8399   1416.26160     855.7528     413.8399
   1416.24634     855.7395     414.0782   1416.24634     855.7395     414.0782
   1416.23108     857.3868     415.2542   1416.23108     857.3868     415.2542
   1416.21582     856.5034     414.8022   1416.21582     856.5034     414.8022
   1416.20056     857.0538     415.5023   1416.20056     857.0538     415.5023
   1416.18530     857.8311     415.3080   1416.18530     857.8311     415.3080
   1416.17004     857.9121     415.9174   1416.17004     857.9121     415.9174
   1416.15479     857.1928     415.6947   1416.15479     857.1928     415.6947
   1416.13953     857.3283     416.4930   1416.13953     857.3283     416.4930
   1416.12427     857.6630     416.1707   1416.12427     857.6630     416.1707
   1416.10901     856.6171     416.6959   1416.10901     856.6171     416.6959
   1416.09375     858.6763     416.5231   1416.09375     858.6763     416.5231
   1416.07849     858.6407     416.7531   1416.07849     858.6407     416.7531
   1416.06323     859.3547     416.8472   1416.06323     859.3547     416.8472
   1416.04797     858.9413     417.4008   1416.04797     858.9413     417.4008
   1416.03271     858.2008     417.3427   1416.03271     858.2008     417.3427
   1416.01746     858.1852     417.3413   1416.01746     858.1852     417.3413
   1416.00220     858.8140     418.2487   1416.00220     858.8140     418.2487
   1415.98694     859.5029     418.4296   1415.98694     859.5029     418.4296
   1415.97168     858.5646     418.9452   1415.97168     858.5646     418.9452
   1415.95642     857.8469     417.9826   1415.95642     857.8469     417.9826
   1415.94116     859.8305     418.4716   1415.94116     859.8305     418.4716
   1415.92590     858.1208     419.3428   1415.92590     858.1208     419.3428
   1415.91064     857.4164     418.6081   1415.91064     857.4164     418.6081
   1415.89539     858.0927     418.1918   1415.89539     858.0927     418.1918
   1415.88013     856.7831     418.7050   1415.88013     856.7831     418.7050
   1415.86487     858.1564     419.2102   1415.86487     858.1564     419.2102
   1415.84961     856.4142     419.5490   1415.84961     856.4142     419.5490
   1415.83435     856.9879     419.6115   1415.83435     856.9879     419.6115
   1415.81909     856.5509     419.4641   1415.81909     856.5509     419.4641
   1415.80383     856.4370     419.1262   1415.80383     856.4370     419.1262
   1415.78857     855.7244     419.7052   1415.78857     855.7244     419.7052
   1415.77332     856.0141     419.9174   1415.77332     856.0141     419.9174
   1415.75806     854.3172     419.7364   1415.75806     854.3172     419.7364
   1415.74280     854.6631     419.7101   1415.74280     854.6631     419.7101
   1415.72754     855.3222     419.9230   1415.72754     855.3222     419.9230
   1415.71228     853.2445     419.5047   1415.71228     853.2445     419.5047
   1415.69702     854.2369     420.2295   1415.69702     854.2369     420.2295
   1415.68176     853.0447     420.1666   1415.68176     853.0447     420.1666
   1415.66650     852.1782     420.0305   1415.66650     852.1782     420.0305
   1415.65125     853.3362     420.3435   1415.65125     853.3362     420.3435
   1415.63599     851.6330     419.9018   1415.63599     851.6330     419.9018
   1415.62073     850.7338     419.6241   1415.62073     850.7338     419.6241
   1415.60547     850.7661     419.3564   1415.60547     850.7661     419.3564
   1415.59021     848.6548     420.3889   1415.59021     848.6548     420.3889
   1415.57495     849.0960     420.8844   1415.57495     849.0960     420.8844
   1415.55969     848.1474     420.1369   1415.55969     848.1474     420.1369
   1415.54443     847.3369     421.2839   1415.54443     847.3369     421.2839
   1415.52917     847.6049     420.2985   1415.52917     847.6049     420.2985
   1415.51392     846.2196     420.6749   1415.51392     846.2196     420.6749
   1415.49866     845.3647     420.4072   1415.49866     845.3647     420.4072
   1415.48340     845.3002     419.8491   1415.48340     845.3002     419.8491
   1415.46814     843.4915     420.4863   1415.46814     843.4915     420.4863
   1415.45288     843.2662     419.9696   1415.45288     843.2662     419.9696
   1415.43762     842.0215     420.6951   1415.43762     842.0215     420.6951
   1415.42236     841.1415     420.8207   1415.42236     841.1415     420.8207
   1415.40710     840.5595     420.7045   1415.40710     840.5595     420.7045
   1415.39185     839.7047     419.0269   1415.39185     839.7047     419.0269
   1415.37659     838.3254     420.1234   1415.37659     838.3254     420.1234
   1415.36133     837.8626     419.5549   1415.36133     837.8626     419.5549
   1415.34607     836.1533     419.7328   1415.34607     836.1533     419.7328
   1415.33081     835.8720     420.0202   1415.33081     835.8720     420.0202
   1415.31555     834.6456     419.7715   1415.31555     834.6456     419.7715
   1415.30029     832.9247     419.3898   1415.30029     832.9247     419.3898
   1415.28503     832.2654     419.3895   1415.28503     832.2654     419.3895
   1415.26978     830.0331     418.8816   1415.26978     830.0331     418.8816
   1415.25452     829.1151     419.1876   1415.25452     829.1151     419.1876
   1415.23926     828.2464     418.4600   1415.23926     828.2464     418.4600
   1415.22400     826.3271     418.9868   1415.22400     826.3271     418.9868
   1415.20874     826.6158     419.1048   1415.20874     826.6158     419.1048
   1415.19348     825.6957     419.1789   1415.19348     825.6957     419.1789
   1415.17822     823.2149     419.8226   1415.17822     823.2149     419.8226
   1415.16296     820.6533     418.9126   1415.16296     820.6533     418.9126
   1415.14771     820.5005     418.3345   1415.14771     820.5005     418.3345
   1415.13245     817.6454     416.9657   1415.13245     817.6454     416.9657
   1415.11719     817.1961     417.9198   1415.11719     817.1961     417.9198
   1415.10193     816.4457     417.3509   1415.10193     816.4457     417.3509
   1415.08667     814.1398     416.9020   1415.08667     814.1398     416.9020
   1415.07141     813.3829     416.7735   1415.07141     813.3829     416.7735
   1415.05615     810.2863     416.7394   1415.05615     810.2863     416.7394
   1415.04089     809.3636     416.4655   1415.04089     809.3636     416.4655
   1415.02563     807.0608     416.4827   1415.02563     807.0608     416.4827
   1415.01038     804.8888     416.1762   1415.01038     804.8888     416.1762
   1414.99512     803.3400     415.0370   1414.99512     803.3400     415.0370
   1414.97986     802.2861     414.8974   1414.97986     802.2861     414.8974
   1414.96460     800.7540     415.0938   1414.96460     800.7540     415.0938
   1414.94934     798.8866     414.3640   1414.94934     798.8866     414.3640
   1414.93408     796.5959     414.3622   1414.93408     796.5959     414.3622
   1414.91882     794.2022     413.8391   1414.91882     794.2022     413.8391
   1414.90356     791.3713     413.6206   1414.90356     791.3713     413.6206
   1414.88831     789.9326     412.8526   1414.88831     789.9326     412.8526
   1414.87305     787.5778     412.5092   1414.87305     787.5778     412.5092
   1414.85779     785.9552     411.9773   1414.85779     785.9552     411.9773
   1414.84253     784.5795     411.4867   1414.84253     784.5795     411.4867
   1414.82727     781.6445     411.1535   1414.82727     781.6445     411.1535
   1414.81201     780.0336     410.9317   1414.81201     780.0336     410.9317
   1414.79675     778.3093     410.5509   1414.79675     778.3093     410.5509
   1414.78149     776.1795     409.9472   1414.78149     776.1795     409.9472
   1414.76624     774.0021     409.9160   1414.76624     774.0021     409.9160
   1414.75098     771.3296     408.7370   1414.75098     771.3296     408.7370
   1414.73572     768.4343     408.0179   1414.73572     768.4343     408.0179
   1414.72046     766.6520     407.8476   1414.72046     766.6520     407.8476
   1414.70520     765.7416     407.3422   1414.70520     765.7416     407.3422
   1414.68994     762.1085     407.2151   1414.68994     762.1085     407.2151
   1414.67468     759.4398     405.9454   1414.67468     759.4398     405.9454
   1414.65942     758.3439     405.5107   1414.65942     758.3439     405.5107
   1414.64417     754.7177     404.7028   1414.64417     754.7177     404.7028
   1414.62891     751.5677     404.3773   1414.62891     751.5677     404.3773
   1414.61365     750.2285     403.6342   1414.61365     750.2285     403.6342
   1414.59839     745.9193     403.4276   1414.59839     745.9193     403.4276
   1414.58313     743.9221     402.3105   1414.58313     743.9221     402.3105
   1414.56787     742.8221     401.4016   1414.56787     742.8221     401.4016
   1414.55261     739.7275     400.5792   1414.55261     739.7275     400.5792
   1414.53735     735.7020     400.4708   1414.53735     735.7020     400.4708
   1414.52209     732.7402     399.5571   1414.52209     732.7402     399.5571
   1414.50684     730.9937     398.9136   1414.50684     730.9937     398.9136
   1414.49158     728.4268     397.8521   1414.49158     728.4268     397.8521
   1414.47632     725.8664     397.0742   1414.47632     725.8664     397.0742
   1414.46106     722.6689     396.2907   1414.46106     722.6689     396.2907
   1414.44580     720.2578     395.9917   1414.44580     720.2578     395.9917
   1414.43054     716.2755     394.8164   1414.43054     716.2755     394.8164
   1414.41528     713.2172     394.0368   1414.41528     713.2172     394.0368
   1414.40002     711.8339     392.8821   1414.40002     711.8339     392.8821
   1414.38477     707.5638     392.4816   1414.38477     707.5638     392.4816
   1414.36951     705.3696     391.9906   1414.36951     705.3696     391.9906
   1414.35425     703.0316     390.7360   1414.35425     703.0316     390.7360
   1414.33899     699.6238     389.7634   1414.33899     699.6238     389.7634
   1414.32373     695.4396     388.8465   1414.32373     695.4396     388.8465
   1414.30847     692.4415     387.5883   1414.30847     692.4415     387.5883
   1414.29321     689.8406     386.3749   1414.29321     689.8406     386.3749
   1414.27795     686.9733     386.4409   1414.27795     686.9733     386.4409
   1414.26270     683.0751     384.4990   1414.26270     683.0751     384.4990
   1414.24744     680.4639     383.6036   1414.24744     680.4639     383.6036
   1414.23218     677.4992     383.4141   1414.23218     677.4992     383.4141
   1414.21692     673.6172     381.9621   1414.21692     673.6172     381.9621
   1414.20166     670.8971     380.4089   1414.20166     670.8971     380.4089
   1414.18640     667.5957     380.0486   1414.18640     667.5957     380.0486
   1414.17114     665.1387     378.9214   1414.17114     665.1387     378.9214
   1414.15588     661.5604     377.5718   1414.15588     661.5604     377.5718
   1414.14062     658.5847     376.9348   1414.14062     658.5847     376.9348
   1414.12537     654.0166     375.4164   1414.12537     654.0166     375.4164
   1414.11011     650.6422     374.5916   1414.11011     650.6422     374.5916
   1414.09485     648.9869     373.1147   1414.09485     648.9869     373.1147
   1414.07959     644.8146     372.2951   1414.07959     644.8146     372.2951
   1414.06433     641.1829     371.0245   1414.06433     641.1829     371.0245
   1414.04907     637.5358     369.9350   1414.04907     637.5358     369.9350
   1414.03381     635.3055     368.7876   1414.03381     635.3055     368.7876
   1414.01855     631.4525     367.2646   1414.01855     631.4525     367.2646
   1414.00330     630.6381     367.5553   1414.00330     630.6381     367.5553
   1413.98804     623.8063     365.8371   1413.98804     623.8063     365.8371
   1413.97278     621.5852     363.7918   1413.97278     621.5852     363.7918
   1413.95752     618.4014     362.4237   1413.95752     618.4014     362.4237
   1413.94226     614.9338     361.2774   1413.94226     614.9338     361.2774
   1413.92700     610.2908     360.2022   1413.92700     610.2908     360.2022
   1413.91174     607.7225     358.3111   1413.91174     607.7225     358.3111
   1413.89648     604.5314     357.5840   1413.89648     604.5314     357.5840
   1413.88123     601.5842     355.9278   1413.88123     601.5842     355.9278
   1413.86597     596.8135     355.4028   1413.86597     596.8135     355.4028
   1413.85071     593.8509     353.9143   1413.85071     593.8509     353.9143
   1413.83545     590.2119     352.7057   1413.83545     590.2119     352.7057
   1413.82019     586.8925     350.7085   1413.82019     586.8925     350.7085
   1413.80493     583.3353     349.5229   1413.80493     583.3353     349.5229
   1413.78967     579.3073     348.7023   1413.78967     579.3073     348.7023
   1413.77441     576.5648     346.6608   1413.77441     576.5648     346.6608
   1413.75916     573.3770     346.1049   1413.75916     573.3770     346.1049
   1413.74390     569.8527     344.3376   1413.74390     569.8527     344.3376
   1413.72864     565.9257     343.0295   1413.72864     565.9257     343.0295
   1413.71338     563.1436     341.3460   1413.71338     563.1436     341.3460
   1413.69812     559.4567     340.1013   1413.69812     559.4567     340.1013
   1413.68286     555.5165     338.7052   1413.68286     555.5165     338.7052
   1413.66760     552.9742     337.1379   1413.66760     552.9742     337.1379
   1413.65234     549.5280     335.8227   1413.65234     549.5280     335.8227
   1413.63708     545.6124     334.2823   1413.63708     545.6124     334.2823
   1413.62183     541.8824     332.6293   1413.62183     541.8824     332.6293
   1413.60657     539.5336     331.1209   1413.60657     539.5336     331.1209
   1413.59131     535.7908     330.6201   1413.59131     535.7908     330.6201
   1413.57605     533.0455     329.2320   1413.57605     533.0455     329.2320
   1413.56079     529.1517     326.9478   1413.56079     529.1517     326.9478
   1413.54553     525.5587     325.9315   1413.54553     525.5587     325.9315
   1413.53027     522.8798     324.1866   1413.53027     522.8798     324.1866
   1413.51501     519.3558     322.5421   1413.51501     519.3558     322.5421
   1413.49976     516.2352     321.1562   1413.49976     516.2352     321.1562
   1413.48450     513.4626     320.1658   1413.48450     513.4626     320.1658
   1413.46924     510.4556     318.4039   1413.46924     510.4556     318.4039
   1413.45398     506.1830     317.7602   1413.45398     506.1830     317.7602
   1413.43872     503.5053     315.6964   1413.43872     503.5053     315.6964
   1413.42346     500.8840     314.0123   1413.42346     500.8840     314.0123
   1413.40820     497.2909     312.7964   1413.40820     497.2909     312.7964
   1413.39294     493.6208     311.7628   1413.39294     493.6208     311.7628
   1413.37769     491.4565     309.5974   1413.37769     491.4565     309.5974
   1413.36243     488.3576     308.5145   1413.36243     488.3576     308.5145
   1413.34717     485.2316     307.0296   1413.34717     485.2316     307.0296
   1413.33191     482.0995     305.2728   1413.33191     482.0995     305.2728
   1413.31665     479.3003     304.3457   1413.31665     479.3003     304.3457
   1413.30139     476.3408     302.5148   1413.30139     476.3408     302.5148
   1413.28613     473.7720     301.1609   1413.28613     473.7720     301.1609
   1413.27087     470.8901     299.6381   1413.27087     470.8901     299.6381
   1413.25562     467.8857     298.0585   1413.25562     467.8857     298.0585
   1413.24036     464.5678     296.7104   1413.24036     464.5678     296.7104
   1413.22510     461.7278     295.4765   1413.22510     461.7278     295.4765
   1413.20984     459.2737     293.8146   1413.20984     459.2737     293.8146
   1413.19458     457.0751     292.4388   1413.19458     457.0751     292.4388
   1413.17932     453.8536     291.5175   1413.17932     453.8536     291.5175
   1413.16406     451.7753     290.2201   1413.16406     451.7753     290.2201
   1413.14880     448.6908     288.5166   1413.14880     448.6908     288.5166
   1413.13354     446.3574     288.3628   1413.13354     446.3574     288.3628
   1413.11829     443.4112     286.8104   1413.11829     443.4112     286.8104
   1413.10303     440.9317     284.5701   1413.10303     440.9317     284.5701
   1413.08777     438.2079     283.5302   1413.08777     438.2079     283.5302
   1413.07251     435.9609     281.7150   1413.07251     435.9609     281.7150
   1413.05725     433.6414     280.7001   1413.05725     433.6414     280.7001
   1413.04199     431.6870     279.5508   1413.04199     431.6870     279.5508
   1413.02673     429.3911     278.1613   1413.02673     429.3911     278.1613
   1413.01147     427.3947     277.0291   1413.01147     427.3947     277.0291
   1412.99622     424.7730     275.1494   1412.99622     424.7730     275.1494
   1412.98096     423.4279     274.4337   1412.98096     423.4279     274.4337
   1412.96570     420.6982     273.1989   1412.96570     420.6982     273.1989
   1412.95044     419.2168     272.2343   1412.95044     419.2168     272.2343
   1412.93518     416.6897     271.3260   1412.93518     416.6897     271.3260
   1412.91992     414.9870     270.1007   1412.91992     414.9870     270.1007
   1412.90466     412.6387     268.9315   1412.90466     412.6387     268.9315
   1412.88940     410.7231     267.9471   1412.88940     410.7231     267.9471
   1412.87415     408.9006     266.4414   1412.87415     408.9006     266.4414
   1412.85889     407.7430     264.9575   1412.85889     407.7430     264.9575
   1412.84363     406.3519     264.1922   1412.84363     406.3519     264.1922
   1412.82837     403.9202     262.9658   1412.82837     403.9202     262.9658
   1412.81311     402.7656     261.7683   1412.81311     402.7656     261.7683
   1412.79785     401.4630     261.5299   1412.79785     401.4630     261.5299
   1412.78259     399.4597     260.0950   1412.78259     399.4597     260.0950
   1412.76733     397.4123     259.5288   1412.76733     397.4123     259.5288
   1412.75208     396.0620     258.1474   1412.75208     396.0620     258.1474
   1412.73682     395.4357     257.1201   1412.73682     395.4357     257.1201
   1412.72156     394.1963     256.3637   1412.72156     394.1963     256.3637
   1412.70630     392.8158     255.2649   1412.70630     392.8158     255.2649
   1412.69104     391.2831     254.6503   1412.69104     391.2831     254.6503
   1412.67578     390.0838     253.8230   1412.67578     390.0838     253.8230
   1412.66052     389.2308     252.9926   1412.66052     389.2308     252.9926
   1412.64526     388.3591     252.2618   1412.64526     388.3591     252.2618
   1412.63000     387.1343     251.8599   1412.63000     387.1343     251.8599
   1412.61475     386.1338     251.0663   1412.61475     386.1338     251.0663
   1412.59949     385.7042     250.0179   1412.59949     385.7042     250.0179
   1412.58423     383.9355     249.5428   1412.58423     383.9355     249.5428
   1412.56897     384.0192     249.1025   1412.56897     384.0192     249.1025
   1412.55371     382.5046     248.2501   1412.55371     382.5046     248.2501
   1412.53845     382.2533     247.7337   1412.53845     382.2533     247.7337
   1412.52319     382.1784     247.0725   1412.52319     382.1784     247.0725
   1412.50793     381.1626     246.5606   1412.50793     381.1626     246.5606
   1412.49268     381.3961     246.1624   1412.49268     381.3961     246.1624
   1412.47742     380.3896     245.6736   1412.47742     380.3896     245.6736
   1412.46216     380.6666     245.5485   1412.46216     380.6666     245.5485
   1412.44690     379.7640     245.4848   1412.44690     379.7640     245.4848
   1412.43164     379.5970     244.5399   1412.43164     379.5970     244.5399
   1412.41638     379.4648     244.4246   1412.41638     379.4648     244.4246
   1412.40112     379.4173     244.1077   1412.40112     379.4173     244.1077
   1412.38586     378.5029     244.2758   1412.38586     378.5029     244.2758
   1412.37061     379.2722     243.8330   1412.37061     379.2722     243.8330
   1412.35535     378.4784     243.4410   1412.35535     378.4784     243.4410
   1412.34009     379.0556     243.6804   1412.34009     379.0556     243.6804
   1412.32483     378.7025     243.1669   1412.32483     378.7025     243.1669
   1412.30957     378.9679     243.6136   1412.30957     378.9679     243.6136
   1412.29431     379.8414     243.5664   1412.29431     379.8414     243.5664
   1412.27905     379.3556     243.5184   1412.27905     379.3556     243.5184
   1412.26379     379.8900     243.1001   1412.26379     379.8900     243.1001
   1412.24854     380.7798     243.4135   1412.24854     380.7798     243.4135
   1412.23328     381.2854     243.9743   1412.23328     381.2854     243.9743
   1412.21802     381.1479     243.5039   1412.21802     381.1479     243.5039
   1412.20276     381.8660     243.9627   1412.20276     381.8660     243.9627