#     FILENAME=!Skynet_57528_lach-cc-236_20652_21020.cyb.fits
#     BASENAME=Skynet_57528_lach-cc-236_20652_21020
#     SRC_NAME=lach-cc-236
#     OBSERVER=ccmadison16_9505
#     DATE_OBS=2016-05-20T19:15:54.560
#        OBSID=20652
#      SCANNUM=21020
#          MJD=57528.8038
#          UTC=69444
#     SCANTYPE=track
#     DATAMODE=HIRES
#     TUNEFREQ=1420.0000
# Actual_FREQ1=1420.0000
# Actual_FREQ2=1420.0000
#    LO1Tuning=6870.000
#     RFFILTER=1355_1435
#        OBSBW=-15.6250
#        NCHAN=1024 
#        FOCUS=37.0709
#           RA=07:35:25.20
#          DEC=-20:24:36.89
#      RA(hrs)=7.590300
#     DEC(deg)=-20.410200
#    AZIM(deg)=152.208
#    ELEV(deg)=26.098
#     IFattens=10.00, 9.00
#      WARNING=None
#    TCAL_XL1=7.9635
#    TCAL_YR1=9.1340
#    TCAL_XL2=7.9635
#    TCAL_YR2=9.1340
#     TRX_XL1=11.7060
#     TRX_YR1=11.7060
#     TRX_XL2=11.7060
#     TRX_YR2=11.7060
#        TAVE=1.0000
#Freq1(MHz)          XL1          YR1  Freq2(MHz)          XL2          YR2 

   1427.81250     368.9460     290.0266   1427.81250     368.9460     290.0266
   1427.79724     369.4643     290.3971   1427.79724     369.4643     290.3971
   1427.78198     370.2586     291.2482   1427.78198     370.2586     291.2482
   1427.76672     370.7661     291.7068   1427.76672     370.7661     291.7068
   1427.75146     371.9604     291.9799   1427.75146     371.9604     291.9799
   1427.73621     372.7265     293.2402   1427.73621     372.7265     293.2402
   1427.72095     373.6535     294.0718   1427.72095     373.6535     294.0718
   1427.70569     374.6210     293.9182   1427.70569     374.6210     293.9182
   1427.69043     375.6471     295.0404   1427.69043     375.6471     295.0404
   1427.67517     377.1087     295.6842   1427.67517     377.1087     295.6842
   1427.65991     377.4888     296.6361   1427.65991     377.4888     296.6361
   1427.64465     379.3706     297.5226   1427.64465     379.3706     297.5226
   1427.62939     380.2845     299.0284   1427.62939     380.2845     299.0284
   1427.61414     382.3091     299.2825   1427.61414     382.3091     299.2825
   1427.59888     382.5665     301.0367   1427.59888     382.5665     301.0367
   1427.58362     384.2478     301.9745   1427.58362     384.2478     301.9745
   1427.56836     385.5978     302.3596   1427.56836     385.5978     302.3596
   1427.55310     387.3914     303.6394   1427.55310     387.3914     303.6394
   1427.53784     388.9711     305.2016   1427.53784     388.9711     305.2016
   1427.52258     390.9266     305.9741   1427.52258     390.9266     305.9741
   1427.50732     392.0800     307.5620   1427.50732     392.0800     307.5620
   1427.49207     393.2846     308.8077   1427.49207     393.2846     308.8077
   1427.47681     396.0266     310.3268   1427.47681     396.0266     310.3268
   1427.46155     398.1658     312.1396   1427.46155     398.1658     312.1396
   1427.44629     400.0135     313.0189   1427.44629     400.0135     313.0189
   1427.43103     400.6892     314.5229   1427.43103     400.6892     314.5229
   1427.41577     402.3035     315.8928   1427.41577     402.3035     315.8928
   1427.40051     404.7588     317.5398   1427.40051     404.7588     317.5398
   1427.38525     406.9241     318.5469   1427.38525     406.9241     318.5469
   1427.37000     409.2185     320.2621   1427.37000     409.2185     320.2621
   1427.35474     410.9470     322.1360   1427.35474     410.9470     322.1360
   1427.33948     412.8460     323.6646   1427.33948     412.8460     323.6646
   1427.32422     415.0062     325.1774   1427.32422     415.0062     325.1774
   1427.30896     418.1073     326.8146   1427.30896     418.1073     326.8146
   1427.29370     419.8243     328.7015   1427.29370     419.8243     328.7015
   1427.27844     421.6043     330.1110   1427.27844     421.6043     330.1110
   1427.26318     423.9695     332.5008   1427.26318     423.9695     332.5008
   1427.24792     426.6738     334.1101   1427.24792     426.6738     334.1101
   1427.23267     428.3537     335.8434   1427.23267     428.3537     335.8434
   1427.21741     431.7699     337.7352   1427.21741     431.7699     337.7352
   1427.20215     433.2157     339.7563   1427.20215     433.2157     339.7563
   1427.18689     436.2027     342.0087   1427.18689     436.2027     342.0087
   1427.17163     438.5378     343.2191   1427.17163     438.5378     343.2191
   1427.15637     441.8822     345.0461   1427.15637     441.8822     345.0461
   1427.14111     443.5551     348.0971   1427.14111     443.5551     348.0971
   1427.12585     446.3635     349.7299   1427.12585     446.3635     349.7299
   1427.11060     448.2709     351.5258   1427.11060     448.2709     351.5258
   1427.09534     451.8864     353.7085   1427.09534     451.8864     353.7085
   1427.08008     454.3034     356.0068   1427.08008     454.3034     356.0068
   1427.06482     457.4252     358.1934   1427.06482     457.4252     358.1934
   1427.04956     460.3908     359.7982   1427.04956     460.3908     359.7982
   1427.03430     461.9673     361.8098   1427.03430     461.9673     361.8098
   1427.01904     464.3296     364.9171   1427.01904     464.3296     364.9171
   1427.00378     467.8650     366.9432   1427.00378     467.8650     366.9432
   1426.98853     470.4969     369.1784   1426.98853     470.4969     369.1784
   1426.97327     473.4020     371.1935   1426.97327     473.4020     371.1935
   1426.95801     476.4862     373.3058   1426.95801     476.4862     373.3058
   1426.94275     478.6411     375.9404   1426.94275     478.6411     375.9404
   1426.92749     482.1027     378.1960   1426.92749     482.1027     378.1960
   1426.91223     484.7360     380.2523   1426.91223     484.7360     380.2523
   1426.89697     488.0412     382.9926   1426.89697     488.0412     382.9926
   1426.88171     489.9034     385.2037   1426.88171     489.9034     385.2037
   1426.86646     493.7207     386.9453   1426.86646     493.7207     386.9453
   1426.85120     495.7014     389.0446   1426.85120     495.7014     389.0446
   1426.83594     499.2328     392.5248   1426.83594     499.2328     392.5248
   1426.82068     501.8664     394.6908   1426.82068     501.8664     394.6908
   1426.80542     505.2375     396.9129   1426.80542     505.2375     396.9129
   1426.79016     508.9196     399.8771   1426.79016     508.9196     399.8771
   1426.77490     511.3245     401.9262   1426.77490     511.3245     401.9262
   1426.75964     514.4490     404.2908   1426.75964     514.4490     404.2908
   1426.74438     517.3121     406.4436   1426.74438     517.3121     406.4436
   1426.72913     520.4307     408.8716   1426.72913     520.4307     408.8716
   1426.71387     523.8273     411.9436   1426.71387     523.8273     411.9436
   1426.69861     526.3488     414.3071   1426.69861     526.3488     414.3071
   1426.68335     528.4711     416.1708   1426.68335     528.4711     416.1708
   1426.66809     531.4935     419.3954   1426.66809     531.4935     419.3954
   1426.65283     536.0743     421.4297   1426.65283     536.0743     421.4297
   1426.63757     538.7861     424.1143   1426.63757     538.7861     424.1143
   1426.62231     543.9276     427.7536   1426.62231     543.9276     427.7536
   1426.60706     543.7914     429.5031   1426.60706     543.7914     429.5031
   1426.59180     546.9930     431.8082   1426.59180     546.9930     431.8082
   1426.57654     550.6246     433.6645   1426.57654     550.6246     433.6645
   1426.56128     552.2278     435.7654   1426.56128     552.2278     435.7654
   1426.54602     556.1285     438.9674   1426.54602     556.1285     438.9674
   1426.53076     558.7438     442.0041   1426.53076     558.7438     442.0041
   1426.51550     561.3382     443.8733   1426.51550     561.3382     443.8733
   1426.50024     564.4180     445.9379   1426.50024     564.4180     445.9379
   1426.48499     567.0056     449.1277   1426.48499     567.0056     449.1277
   1426.46973     570.5989     451.2029   1426.46973     570.5989     451.2029
   1426.45447     572.8316     453.8486   1426.45447     572.8316     453.8486
   1426.43921     575.5159     456.4966   1426.43921     575.5159     456.4966
   1426.42395     578.8317     459.0388   1426.42395     578.8317     459.0388
   1426.40869     582.2841     461.6424   1426.40869     582.2841     461.6424
   1426.39343     584.9613     463.7141   1426.39343     584.9613     463.7141
   1426.37817     587.8471     465.8695   1426.37817     587.8471     465.8695
   1426.36292     589.8173     469.2324   1426.36292     589.8173     469.2324
   1426.34766     593.1428     470.8522   1426.34766     593.1428     470.8522
   1426.33240     595.7773     473.3990   1426.33240     595.7773     473.3990
   1426.31714     599.4650     475.9662   1426.31714     599.4650     475.9662
   1426.30188     601.0814     478.4452   1426.30188     601.0814     478.4452
   1426.28662     603.9872     481.3242   1426.28662     603.9872     481.3242
   1426.27136     607.9941     483.1926   1426.27136     607.9941     483.1926
   1426.25610     609.8782     485.8948   1426.25610     609.8782     485.8948
   1426.24084     612.7711     488.6321   1426.24084     612.7711     488.6321
   1426.22559     615.5847     491.0240   1426.22559     615.5847     491.0240
   1426.21033     618.5106     493.0656   1426.21033     618.5106     493.0656
   1426.19507     619.6974     496.1899   1426.19507     619.6974     496.1899
   1426.17981     624.4220     497.7174   1426.17981     624.4220     497.7174
   1426.16455     626.3832     500.1539   1426.16455     626.3832     500.1539
   1426.14929     628.5185     502.0777   1426.14929     628.5185     502.0777
   1426.13403     631.2602     506.4474   1426.13403     631.2602     506.4474
   1426.11877     633.2355     507.7169   1426.11877     633.2355     507.7169
   1426.10352     635.3745     510.0137   1426.10352     635.3745     510.0137
   1426.08826     638.4037     512.4539   1426.08826     638.4037     512.4539
   1426.07300     640.4355     514.5900   1426.07300     640.4355     514.5900
   1426.05774     642.7317     516.8237   1426.05774     642.7317     516.8237
   1426.04248     646.2010     518.7286   1426.04248     646.2010     518.7286
   1426.02722     647.3510     521.8963   1426.02722     647.3510     521.8963
   1426.01196     649.7183     523.2459   1426.01196     649.7183     523.2459
   1425.99670     653.0116     526.1506   1425.99670     653.0116     526.1506
   1425.98145     655.3890     529.0626   1425.98145     655.3890     529.0626
   1425.96619     657.2961     530.3316   1425.96619     657.2961     530.3316
   1425.95093     659.2524     533.2288   1425.95093     659.2524     533.2288
   1425.93567     662.1424     536.1889   1425.93567     662.1424     536.1889
   1425.92041     663.6330     537.8454   1425.92041     663.6330     537.8454
   1425.90515     667.0639     539.5411   1425.90515     667.0639     539.5411
   1425.88989     667.5706     541.6855   1425.88989     667.5706     541.6855
   1425.87463     670.3445     544.4493   1425.87463     670.3445     544.4493
   1425.85938     672.5214     546.7944   1425.85938     672.5214     546.7944
   1425.84412     674.9345     548.5067   1425.84412     674.9345     548.5067
   1425.82886     676.4775     550.4088   1425.82886     676.4775     550.4088
   1425.81360     677.8297     552.3994   1425.81360     677.8297     552.3994
   1425.79834     680.8120     556.7790   1425.79834     680.8120     556.7790
   1425.78308     682.6564     557.5419   1425.78308     682.6564     557.5419
   1425.76782     684.0795     558.4254   1425.76782     684.0795     558.4254
   1425.75256     686.3672     561.0157   1425.75256     686.3672     561.0157
   1425.73730     686.7433     561.3382   1425.73730     686.7433     561.3382
   1425.72205     688.9794     565.4521   1425.72205     688.9794     565.4521
   1425.70679     691.4250     566.9426   1425.70679     691.4250     566.9426
   1425.69153     692.3524     569.3087   1425.69153     692.3524     569.3087
   1425.67627     693.8001     570.5526   1425.67627     693.8001     570.5526
   1425.66101     697.2956     573.1783   1425.66101     697.2956     573.1783
   1425.64575     697.1617     574.7890   1425.64575     697.1617     574.7890
   1425.63049     699.8413     577.2654   1425.63049     699.8413     577.2654
   1425.61523     701.1601     578.7515   1425.61523     701.1601     578.7515
   1425.59998     704.5999     582.1799   1425.59998     704.5999     582.1799
   1425.58472     705.1804     583.7572   1425.58472     705.1804     583.7572
   1425.56946     707.1508     585.5298   1425.56946     707.1508     585.5298
   1425.55420     708.5162     587.4196   1425.55420     708.5162     587.4196
   1425.53894     709.8956     590.8991   1425.53894     709.8956     590.8991
   1425.52368     711.4465     593.7438   1425.52368     711.4465     593.7438
   1425.50842     713.4431     595.5156   1425.50842     713.4431     595.5156
   1425.49316     713.8201     597.1566   1425.49316     713.8201     597.1566
   1425.47791     715.9457     597.5746   1425.47791     715.9457     597.5746
   1425.46265     717.4469     601.2417   1425.46265     717.4469     601.2417
   1425.44739     718.1823     604.0702   1425.44739     718.1823     604.0702
   1425.43213     720.1405     607.5030   1425.43213     720.1405     607.5030
   1425.41687     725.8855     609.9806   1425.41687     725.8855     609.9806
   1425.40161     721.7092     608.8285   1425.40161     721.7092     608.8285
   1425.38635     721.9717     610.3611   1425.38635     721.9717     610.3611
   1425.37109     725.3510     612.8453   1425.37109     725.3510     612.8453
   1425.35583     726.7463     617.9929   1425.35583     726.7463     617.9929
   1425.34058     728.9928     620.2015   1425.34058     728.9928     620.2015
   1425.32532     728.3704     620.4548   1425.32532     728.3704     620.4548
   1425.31006     728.3199     619.5196   1425.31006     728.3199     619.5196
   1425.29480     730.4970     620.8716   1425.29480     730.4970     620.8716
   1425.27954     732.6022     625.9077   1425.27954     732.6022     625.9077
   1425.26428     731.6793     628.5823   1425.26428     731.6793     628.5823
   1425.24902     733.9540     629.5326   1425.24902     733.9540     629.5326
   1425.23376     734.0822     628.4398   1425.23376     734.0822     628.4398
   1425.21851     733.5418     627.3541   1425.21851     733.5418     627.3541
   1425.20325     735.9786     630.4586   1425.20325     735.9786     630.4586
   1425.18799     735.7151     634.6266   1425.18799     735.7151     634.6266
   1425.17273     736.7010     635.7763   1425.17273     736.7010     635.7763
   1425.15747     737.4816     635.1489   1425.15747     737.4816     635.1489
   1425.14221     738.0995     634.0060   1425.14221     738.0995     634.0060
   1425.12695     737.4832     635.1552   1425.12695     737.4832     635.1552
   1425.11169     738.7229     636.9164   1425.11169     738.7229     636.9164
   1425.09644     739.5190     639.6700   1425.09644     739.5190     639.6700
   1425.08118     739.7814     641.2913   1425.08118     739.7814     641.2913
   1425.06592     741.8415     640.3284   1425.06592     741.8415     640.3284
   1425.05066     742.0165     641.5895   1425.05066     742.0165     641.5895
   1425.03540     741.3039     643.7581   1425.03540     741.3039     643.7581
   1425.02014     741.8973     644.0129   1425.02014     741.8973     644.0129
   1425.00488     743.3792     645.5236   1425.00488     743.3792     645.5236
   1424.98962     742.6070     646.5756   1424.98962     742.6070     646.5756
   1424.97437     742.7850     647.3754   1424.97437     742.7850     647.3754
   1424.95911     743.5618     647.6171   1424.95911     743.5618     647.6171
   1424.94385     744.0973     649.1534   1424.94385     744.0973     649.1534
   1424.92859     743.6811     651.3529   1424.92859     743.6811     651.3529
   1424.91333     744.5499     652.0125   1424.91333     744.5499     652.0125
   1424.89807     744.8127     653.1462   1424.89807     744.8127     653.1462
   1424.88281     746.4615     653.8270   1424.88281     746.4615     653.8270
   1424.86755     745.9172     654.9081   1424.86755     745.9172     654.9081
   1424.85229     746.4069     656.8483   1424.85229     746.4069     656.8483
   1424.83704     748.4003     657.4717   1424.83704     748.4003     657.4717
   1424.82178     747.0685     659.0533   1424.82178     747.0685     659.0533
   1424.80652     747.5369     660.3335   1424.80652     747.5369     660.3335
   1424.79126     747.4383     661.6798   1424.79126     747.4383     661.6798
   1424.77600     747.5342     662.7122   1424.77600     747.5342     662.7122
   1424.76074     748.0044     662.8573   1424.76074     748.0044     662.8573
   1424.74548     747.8870     665.5991   1424.74548     747.8870     665.5991
   1424.73022     748.5042     664.9783   1424.73022     748.5042     664.9783
   1424.71497     748.7407     667.6823   1424.71497     748.7407     667.6823
   1424.69971     748.6406     667.7136   1424.69971     748.6406     667.7136
   1424.68445     748.7260     669.5046   1424.68445     748.7260     669.5046
   1424.66919     748.3235     669.2755   1424.66919     748.3235     669.2755
   1424.65393     748.4004     671.1699   1424.65393     748.4004     671.1699
   1424.63867     748.9019     670.6707   1424.63867     748.9019     670.6707
   1424.62341     749.1410     671.5353   1424.62341     749.1410     671.5353
   1424.60815     749.4257     673.0836   1424.60815     749.4257     673.0836
   1424.59290     747.9732     674.5509   1424.59290     747.9732     674.5509
   1424.57764     749.2975     674.3160   1424.57764     749.2975     674.3160
   1424.56238     750.0349     675.9048   1424.56238     750.0349     675.9048
   1424.54712     748.8818     676.6622   1424.54712     748.8818     676.6622
   1424.53186     749.6469     677.7104   1424.53186     749.6469     677.7104
   1424.51660     749.2369     679.0325   1424.51660     749.2369     679.0325
   1424.50134     749.5576     677.5959   1424.50134     749.5576     677.5959
   1424.48608     749.3126     680.0996   1424.48608     749.3126     680.0996
   1424.47083     749.3814     680.6838   1424.47083     749.3814     680.6838
   1424.45557     749.8768     681.2281   1424.45557     749.8768     681.2281
   1424.44031     750.0916     681.1837   1424.44031     750.0916     681.1837
   1424.42505     750.2458     681.8857   1424.42505     750.2458     681.8857
   1424.40979     749.8010     682.9189   1424.40979     749.8010     682.9189
   1424.39453     748.8780     685.0124   1424.39453     748.8780     685.0124
   1424.37927     748.7368     684.6136   1424.37927     748.7368     684.6136
   1424.36401     750.2435     685.3307   1424.36401     750.2435     685.3307
   1424.34875     748.4852     685.9617   1424.34875     748.4852     685.9617
   1424.33350     748.4500     687.0154   1424.33350     748.4500     687.0154
   1424.31824     749.9335     686.7872   1424.31824     749.9335     686.7872
   1424.30298     749.8433     688.4047   1424.30298     749.8433     688.4047
   1424.28772     749.0573     688.4684   1424.28772     749.0573     688.4684
   1424.27246     748.8094     687.8992   1424.27246     748.8094     687.8992
   1424.25720     749.1360     689.3787   1424.25720     749.1360     689.3787
   1424.24194     747.8686     689.7778   1424.24194     747.8686     689.7778
   1424.22668     748.0281     690.8165   1424.22668     748.0281     690.8165
   1424.21143     747.8279     689.7379   1424.21143     747.8279     689.7379
   1424.19617     748.3543     690.1234   1424.19617     748.3543     690.1234
   1424.18091     747.4931     690.3918   1424.18091     747.4931     690.3918
   1424.16565     748.8484     691.1505   1424.16565     748.8484     691.1505
   1424.15039     747.0737     692.4583   1424.15039     747.0737     692.4583
   1424.13513     747.0973     692.6972   1424.13513     747.0973     692.6972
   1424.11987     747.5494     692.6328   1424.11987     747.5494     692.6328
   1424.10461     747.1035     693.2973   1424.10461     747.1035     693.2973
   1424.08936     746.0308     693.0919   1424.08936     746.0308     693.0919
   1424.07410     747.4280     694.4384   1424.07410     747.4280     694.4384
   1424.05884     746.2625     694.3328   1424.05884     746.2625     694.3328
   1424.04358     746.0811     695.2884   1424.04358     746.0811     695.2884
   1424.02832     746.2346     694.4011   1424.02832     746.2346     694.4011
   1424.01306     746.5423     694.5529   1424.01306     746.5423     694.5529
   1423.99780     746.3885     694.6149   1423.99780     746.3885     694.6149
   1423.98254     745.4247     695.4688   1423.98254     745.4247     695.4688
   1423.96729     744.1425     695.6715   1423.96729     744.1425     695.6715
   1423.95203     745.1585     694.8315   1423.95203     745.1585     694.8315
   1423.93677     744.8032     695.6487   1423.93677     744.8032     695.6487
   1423.92151     745.7188     695.1640   1423.92151     745.7188     695.1640
   1423.90625     743.6406     695.3314   1423.90625     743.6406     695.3314
   1423.89099     744.6849     694.9761   1423.89099     744.6849     694.9761
   1423.87573     743.9094     695.4597   1423.87573     743.9094     695.4597
   1423.86047     744.0341     696.0180   1423.86047     744.0341     696.0180
   1423.84521     743.2441     695.8184   1423.84521     743.2441     695.8184
   1423.82996     742.9003     695.2039   1423.82996     742.9003     695.2039
   1423.81470     742.8073     695.0959   1423.81470     742.8073     695.0959
   1423.79944     742.8918     694.9743   1423.79944     742.8918     694.9743
   1423.78418     741.4928     694.5271   1423.78418     741.4928     694.5271
   1423.76892     742.5721     696.1962   1423.76892     742.5721     696.1962
   1423.75366     742.4036     695.2296   1423.75366     742.4036     695.2296
   1423.73840     741.1398     695.2972   1423.73840     741.1398     695.2972
   1423.72314     742.2622     694.4099   1423.72314     742.2622     694.4099
   1423.70789     741.9611     694.6980   1423.70789     741.9611     694.6980
   1423.69263     741.2618     694.1849   1423.69263     741.2618     694.1849
   1423.67737     741.7344     694.1210   1423.67737     741.7344     694.1210
   1423.66211     739.8143     694.1470   1423.66211     739.8143     694.1470
   1423.64685     739.8347     693.3429   1423.64685     739.8347     693.3429
   1423.63159     739.1717     693.1761   1423.63159     739.1717     693.1761
   1423.61633     739.1843     693.5313   1423.61633     739.1843     693.5313
   1423.60107     739.2684     693.3199   1423.60107     739.2684     693.3199
   1423.58582     739.1334     693.0197   1423.58582     739.1334     693.0197
   1423.57056     737.6128     692.0114   1423.57056     737.6128     692.0114
   1423.55530     739.1688     691.0609   1423.55530     739.1688     691.0609
   1423.54004     737.0946     692.0743   1423.54004     737.0946     692.0743
   1423.52478     738.1989     690.8781   1423.52478     738.1989     690.8781
   1423.50952     738.8032     690.7007   1423.50952     738.8032     690.7007
   1423.49426     737.8303     689.0848   1423.49426     737.8303     689.0848
   1423.47900     736.3294     689.1225   1423.47900     736.3294     689.1225
   1423.46375     736.7321     689.2006   1423.46375     736.7321     689.2006
   1423.44849     735.7458     688.3901   1423.44849     735.7458     688.3901
   1423.43323     736.9180     687.6454   1423.43323     736.9180     687.6454
   1423.41797     734.6264     686.9768   1423.41797     734.6264     686.9768
   1423.40271     736.0885     686.7968   1423.40271     736.0885     686.7968
   1423.38745     736.8187     687.2845   1423.38745     736.8187     687.2845
   1423.37219     738.0789     687.0485   1423.37219     738.0789     687.0485
   1423.35693     734.8422     685.5735   1423.35693     734.8422     685.5735
   1423.34167     736.1514     683.4917   1423.34167     736.1514     683.4917
   1423.32642     734.9764     683.4694   1423.32642     734.9764     683.4694
   1423.31116     734.3676     684.3738   1423.31116     734.3676     684.3738
   1423.29590     734.3257     682.6631   1423.29590     734.3257     682.6631
   1423.28064     733.8308     683.4319   1423.28064     733.8308     683.4319
   1423.26538     733.6227     681.1366   1423.26538     733.6227     681.1366
   1423.25012     732.1746     680.6861   1423.25012     732.1746     680.6861
   1423.23486     732.8842     680.8562   1423.23486     732.8842     680.8562
   1423.21960     732.8380     678.6044   1423.21960     732.8380     678.6044
   1423.20435     732.1607     678.0549   1423.20435     732.1607     678.0549
   1423.18909     731.9157     676.8818   1423.18909     731.9157     676.8818
   1423.17383     732.7527     676.6700   1423.17383     732.7527     676.6700
   1423.15857     731.8693     675.8022   1423.15857     731.8693     675.8022
   1423.14331     730.7171     675.0696   1423.14331     730.7171     675.0696
   1423.12805     730.7365     673.4419   1423.12805     730.7365     673.4419
   1423.11279     729.6565     673.9150   1423.11279     729.6565     673.9150
   1423.09753     730.0838     673.0875   1423.09753     730.0838     673.0875
   1423.08228     730.1115     671.9321   1423.08228     730.1115     671.9321
   1423.06702     729.7079     671.0636   1423.06702     729.7079     671.0636
   1423.05176     729.7330     669.4863   1423.05176     729.7330     669.4863
   1423.03650     729.4639     667.9477   1423.03650     729.4639     667.9477
   1423.02124     728.6358     668.1657   1423.02124     728.6358     668.1657
   1423.00598     729.0891     667.0719   1423.00598     729.0891     667.0719
   1422.99072     727.3923     666.2505   1422.99072     727.3923     666.2505
   1422.97546     729.2980     666.0857   1422.97546     729.2980     666.0857
   1422.96021     728.6027     663.9068   1422.96021     728.6027     663.9068
   1422.94495     728.3387     662.5302   1422.94495     728.3387     662.5302
   1422.92969     727.2858     662.0718   1422.92969     727.2858     662.0718
   1422.91443     728.1829     660.1288   1422.91443     728.1829     660.1288
   1422.89917     726.7941     659.8204   1422.89917     726.7941     659.8204
   1422.88391     727.8469     658.4963   1422.88391     727.8469     658.4963
   1422.86865     726.5660     656.5605   1422.86865     726.5660     656.5605
   1422.85339     726.8175     656.4253   1422.85339     726.8175     656.4253
   1422.83813     726.5260     655.4055   1422.83813     726.5260     655.4055
   1422.82288     726.5416     653.3231   1422.82288     726.5416     653.3231
   1422.80762     725.7858     653.2271   1422.80762     725.7858     653.2271
   1422.79236     724.8359     652.0978   1422.79236     724.8359     652.0978
   1422.77710     725.5253     651.5594   1422.77710     725.5253     651.5594
   1422.76184     724.7468     648.8307   1422.76184     724.7468     648.8307
   1422.74658     723.9434     648.1718   1422.74658     723.9434     648.1718
   1422.73132     724.9410     646.9191   1422.73132     724.9410     646.9191
   1422.71606     724.3837     645.9195   1422.71606     724.3837     645.9195
   1422.70081     723.5891     645.1274   1422.70081     723.5891     645.1274
   1422.68555     723.7267     643.3963   1422.68555     723.7267     643.3963
   1422.67029     723.8492     642.6201   1422.67029     723.8492     642.6201
   1422.65503     723.8630     641.0449   1422.65503     723.8630     641.0449
   1422.63977     723.3834     639.8574   1422.63977     723.3834     639.8574
   1422.62451     722.9814     637.6979   1422.62451     722.9814     637.6979
   1422.60925     722.2983     636.1588   1422.60925     722.2983     636.1588
   1422.59399     722.4265     636.7701   1422.59399     722.4265     636.7701
   1422.57874     722.0137     635.1361   1422.57874     722.0137     635.1361
   1422.56348     722.3541     633.7516   1422.56348     722.3541     633.7516
   1422.54822     722.3716     631.2164   1422.54822     722.3716     631.2164
   1422.53296     721.4462     631.7011   1422.53296     721.4462     631.7011
   1422.51770     721.3676     630.3013   1422.51770     721.3676     630.3013
   1422.50244     721.2104     628.7209   1422.50244     721.2104     628.7209
   1422.48718     720.1602     626.3348   1422.48718     720.1602     626.3348
   1422.47192     720.6412     626.6392   1422.47192     720.6412     626.6392
   1422.45667     719.9066     626.0588   1422.45667     719.9066     626.0588
   1422.44141     719.9682     623.5208   1422.44141     719.9682     623.5208
   1422.42615     719.5627     621.8710   1422.42615     719.5627     621.8710
   1422.41089     719.4297     619.8979   1422.41089     719.4297     619.8979
   1422.39563     718.6206     619.0779   1422.39563     718.6206     619.0779
   1422.38037     718.6187     617.1277   1422.38037     718.6187     617.1277
   1422.36511     719.6272     616.0869   1422.36511     719.6272     616.0869
   1422.34985     718.1533     615.0519   1422.34985     718.1533     615.0519
   1422.33459     717.9558     614.2555   1422.33459     717.9558     614.2555
   1422.31934     718.0356     612.7905   1422.31934     718.0356     612.7905
   1422.30408     718.5302     611.0327   1422.30408     718.5302     611.0327
   1422.28882     716.8560     610.2008   1422.28882     716.8560     610.2008
   1422.27356     718.5596     608.0616   1422.27356     718.5596     608.0616
   1422.25830     716.7174     606.8081   1422.25830     716.7174     606.8081
   1422.24304     717.4361     606.2014   1422.24304     717.4361     606.2014
   1422.22778     716.9078     605.0110   1422.22778     716.9078     605.0110
   1422.21252     716.0671     602.9366   1422.21252     716.0671     602.9366
   1422.19727     716.9570     601.0421   1422.19727     716.9570     601.0421
   1422.18201     716.9059     600.1046   1422.18201     716.9059     600.1046
   1422.16675     717.5506     598.8143   1422.16675     717.5506     598.8143
   1422.15149     715.6125     597.3039   1422.15149     715.6125     597.3039
   1422.13623     714.6554     596.0933   1422.13623     714.6554     596.0933
   1422.12097     714.3694     594.5128   1422.12097     714.3694     594.5128
   1422.10571     715.2919     593.2240   1422.10571     715.2919     593.2240
   1422.09045     713.6266     591.3845   1422.09045     713.6266     591.3845
   1422.07520     714.6960     589.2813   1422.07520     714.6960     589.2813
   1422.05994     713.2106     588.3486   1422.05994     713.2106     588.3486
   1422.04468     714.2902     586.8052   1422.04468     714.2902     586.8052
   1422.02942     713.3253     586.7125   1422.02942     713.3253     586.7125
   1422.01416     713.2261     585.2084   1422.01416     713.2261     585.2084
   1421.99890     712.8062     583.0125   1421.99890     712.8062     583.0125
   1421.98364     713.0186     582.1971   1421.98364     713.0186     582.1971
   1421.96838     711.7346     580.6765   1421.96838     711.7346     580.6765
   1421.95312     713.9321     579.7410   1421.95312     713.9321     579.7410
   1421.93787     713.2902     578.0501   1421.93787     713.2902     578.0501
   1421.92261     711.8885     576.1425   1421.92261     711.8885     576.1425
   1421.90735     711.0906     574.3801   1421.90735     711.0906     574.3801
   1421.89209     711.2587     573.3367   1421.89209     711.2587     573.3367
   1421.87683     712.3132     572.8411   1421.87683     712.3132     572.8411
   1421.86157     711.5048     570.6303   1421.86157     711.5048     570.6303
   1421.84631     711.3434     568.8586   1421.84631     711.3434     568.8586
   1421.83105     710.3319     567.9520   1421.83105     710.3319     567.9520
   1421.81580     710.3250     566.2830   1421.81580     710.3250     566.2830
   1421.80054     709.4474     565.0523   1421.80054     709.4474     565.0523
   1421.78528     709.5384     563.4920   1421.78528     709.5384     563.4920
   1421.77002     708.7641     562.0064   1421.77002     708.7641     562.0064
   1421.75476     708.8032     561.2225   1421.75476     708.8032     561.2225
   1421.73950     710.0376     560.5436   1421.73950     710.0376     560.5436
   1421.72424     709.2918     558.8010   1421.72424     709.2918     558.8010
   1421.70898     708.3169     555.9955   1421.70898     708.3169     555.9955
   1421.69373     708.3895     555.6584   1421.69373     708.3895     555.6584
   1421.67847     708.4911     553.1344   1421.67847     708.4911     553.1344
   1421.66321     708.2618     552.1656   1421.66321     708.2618     552.1656
   1421.64795     709.7428     551.7417   1421.64795     709.7428     551.7417
   1421.63269     708.8185     549.6723   1421.63269     708.8185     549.6723
   1421.61743     707.6144     548.4395   1421.61743     707.6144     548.4395
   1421.60217     706.5405     547.6089   1421.60217     706.5405     547.6089
   1421.58691     707.2726     546.4063   1421.58691     707.2726     546.4063
   1421.57166     707.9030     544.6844   1421.57166     707.9030     544.6844
   1421.55640     706.3403     543.0043   1421.55640     706.3403     543.0043
   1421.54114     705.7360     541.7600   1421.54114     705.7360     541.7600
   1421.52588     706.2744     539.8182   1421.52588     706.2744     539.8182
   1421.51062     705.3605     539.2587   1421.51062     705.3605     539.2587
   1421.49536     705.5024     538.1512   1421.49536     705.5024     538.1512
   1421.48010     706.1109     536.0088   1421.48010     706.1109     536.0088
   1421.46484     705.9770     534.4946   1421.46484     705.9770     534.4946
   1421.44958     704.9769     533.1148   1421.44958     704.9769     533.1148
   1421.43433     704.9442     532.5121   1421.43433     704.9442     532.5121
   1421.41907     704.1700     531.1466   1421.41907     704.1700     531.1466
   1421.40381     703.4000     529.5353   1421.40381     703.4000     529.5353
   1421.38855     704.0760     529.3997   1421.38855     704.0760     529.3997
   1421.37329     704.1455     527.1198   1421.37329     704.1455     527.1198
   1421.35803     704.5600     525.4026   1421.35803     704.5600     525.4026
   1421.34277     702.1692     524.7755   1421.34277     702.1692     524.7755
   1421.32751     703.9539     522.7660   1421.32751     703.9539     522.7660
   1421.31226     703.1229     522.4055   1421.31226     703.1229     522.4055
   1421.29700     702.7344     521.5131   1421.29700     702.7344     521.5131
   1421.28174     702.3104     520.1459   1421.28174     702.3104     520.1459
   1421.26648     702.4378     518.2029   1421.26648     702.4378     518.2029
   1421.25122     701.0247     517.4146   1421.25122     701.0247     517.4146
   1421.23596     702.2337     515.1024   1421.23596     702.2337     515.1024
   1421.22070     700.1257     513.5704   1421.22070     700.1257     513.5704
   1421.20544     701.0272     513.8916   1421.20544     701.0272     513.8916
   1421.19019     700.9492     511.5150   1421.19019     700.9492     511.5150
   1421.17493     699.9053     510.4466   1421.17493     699.9053     510.4466
   1421.15967     698.9054     509.4677   1421.15967     698.9054     509.4677
   1421.14441     698.5800     508.1443   1421.14441     698.5800     508.1443
   1421.12915     699.6475     507.0009   1421.12915     699.6475     507.0009
   1421.11389     699.9560     506.4175   1421.11389     699.9560     506.4175
   1421.09863     699.2708     504.6328   1421.09863     699.2708     504.6328
   1421.08337     698.5222     503.4617   1421.08337     698.5222     503.4617
   1421.06812     698.7255     502.5609   1421.06812     698.7255     502.5609
   1421.05286     697.3710     499.9829   1421.05286     697.3710     499.9829
   1421.03760     697.2532     500.3289   1421.03760     697.2532     500.3289
   1421.02234     696.1469     498.3532   1421.02234     696.1469     498.3532
   1421.00708     698.8418     497.8698   1421.00708     698.8418     497.8698
   1420.99182     698.5314     496.5540   1420.99182     698.5314     496.5540
   1420.97656     697.1703     495.7866   1420.97656     697.1703     495.7866
   1420.96130     696.8115     494.5214   1420.96130     696.8115     494.5214
   1420.94604     697.0429     493.3447   1420.94604     697.0429     493.3447
   1420.93079     696.9028     491.5960   1420.93079     696.9028     491.5960
   1420.91553     697.2170     490.8319   1420.91553     697.2170     490.8319
   1420.90027     696.4028     489.7679   1420.90027     696.4028     489.7679
   1420.88501     696.5746     488.3085   1420.88501     696.5746     488.3085
   1420.86975     696.3414     487.5297   1420.86975     696.3414     487.5297
   1420.85449     696.2076     488.3748   1420.85449     696.2076     488.3748
   1420.83923     696.0818     485.5672   1420.83923     696.0818     485.5672
   1420.82397     696.4775     485.7943   1420.82397     696.4775     485.7943
   1420.80872     696.5253     484.2379   1420.80872     696.5253     484.2379
   1420.79346     695.7927     482.3951   1420.79346     695.7927     482.3951
   1420.77820     696.4239     482.1827   1420.77820     696.4239     482.1827
   1420.76294     695.8722     481.4223   1420.76294     695.8722     481.4223
   1420.74768     695.7083     480.5564   1420.74768     695.7083     480.5564
   1420.73242     695.8784     479.3319   1420.73242     695.8784     479.3319
   1420.71716     696.3262     479.3324   1420.71716     696.3262     479.3324
   1420.70190     696.2892     477.7243   1420.70190     696.2892     477.7243
   1420.68665     695.6111     476.3693   1420.68665     695.6111     476.3693
   1420.67139     695.1218     475.5730   1420.67139     695.1218     475.5730
   1420.65613     695.9786     475.5854   1420.65613     695.9786     475.5854
   1420.64087     696.8382     473.8188   1420.64087     696.8382     473.8188
   1420.62561     696.0668     472.1445   1420.62561     696.0668     472.1445
   1420.61035     695.9194     472.4810   1420.61035     695.9194     472.4810
   1420.59509     695.5410     471.6083   1420.59509     695.5410     471.6083
   1420.57983     695.8137     469.6327   1420.57983     695.8137     469.6327
   1420.56458     697.2701     470.6282   1420.56458     697.2701     470.6282
   1420.54932     698.3187     470.0266   1420.54932     698.3187     470.0266
   1420.53406     698.3373     470.4603   1420.53406     698.3373     470.4603
   1420.51880     699.3882     470.2239   1420.51880     699.3882     470.2239
   1420.50354     699.1464     469.5269   1420.50354     699.1464     469.5269
   1420.48828     699.1923     468.6158   1420.48828     699.1923     468.6158
   1420.47302     698.9765     467.5617   1420.47302     698.9765     467.5617
   1420.45776     698.5914     466.2577   1420.45776     698.5914     466.2577
   1420.44250     698.6085     464.3219   1420.44250     698.6085     464.3219
   1420.42725     698.3547     463.8182   1420.42725     698.3547     463.8182
   1420.41199     696.8813     461.6307   1420.41199     696.8813     461.6307
   1420.39673     696.8732     461.9095   1420.39673     696.8732     461.9095
   1420.38147     696.6396     460.8289   1420.38147     696.6396     460.8289
   1420.36621     696.0499     460.7147   1420.36621     696.0499     460.7147
   1420.35095     697.5781     460.8891   1420.35095     697.5781     460.8891
   1420.33569     698.8895     460.5621   1420.33569     698.8895     460.5621
   1420.32043     699.2149     460.8500   1420.32043     699.2149     460.8500
   1420.30518     702.1512     461.7738   1420.30518     702.1512     461.7738
   1420.28992     708.4527     465.1111   1420.28992     708.4527     465.1111
   1420.27466     727.1125     475.9874   1420.27466     727.1125     475.9874
   1420.25940     797.4257     519.2001   1420.25940     797.4257     519.2001
   1420.24414    1012.8915     652.0490   1420.24414    1012.8915     652.0490
   1420.22888    1099.5314     704.8555   1420.22888    1099.5314     704.8555
   1420.21362     959.3258     616.6013   1420.21362     959.3258     616.6013
   1420.19836     928.8738     596.7050   1420.19836     928.8738     596.7050
   1420.18311     977.1760     624.9157   1420.18311     977.1760     624.9157
   1420.16785    1122.6118     715.8809   1420.16785    1122.6118     715.8809
   1420.15259    1452.2297     919.8742   1420.15259    1452.2297     919.8742
   1420.13733    1811.6545    1139.2944   1420.13733    1811.6545    1139.2944
   1420.12207    2003.3556    1254.9795   1420.12207    2003.3556    1254.9795
   1420.10681    1906.4514    1194.3285   1420.10681    1906.4514    1194.3285
   1420.09155    1751.7808    1099.9825   1420.09155    1751.7808    1099.9825
   1420.07629    1404.8264     883.1483   1420.07629    1404.8264     883.1483
   1420.06104    1037.8098     655.9696   1420.06104    1037.8098     655.9696
   1420.04578     934.7664     593.2481   1420.04578     934.7664     593.2481
   1420.03052    1020.3160     646.4072   1420.03052    1020.3160     646.4072
   1420.01526    1299.2223     813.0977   1420.01526    1299.2223     813.0977
   1420.00000    1568.5685     976.9237   1420.00000    1568.5685     976.9237
   1419.98474    1837.9147    1140.7489   1419.98474    1837.9147    1140.7489
   1419.96948    1983.7457    1225.7064   1419.96948    1983.7457    1225.7064
   1419.95422    1966.6293    1213.2052   1419.95422    1966.6293    1213.2052
   1419.93896    1922.5098    1183.5850   1419.93896    1922.5098    1183.5850
   1419.92371    1914.9261    1177.1077   1419.92371    1914.9261    1177.1077
   1419.90845    1772.7504    1093.7646   1419.90845    1772.7504    1093.7646
   1419.89319    1690.0033    1042.4092   1419.89319    1690.0033    1042.4092
   1419.87793    1647.0597    1016.9246   1419.87793    1647.0597    1016.9246
   1419.86267    1617.1268     996.7675   1419.86267    1617.1268     996.7675
   1419.84741    1538.6359     946.8755   1419.84741    1538.6359     946.8755
   1419.83215    1354.7690     836.7391   1419.83215    1354.7690     836.7391
   1419.81689    1136.2458     704.2408   1419.81689    1136.2458     704.2408
   1419.80164    1004.2430     623.0684   1419.80164    1004.2430     623.0684
   1419.78638     924.0071     573.7724   1419.78638     924.0071     573.7724
   1419.77112     841.5626     523.8441   1419.77112     841.5626     523.8441
   1419.75586     800.7583     498.7574   1419.75586     800.7583     498.7574
   1419.74060     785.2106     489.1057   1419.74060     785.2106     489.1057
   1419.72534     775.2067     482.4865   1419.72534     775.2067     482.4865
   1419.71008     763.6057     474.7451   1419.71008     763.6057     474.7451
   1419.69482     749.4063     466.2398   1419.69482     749.4063     466.2398
   1419.67957     733.9567     457.5482   1419.67957     733.9567     457.5482
   1419.66431     721.3997     449.0370   1419.66431     721.3997     449.0370
   1419.64905     710.2822     442.5735   1419.64905     710.2822     442.5735
   1419.63379     703.7003     438.1407   1419.63379     703.7003     438.1407
   1419.61853     698.8850     434.2488   1419.61853     698.8850     434.2488
   1419.60327     694.6796     431.8994   1419.60327     694.6796     431.8994
   1419.58801     693.3612     430.5183   1419.58801     693.3612     430.5183
   1419.57275     693.1992     429.2657   1419.57275     693.1992     429.2657
   1419.55750     691.8612     428.8907   1419.55750     691.8612     428.8907
   1419.54224     691.1860     428.5342   1419.54224     691.1860     428.5342
   1419.52698     692.4825     427.4756   1419.52698     692.4825     427.4756
   1419.51172     690.8901     426.8099   1419.51172     690.8901     426.8099
   1419.49646     691.8603     426.7793   1419.49646     691.8603     426.7793
   1419.48120     690.8438     426.7168   1419.48120     690.8438     426.7168
   1419.46594     691.5265     426.4881   1419.46594     691.5265     426.4881
   1419.45068     692.9532     426.2795   1419.45068     692.9532     426.2795
   1419.43542     692.7132     426.2276   1419.43542     692.7132     426.2276
   1419.42017     692.3626     425.5371   1419.42017     692.3626     425.5371
   1419.40491     691.6989     426.0074   1419.40491     691.6989     426.0074
   1419.38965     692.3032     426.0131   1419.38965     692.3032     426.0131
   1419.37439     692.0943     425.7225   1419.37439     692.0943     425.7225
   1419.35913     693.0143     425.5841   1419.35913     693.0143     425.5841
   1419.34387     691.9481     424.7669   1419.34387     691.9481     424.7669
   1419.32861     694.7184     424.4321   1419.32861     694.7184     424.4321
   1419.31335     693.6354     425.2679   1419.31335     693.6354     425.2679
   1419.29810     694.9847     425.1744   1419.29810     694.9847     425.1744
   1419.28284     694.7669     424.8645   1419.28284     694.7669     424.8645
   1419.26758     696.0925     424.7029   1419.26758     696.0925     424.7029
   1419.25232     696.6625     424.3566   1419.25232     696.6625     424.3566
   1419.23706     695.8036     424.7495   1419.23706     695.8036     424.7495
   1419.22180     697.9207     425.1714   1419.22180     697.9207     425.1714
   1419.20654     696.2055     424.6254   1419.20654     696.2055     424.6254
   1419.19128     698.4260     425.1833   1419.19128     698.4260     425.1833
   1419.17603     698.4048     424.4315   1419.17603     698.4048     424.4315
   1419.16077     698.5890     424.7228   1419.16077     698.5890     424.7228
   1419.14551     699.5690     424.6203   1419.14551     699.5690     424.6203
   1419.13025     698.7522     423.9043   1419.13025     698.7522     423.9043
   1419.11499     699.6473     424.8635   1419.11499     699.6473     424.8635
   1419.09973     700.5566     424.6809   1419.09973     700.5566     424.6809
   1419.08447     701.4061     425.3963   1419.08447     701.4061     425.3963
   1419.06921     702.3066     425.1728   1419.06921     702.3066     425.1728
   1419.05396     701.7880     425.5277   1419.05396     701.7880     425.5277
   1419.03870     702.4108     424.6648   1419.03870     702.4108     424.6648
   1419.02344     703.2556     424.4888   1419.02344     703.2556     424.4888
   1419.00818     703.4077     425.7175   1419.00818     703.4077     425.7175
   1418.99292     704.4092     426.0704   1418.99292     704.4092     426.0704
   1418.97766     705.8395     426.1179   1418.97766     705.8395     426.1179
   1418.96240     705.2008     426.4485   1418.96240     705.2008     426.4485
   1418.94714     706.1789     426.2873   1418.94714     706.1789     426.2873
   1418.93188     706.6207     427.3941   1418.93188     706.6207     427.3941
   1418.91663     706.8428     426.5765   1418.91663     706.8428     426.5765
   1418.90137     708.2227     427.7748   1418.90137     708.2227     427.7748
   1418.88611     707.4083     426.9487   1418.88611     707.4083     426.9487
   1418.87085     710.0603     427.7658   1418.87085     710.0603     427.7658
   1418.85559     709.9456     427.3034   1418.85559     709.9456     427.3034
   1418.84033     711.4099     428.4912   1418.84033     711.4099     428.4912
   1418.82507     711.4318     428.6581   1418.82507     711.4318     428.6581
   1418.80981     711.6019     428.3332   1418.80981     711.6019     428.3332
   1418.79456     713.0060     428.9156   1418.79456     713.0060     428.9156
   1418.77930     714.5092     428.9367   1418.77930     714.5092     428.9367
   1418.76404     715.1964     429.8676   1418.76404     715.1964     429.8676
   1418.74878     714.5812     430.3086   1418.74878     714.5812     430.3086
   1418.73352     716.4703     430.7788   1418.73352     716.4703     430.7788
   1418.71826     716.0362     430.6436   1418.71826     716.0362     430.6436
   1418.70300     718.3929     431.1700   1418.70300     718.3929     431.1700
   1418.68774     717.8029     431.2429   1418.68774     717.8029     431.2429
   1418.67249     718.8768     431.8607   1418.67249     718.8768     431.8607
   1418.65723     720.1680     432.2821   1418.65723     720.1680     432.2821
   1418.64197     720.7880     432.1638   1418.64197     720.7880     432.1638
   1418.62671     721.3979     432.6561   1418.62671     721.3979     432.6561
   1418.61145     722.4792     433.5143   1418.61145     722.4792     433.5143
   1418.59619     724.5720     433.2708   1418.59619     724.5720     433.2708
   1418.58093     723.8040     433.4988   1418.58093     723.8040     433.4988
   1418.56567     725.3196     433.9503   1418.56567     725.3196     433.9503
   1418.55042     725.8525     435.1701   1418.55042     725.8525     435.1701
   1418.53516     726.7881     434.9053   1418.53516     726.7881     434.9053
   1418.51990     727.2129     435.1954   1418.51990     727.2129     435.1954
   1418.50464     728.2536     435.6866   1418.50464     728.2536     435.6866
   1418.48938     728.1444     436.1181   1418.48938     728.1444     436.1181
   1418.47412     730.9280     436.6317   1418.47412     730.9280     436.6317
   1418.45886     731.0089     436.9548   1418.45886     731.0089     436.9548
   1418.44360     732.5665     438.2192   1418.44360     732.5665     438.2192
   1418.42834     733.6563     438.8369   1418.42834     733.6563     438.8369
   1418.41309     734.7051     438.5906   1418.41309     734.7051     438.5906
   1418.39783     734.9404     438.9168   1418.39783     734.9404     438.9168
   1418.38257     735.2930     439.4872   1418.38257     735.2930     439.4872
   1418.36731     736.2401     440.3590   1418.36731     736.2401     440.3590
   1418.35205     738.7867     440.5215   1418.35205     738.7867     440.5215
   1418.33679     738.5162     441.1888   1418.33679     738.5162     441.1888
   1418.32153     740.7097     442.0640   1418.32153     740.7097     442.0640
   1418.30627     742.0112     442.9492   1418.30627     742.0112     442.9492
   1418.29102     741.6303     443.2876   1418.29102     741.6303     443.2876
   1418.27576     742.2120     443.4138   1418.27576     742.2120     443.4138
   1418.26050     744.4476     443.6055   1418.26050     744.4476     443.6055
   1418.24524     745.5614     444.5524   1418.24524     745.5614     444.5524
   1418.22998     747.1437     444.1762   1418.22998     747.1437     444.1762
   1418.21472     746.5089     446.2628   1418.21472     746.5089     446.2628
   1418.19946     748.2352     446.7313   1418.19946     748.2352     446.7313
   1418.18420     749.2105     446.7460   1418.18420     749.2105     446.7460
   1418.16895     750.6366     447.3231   1418.16895     750.6366     447.3231
   1418.15369     751.0272     447.7295   1418.15369     751.0272     447.7295
   1418.13843     752.2654     448.6679   1418.13843     752.2654     448.6679
   1418.12317     752.8714     449.1781   1418.12317     752.8714     449.1781
   1418.10791     755.5547     449.3536   1418.10791     755.5547     449.3536
   1418.09265     755.8644     449.9981   1418.09265     755.8644     449.9981
   1418.07739     757.0641     450.6687   1418.07739     757.0641     450.6687
   1418.06213     757.9431     451.8423   1418.06213     757.9431     451.8423
   1418.04688     758.8173     451.7860   1418.04688     758.8173     451.7860
   1418.03162     761.1377     453.5202   1418.03162     761.1377     453.5202
   1418.01636     761.8433     453.4911   1418.01636     761.8433     453.4911
   1418.00110     762.3333     454.4052   1418.00110     762.3333     454.4052
   1417.98584     764.0319     454.9038   1417.98584     764.0319     454.9038
   1417.97058     764.4289     455.3810   1417.97058     764.4289     455.3810
   1417.95532     766.3703     455.5314   1417.95532     766.3703     455.5314
   1417.94006     768.1692     456.5251   1417.94006     768.1692     456.5251
   1417.92480     769.0821     458.0640   1417.92480     769.0821     458.0640
   1417.90955     768.7974     457.7845   1417.90955     768.7974     457.7845
   1417.89429     771.9882     458.4904   1417.89429     771.9882     458.4904
   1417.87903     772.0410     459.9300   1417.87903     772.0410     459.9300
   1417.86377     773.5079     459.8787   1417.86377     773.5079     459.8787
   1417.84851     774.8731     459.9839   1417.84851     774.8731     459.9839
   1417.83325     775.6728     461.5332   1417.83325     775.6728     461.5332
   1417.81799     776.5499     461.3487   1417.81799     776.5499     461.3487
   1417.80273     777.7302     462.2119   1417.80273     777.7302     462.2119
   1417.78748     778.8348     462.8924   1417.78748     778.8348     462.8924
   1417.77222     781.2399     463.8342   1417.77222     781.2399     463.8342
   1417.75696     781.7413     463.7661   1417.75696     781.7413     463.7661
   1417.74170     783.1605     465.7124   1417.74170     783.1605     465.7124
   1417.72644     784.6664     466.1583   1417.72644     784.6664     466.1583
   1417.71118     785.2794     467.1878   1417.71118     785.2794     467.1878
   1417.69592     786.3163     466.3625   1417.69592     786.3163     466.3625
   1417.68066     788.0824     467.4331   1417.68066     788.0824     467.4331
   1417.66541     789.5138     468.8822   1417.66541     789.5138     468.8822
   1417.65015     790.6697     469.8671   1417.65015     790.6697     469.8671
   1417.63489     791.3430     469.5781   1417.63489     791.3430     469.5781
   1417.61963     792.5182     469.9095   1417.61963     792.5182     469.9095
   1417.60437     794.6479     470.7664   1417.60437     794.6479     470.7664
   1417.58911     794.9649     470.8112   1417.58911     794.9649     470.8112
   1417.57385     794.8555     471.9645   1417.57385     794.8555     471.9645
   1417.55859     798.5963     473.1099   1417.55859     798.5963     473.1099
   1417.54333     799.3195     473.4936   1417.54333     799.3195     473.4936
   1417.52808     799.4564     474.2320   1417.52808     799.4564     474.2320
   1417.51282     800.5389     474.6334   1417.51282     800.5389     474.6334
   1417.49756     803.6226     475.4930   1417.49756     803.6226     475.4930
   1417.48230     803.8235     476.0772   1417.48230     803.8235     476.0772
   1417.46704     804.9778     476.1474   1417.46704     804.9778     476.1474
   1417.45178     806.8775     476.9118   1417.45178     806.8775     476.9118
   1417.43652     807.9157     478.2022   1417.43652     807.9157     478.2022
   1417.42126     808.2040     477.6786   1417.42126     808.2040     477.6786
   1417.40601     810.8727     479.6219   1417.40601     810.8727     479.6219
   1417.39075     811.4525     479.5261   1417.39075     811.4525     479.5261
   1417.37549     811.1562     480.1552   1417.37549     811.1562     480.1552
   1417.36023     814.1005     480.7325   1417.36023     814.1005     480.7325
   1417.34497     814.8389     482.1624   1417.34497     814.8389     482.1624
   1417.32971     815.4350     482.8714   1417.32971     815.4350     482.8714
   1417.31445     817.4827     482.6564   1417.31445     817.4827     482.6564
   1417.29919     816.8596     483.1914   1417.29919     816.8596     483.1914
   1417.28394     819.9014     483.7210   1417.28394     819.9014     483.7210
   1417.26868     821.5310     483.8863   1417.26868     821.5310     483.8863
   1417.25342     821.5327     485.4422   1417.25342     821.5327     485.4422
   1417.23816     822.1849     486.1441   1417.23816     822.1849     486.1441
   1417.22290     823.0970     486.8910   1417.22290     823.0970     486.8910
   1417.20764     825.6337     486.9847   1417.20764     825.6337     486.9847
   1417.19238     824.8856     487.6778   1417.19238     824.8856     487.6778
   1417.17712     825.6406     487.9555   1417.17712     825.6406     487.9555
   1417.16187     826.5365     487.9205   1417.16187     826.5365     487.9205
   1417.14661     827.8661     488.9182   1417.14661     827.8661     488.9182
   1417.13135     828.6854     489.5609   1417.13135     828.6854     489.5609
   1417.11609     829.6614     489.7240   1417.11609     829.6614     489.7240
   1417.10083     831.0746     490.3716   1417.10083     831.0746     490.3716
   1417.08557     831.8419     490.1509   1417.08557     831.8419     490.1509
   1417.07031     832.8740     491.6742   1417.07031     832.8740     491.6742
   1417.05505     834.8852     492.1221   1417.05505     834.8852     492.1221
   1417.03979     836.2462     491.9251   1417.03979     836.2462     491.9251
   1417.02454     835.8175     493.2374   1417.02454     835.8175     493.2374
   1417.00928     836.6285     493.3117   1417.00928     836.6285     493.3117
   1416.99402     837.9529     493.2821   1416.99402     837.9529     493.2821
   1416.97876     838.2509     493.6764   1416.97876     838.2509     493.6764
   1416.96350     839.4915     493.7759   1416.96350     839.4915     493.7759
   1416.94824     839.0829     494.7202   1416.94824     839.0829     494.7202
   1416.93298     841.7950     494.6514   1416.93298     841.7950     494.6514
   1416.91772     840.6737     495.2224   1416.91772     840.6737     495.2224
   1416.90247     842.0867     495.5459   1416.90247     842.0867     495.5459
   1416.88721     842.2698     495.9096   1416.88721     842.2698     495.9096
   1416.87195     844.5781     496.1771   1416.87195     844.5781     496.1771
   1416.85669     844.1324     497.1505   1416.85669     844.1324     497.1505
   1416.84143     843.0450     496.6289   1416.84143     843.0450     496.6289
   1416.82617     845.0102     497.1284   1416.82617     845.0102     497.1284
   1416.81091     844.7268     496.9352   1416.81091     844.7268     496.9352
   1416.79565     847.6417     497.5195   1416.79565     847.6417     497.5195
   1416.78040     847.5021     498.2599   1416.78040     847.5021     498.2599
   1416.76514     846.6273     498.7982   1416.76514     846.6273     498.7982
   1416.74988     847.8431     498.0747   1416.74988     847.8431     498.0747
   1416.73462     849.1596     498.9639   1416.73462     849.1596     498.9639
   1416.71936     848.5919     500.3156   1416.71936     848.5919     500.3156
   1416.70410     848.0490     499.2102   1416.70410     848.0490     499.2102
   1416.68884     848.8455     499.6193   1416.68884     848.8455     499.6193
   1416.67358     850.5508     499.2628   1416.67358     850.5508     499.2628
   1416.65833     849.2930     499.7182   1416.65833     849.2930     499.7182
   1416.64307     850.7271     499.6017   1416.64307     850.7271     499.6017
   1416.62781     850.3678     500.4891   1416.62781     850.3678     500.4891
   1416.61255     849.8488     499.6181   1416.61255     849.8488     499.6181
   1416.59729     851.0549     500.4220   1416.59729     851.0549     500.4220
   1416.58203     851.8319     500.7964   1416.58203     851.8319     500.7964
   1416.56677     853.7415     500.6588   1416.56677     853.7415     500.6588
   1416.55151     851.5165     500.3479   1416.55151     851.5165     500.3479
   1416.53625     851.0935     500.2905   1416.53625     851.0935     500.2905
   1416.52100     850.3833     500.0301   1416.52100     850.3833     500.0301
   1416.50574     852.4426     500.7744   1416.50574     852.4426     500.7744
   1416.49048     852.1264     499.4775   1416.49048     852.1264     499.4775
   1416.47522     851.7806     500.7426   1416.47522     851.7806     500.7426
   1416.45996     851.5457     500.8856   1416.45996     851.5457     500.8856
   1416.44470     853.3953     500.1057   1416.44470     853.3953     500.1057
   1416.42944     851.6129     499.7621   1416.42944     851.6129     499.7621
   1416.41418     851.4025     500.5140   1416.41418     851.4025     500.5140
   1416.39893     851.2702     500.0967   1416.39893     851.2702     500.0967
   1416.38367     852.1618     499.8622   1416.38367     852.1618     499.8622
   1416.36841     852.7443     500.2279   1416.36841     852.7443     500.2279
   1416.35315     853.2961     499.5398   1416.35315     853.2961     499.5398
   1416.33789     850.4246     498.8554   1416.33789     850.4246     498.8554
   1416.32263     852.6691     499.8210   1416.32263     852.6691     499.8210
   1416.30737     849.8348     499.1912   1416.30737     849.8348     499.1912
   1416.29211     849.6042     499.2554   1416.29211     849.6042     499.2554
   1416.27686     849.5139     498.3681   1416.27686     849.5139     498.3681
   1416.26160     849.4841     498.8273   1416.26160     849.4841     498.8273
   1416.24634     849.1494     498.7949   1416.24634     849.1494     498.7949
   1416.23108     848.6891     499.7970   1416.23108     848.6891     499.7970
   1416.21582     848.5458     499.0888   1416.21582     848.5458     499.0888
   1416.20056     846.3007     497.8897   1416.20056     846.3007     497.8897
   1416.18530     846.8829     498.0641   1416.18530     846.8829     498.0641
   1416.17004     847.0724     498.1877   1416.17004     847.0724     498.1877
   1416.15479     845.8704     497.4549   1416.15479     845.8704     497.4549
   1416.13953     846.1144     497.0301   1416.13953     846.1144     497.0301
   1416.12427     845.7880     497.2220   1416.12427     845.7880     497.2220
   1416.10901     845.6376     496.3073   1416.10901     845.6376     496.3073
   1416.09375     844.4310     496.6179   1416.09375     844.4310     496.6179
   1416.07849     844.0939     496.7049   1416.07849     844.0939     496.7049
   1416.06323     842.7521     497.0002   1416.06323     842.7521     497.0002
   1416.04797     842.9362     495.7855   1416.04797     842.9362     495.7855
   1416.03271     840.6946     495.9384   1416.03271     840.6946     495.9384
   1416.01746     843.3160     495.8692   1416.01746     843.3160     495.8692
   1416.00220     841.3408     495.3191   1416.00220     841.3408     495.3191
   1415.98694     839.6077     495.6788   1415.98694     839.6077     495.6788
   1415.97168     840.2146     495.3171   1415.97168     840.2146     495.3171
   1415.95642     839.0165     494.1775   1415.95642     839.0165     494.1775
   1415.94116     838.5703     494.7825   1415.94116     838.5703     494.7825
   1415.92590     837.8780     493.9949   1415.92590     837.8780     493.9949
   1415.91064     836.4026     493.4919   1415.91064     836.4026     493.4919
   1415.89539     835.2466     494.0937   1415.89539     835.2466     494.0937
   1415.88013     835.3471     493.5745   1415.88013     835.3471     493.5745
   1415.86487     835.9709     492.9710   1415.86487     835.9709     492.9710
   1415.84961     833.2076     492.5837   1415.84961     833.2076     492.5837
   1415.83435     834.2452     492.2077   1415.83435     834.2452     492.2077
   1415.81909     833.0143     492.5500   1415.81909     833.0143     492.5500
   1415.80383     832.1624     491.9731   1415.80383     832.1624     491.9731
   1415.78857     829.8068     491.4902   1415.78857     829.8068     491.4902
   1415.77332     830.0162     491.1781   1415.77332     830.0162     491.1781
   1415.75806     828.1006     490.6574   1415.75806     828.1006     490.6574
   1415.74280     828.2094     491.3715   1415.74280     828.2094     491.3715
   1415.72754     827.0257     490.7342   1415.72754     827.0257     490.7342
   1415.71228     826.8513     490.3813   1415.71228     826.8513     490.3813
   1415.69702     823.9586     490.4865   1415.69702     823.9586     490.4865
   1415.68176     825.2229     490.1590   1415.68176     825.2229     490.1590
   1415.66650     824.5341     489.4337   1415.66650     824.5341     489.4337
   1415.65125     822.4769     488.6162   1415.65125     822.4769     488.6162
   1415.63599     821.7741     488.4362   1415.63599     821.7741     488.4362
   1415.62073     820.0224     488.1306   1415.62073     820.0224     488.1306
   1415.60547     819.5906     489.0883   1415.60547     819.5906     489.0883
   1415.59021     817.6755     487.6038   1415.59021     817.6755     487.6038
   1415.57495     817.3881     487.8008   1415.57495     817.3881     487.8008
   1415.55969     817.0591     487.0111   1415.55969     817.0591     487.0111
   1415.54443     815.7849     486.9726   1415.54443     815.7849     486.9726
   1415.52917     813.6480     485.8792   1415.52917     813.6480     485.8792
   1415.51392     813.6953     486.2112   1415.51392     813.6953     486.2112
   1415.49866     811.4050     486.1667   1415.49866     811.4050     486.1667
   1415.48340     810.2554     485.3955   1415.48340     810.2554     485.3955
   1415.46814     808.5889     485.3349   1415.46814     808.5889     485.3349
   1415.45288     808.7554     486.5926   1415.45288     808.7554     486.5926
   1415.43762     806.5311     484.7188   1415.43762     806.5311     484.7188
   1415.42236     805.6032     485.0608   1415.42236     805.6032     485.0608
   1415.40710     804.9440     483.6515   1415.40710     804.9440     483.6515
   1415.39185     803.9808     484.6486   1415.39185     803.9808     484.6486
   1415.37659     802.8907     483.6023   1415.37659     802.8907     483.6023
   1415.36133     801.2275     483.0798   1415.36133     801.2275     483.0798
   1415.34607     799.2758     482.2680   1415.34607     799.2758     482.2680
   1415.33081     797.8594     481.7697   1415.33081     797.8594     481.7697
   1415.31555     796.7055     481.0557   1415.31555     796.7055     481.0557
   1415.30029     796.1003     480.8945   1415.30029     796.1003     480.8945
   1415.28503     794.5289     481.2589   1415.28503     794.5289     481.2589
   1415.26978     793.0488     480.5719   1415.26978     793.0488     480.5719
   1415.25452     790.9862     480.3256   1415.25452     790.9862     480.3256
   1415.23926     789.3442     480.0060   1415.23926     789.3442     480.0060
   1415.22400     790.0273     478.9733   1415.22400     790.0273     478.9733
   1415.20874     786.3489     478.8308   1415.20874     786.3489     478.8308
   1415.19348     785.2883     478.7106   1415.19348     785.2883     478.7106
   1415.17822     786.5961     479.7287   1415.17822     786.5961     479.7287
   1415.16296     781.3381     477.6230   1415.16296     781.3381     477.6230
   1415.14771     781.4131     476.7047   1415.14771     781.4131     476.7047
   1415.13245     779.1450     476.3423   1415.13245     779.1450     476.3423
   1415.11719     777.3190     476.1544   1415.11719     777.3190     476.1544
   1415.10193     775.5106     475.5583   1415.10193     775.5106     475.5583
   1415.08667     774.1698     474.0958   1415.08667     774.1698     474.0958
   1415.07141     772.8623     475.3596   1415.07141     772.8623     475.3596
   1415.05615     770.4656     473.9852   1415.05615     770.4656     473.9852
   1415.04089     769.3734     473.8286   1415.04089     769.3734     473.8286
   1415.02563     768.6997     472.7377   1415.02563     768.6997     472.7377
   1415.01038     765.5361     472.8468   1415.01038     765.5361     472.8468
   1414.99512     763.6863     471.3481   1414.99512     763.6863     471.3481
   1414.97986     762.4650     471.2308   1414.97986     762.4650     471.2308
   1414.96460     759.8910     470.5912   1414.96460     759.8910     470.5912
   1414.94934     757.8074     471.1251   1414.94934     757.8074     471.1251
   1414.93408     755.7542     468.8631   1414.93408     755.7542     468.8631
   1414.91882     753.3441     469.0837   1414.91882     753.3441     469.0837
   1414.90356     753.4802     468.9377   1414.90356     753.4802     468.9377
   1414.88831     750.6918     468.2111   1414.88831     750.6918     468.2111
   1414.87305     748.4090     467.6592   1414.87305     748.4090     467.6592
   1414.85779     747.2894     466.6078   1414.85779     747.2894     466.6078
   1414.84253     744.2953     465.8694   1414.84253     744.2953     465.8694
   1414.82727     743.1357     466.1341   1414.82727     743.1357     466.1341
   1414.81201     740.6432     464.3675   1414.81201     740.6432     464.3675
   1414.79675     738.3632     464.9177   1414.79675     738.3632     464.9177
   1414.78149     735.9778     463.5262   1414.78149     735.9778     463.5262
   1414.76624     734.8081     462.3373   1414.76624     734.8081     462.3373
   1414.75098     732.7274     461.8135   1414.75098     732.7274     461.8135
   1414.73572     730.6715     460.8685   1414.73572     730.6715     460.8685
   1414.72046     727.6516     460.3387   1414.72046     727.6516     460.3387
   1414.70520     725.4265     459.9106   1414.70520     725.4265     459.9106
   1414.68994     724.7099     458.9331   1414.68994     724.7099     458.9331
   1414.67468     722.0376     458.6621   1414.67468     722.0376     458.6621
   1414.65942     719.5159     457.3423   1414.65942     719.5159     457.3423
   1414.64417     717.3171     456.6417   1414.64417     717.3171     456.6417
   1414.62891     714.3517     455.8101   1414.62891     714.3517     455.8101
   1414.61365     711.3992     455.2794   1414.61365     711.3992     455.2794
   1414.59839     709.0133     454.1186   1414.59839     709.0133     454.1186
   1414.58313     707.0096     454.0049   1414.58313     707.0096     454.0049
   1414.56787     705.1086     452.2946   1414.56787     705.1086     452.2946
   1414.55261     702.3749     451.3148   1414.55261     702.3749     451.3148
   1414.53735     699.5061     450.6967   1414.53735     699.5061     450.6967
   1414.52209     697.2621     450.1018   1414.52209     697.2621     450.1018
   1414.50684     694.9770     448.9232   1414.50684     694.9770     448.9232
   1414.49158     692.4172     448.3983   1414.49158     692.4172     448.3983
   1414.47632     689.7182     446.6383   1414.47632     689.7182     446.6383
   1414.46106     687.0774     445.3581   1414.46106     687.0774     445.3581
   1414.44580     685.2364     445.9889   1414.44580     685.2364     445.9889
   1414.43054     682.8658     443.8748   1414.43054     682.8658     443.8748
   1414.41528     679.6792     443.3963   1414.41528     679.6792     443.3963
   1414.40002     677.8774     442.3730   1414.40002     677.8774     442.3730
   1414.38477     674.7272     441.4111   1414.38477     674.7272     441.4111
   1414.36951     671.5208     439.0460   1414.36951     671.5208     439.0460
   1414.35425     668.8641     439.3081   1414.35425     668.8641     439.3081
   1414.33899     666.9398     438.8472   1414.33899     666.9398     438.8472
   1414.32373     663.7518     437.2906   1414.32373     663.7518     437.2906
   1414.30847     660.8118     435.6909   1414.30847     660.8118     435.6909
   1414.29321     658.3672     434.9791   1414.29321     658.3672     434.9791
   1414.27795     653.9103     434.6154   1414.27795     653.9103     434.6154
   1414.26270     651.7289     432.3740   1414.26270     651.7289     432.3740
   1414.24744     649.4550     430.9480   1414.24744     649.4550     430.9480
   1414.23218     646.7468     430.5056   1414.23218     646.7468     430.5056
   1414.21692     643.4461     429.0914   1414.21692     643.4461     429.0914
   1414.20166     640.6102     427.6439   1414.20166     640.6102     427.6439
   1414.18640     638.2971     427.3483   1414.18640     638.2971     427.3483
   1414.17114     634.4570     424.7540   1414.17114     634.4570     424.7540
   1414.15588     631.5432     424.9715   1414.15588     631.5432     424.9715
   1414.14062     628.7631     423.7543   1414.14062     628.7631     423.7543
   1414.12537     625.6396     422.0227   1414.12537     625.6396     422.0227
   1414.11011     623.9312     421.3040   1414.11011     623.9312     421.3040
   1414.09485     619.5332     419.8438   1414.09485     619.5332     419.8438
   1414.07959     616.8742     418.5233   1414.07959     616.8742     418.5233
   1414.06433     612.9315     417.1306   1414.06433     612.9315     417.1306
   1414.04907     610.1959     415.8341   1414.04907     610.1959     415.8341
   1414.03381     607.4373     414.2332   1414.03381     607.4373     414.2332
   1414.01855     605.5001     414.2603   1414.01855     605.5001     414.2603
   1414.00330     620.3184     417.8684   1414.00330     620.3184     417.8684
   1413.98804     600.1875     410.8924   1413.98804     600.1875     410.8924
   1413.97278     595.9500     409.3138   1413.97278     595.9500     409.3138
   1413.95752     592.4604     407.9961   1413.95752     592.4604     407.9961
   1413.94226     589.6622     406.4420   1413.94226     589.6622     406.4420
   1413.92700     586.6871     405.0288   1413.92700     586.6871     405.0288
   1413.91174     583.7416     403.9934   1413.91174     583.7416     403.9934
   1413.89648     580.0065     402.2621   1413.89648     580.0065     402.2621
   1413.88123     576.8118     400.8272   1413.88123     576.8118     400.8272
   1413.86597     573.6991     399.3341   1413.86597     573.6991     399.3341
   1413.85071     571.1312     398.4265   1413.85071     571.1312     398.4265
   1413.83545     567.8477     396.2357   1413.83545     567.8477     396.2357
   1413.82019     564.5643     394.8268   1413.82019     564.5643     394.8268
   1413.80493     561.5660     394.1696   1413.80493     561.5660     394.1696
   1413.78967     558.1902     392.1157   1413.78967     558.1902     392.1157
   1413.77441     555.5446     390.7665   1413.77441     555.5446     390.7665
   1413.75916     550.8583     389.7228   1413.75916     550.8583     389.7228
   1413.74390     549.1482     387.6573   1413.74390     549.1482     387.6573
   1413.72864     545.2936     386.4191   1413.72864     545.2936     386.4191
   1413.71338     542.8323     384.8387   1413.71338     542.8323     384.8387
   1413.69812     538.7182     383.5395   1413.69812     538.7182     383.5395
   1413.68286     536.3195     381.9229   1413.68286     536.3195     381.9229
   1413.66760     532.6630     380.2883   1413.66760     532.6630     380.2883
   1413.65234     530.1541     378.7728   1413.65234     530.1541     378.7728
   1413.63708     526.4394     376.7963   1413.63708     526.4394     376.7963
   1413.62183     523.8901     375.5726   1413.62183     523.8901     375.5726
   1413.60657     520.2597     374.4935   1413.60657     520.2597     374.4935
   1413.59131     517.7210     373.1503   1413.59131     517.7210     373.1503
   1413.57605     514.1417     370.7652   1413.57605     514.1417     370.7652
   1413.56079     510.9440     369.3987   1413.56079     510.9440     369.3987
   1413.54553     508.6412     368.3301   1413.54553     508.6412     368.3301
   1413.53027     505.0256     366.8018   1413.53027     505.0256     366.8018
   1413.51501     502.1719     365.3010   1413.51501     502.1719     365.3010
   1413.49976     498.9878     363.2700   1413.49976     498.9878     363.2700
   1413.48450     495.9693     362.5942   1413.48450     495.9693     362.5942
   1413.46924     492.8372     360.6730   1413.46924     492.8372     360.6730
   1413.45398     489.3262     359.2808   1413.45398     489.3262     359.2808
   1413.43872     486.7107     357.5627   1413.43872     486.7107     357.5627
   1413.42346     483.5513     356.1235   1413.42346     483.5513     356.1235
   1413.40820     481.0335     354.2441   1413.40820     481.0335     354.2441
   1413.39294     478.1465     353.2053   1413.39294     478.1465     353.2053
   1413.37769     474.9326     351.2027   1413.37769     474.9326     351.2027
   1413.36243     471.8222     349.6126   1413.36243     471.8222     349.6126
   1413.34717     470.0548     348.2872   1413.34717     470.0548     348.2872
   1413.33191     466.6814     347.0041   1413.33191     466.6814     347.0041
   1413.31665     464.2202     345.4139   1413.31665     464.2202     345.4139
   1413.30139     460.7238     343.3990   1413.30139     460.7238     343.3990
   1413.28613     457.2258     342.2809   1413.28613     457.2258     342.2809
   1413.27087     455.3368     340.9267   1413.27087     455.3368     340.9267
   1413.25562     452.1161     339.3394   1413.25562     452.1161     339.3394
   1413.24036     450.3589     338.0406   1413.24036     450.3589     338.0406
   1413.22510     447.7972     336.6947   1413.22510     447.7972     336.6947
   1413.20984     444.5153     335.3103   1413.20984     444.5153     335.3103
   1413.19458     442.2190     333.8878   1413.19458     442.2190     333.8878
   1413.17932     439.2966     332.1250   1413.17932     439.2966     332.1250
   1413.16406     436.5510     330.7423   1413.16406     436.5510     330.7423
   1413.14880     435.0205     329.5670   1413.14880     435.0205     329.5670
   1413.13354     432.2497     327.7244   1413.13354     432.2497     327.7244
   1413.11829     429.6268     326.2184   1413.11829     429.6268     326.2184
   1413.10303     427.3104     325.0138   1413.10303     427.3104     325.0138
   1413.08777     424.8146     324.2438   1413.08777     424.8146     324.2438
   1413.07251     423.0539     323.0577   1413.07251     423.0539     323.0577
   1413.05725     420.1450     321.4633   1413.05725     420.1450     321.4633
   1413.04199     418.0472     319.5578   1413.04199     418.0472     319.5578
   1413.02673     415.9900     318.7139   1413.02673     415.9900     318.7139
   1413.01147     412.7558     317.4035   1413.01147     412.7558     317.4035
   1412.99622     411.3027     315.8243   1412.99622     411.3027     315.8243
   1412.98096     409.3322     315.1452   1412.98096     409.3322     315.1452
   1412.96570     407.4991     313.7479   1412.96570     407.4991     313.7479
   1412.95044     405.5787     312.3572   1412.95044     405.5787     312.3572
   1412.93518     403.0224     311.2397   1412.93518     403.0224     311.2397
   1412.91992     401.4066     310.3413   1412.91992     401.4066     310.3413
   1412.90466     399.6559     309.1932   1412.90466     399.6559     309.1932
   1412.88940     397.1485     308.0530   1412.88940     397.1485     308.0530
   1412.87415     395.7633     306.8198   1412.87415     395.7633     306.8198
   1412.85889     393.5617     305.7363   1412.85889     393.5617     305.7363
   1412.84363     392.2775     304.8457   1412.84363     392.2775     304.8457
   1412.82837     390.5001     303.5087   1412.82837     390.5001     303.5087
   1412.81311     389.3461     302.6781   1412.81311     389.3461     302.6781
   1412.79785     387.6943     301.5924   1412.79785     387.6943     301.5924
   1412.78259     385.7727     300.9956   1412.78259     385.7727     300.9956
   1412.76733     384.9085     299.9122   1412.76733     384.9085     299.9122
   1412.75208     383.0997     299.1730   1412.75208     383.0997     299.1730
   1412.73682     381.4681     297.9841   1412.73682     381.4681     297.9841
   1412.72156     380.4258     297.5946   1412.72156     380.4258     297.5946
   1412.70630     379.1922     296.7552   1412.70630     379.1922     296.7552
   1412.69104     377.8193     295.9894   1412.69104     377.8193     295.9894
   1412.67578     376.4513     295.2502   1412.67578     376.4513     295.2502
   1412.66052     375.6496     294.4854   1412.66052     375.6496     294.4854
   1412.64526     374.7737     293.1157   1412.64526     374.7737     293.1157
   1412.63000     373.2158     292.9106   1412.63000     373.2158     292.9106
   1412.61475     373.3222     292.1395   1412.61475     373.3222     292.1395
   1412.59949     372.4150     291.4810   1412.59949     372.4150     291.4810
   1412.58423     371.4577     291.5841   1412.58423     371.4577     291.5841
   1412.56897     370.4700     290.3419   1412.56897     370.4700     290.3419
   1412.55371     368.8495     289.5792   1412.55371     368.8495     289.5792
   1412.53845     369.2478     289.9491   1412.53845     369.2478     289.9491
   1412.52319     368.4572     288.7544   1412.52319     368.4572     288.7544
   1412.50793     368.2300     289.0143   1412.50793     368.2300     289.0143
   1412.49268     367.2487     288.7154   1412.49268     367.2487     288.7154
   1412.47742     367.0572     288.5165   1412.47742     367.0572     288.5165
   1412.46216     366.9477     287.9807   1412.46216     366.9477     287.9807
   1412.44690     365.9094     287.7321   1412.44690     365.9094     287.7321
   1412.43164     366.0220     287.8933   1412.43164     366.0220     287.8933
   1412.41638     365.7043     287.4312   1412.41638     365.7043     287.4312
   1412.40112     365.2527     287.3293   1412.40112     365.2527     287.3293
   1412.38586     365.3522     287.5793   1412.38586     365.3522     287.5793
   1412.37061     365.3576     287.0921   1412.37061     365.3576     287.0921
   1412.35535     365.5868     287.1794   1412.35535     365.5868     287.1794
   1412.34009     365.3089     287.1179   1412.34009     365.3089     287.1179
   1412.32483     365.1010     287.4148   1412.32483     365.1010     287.4148
   1412.30957     365.5888     287.5260   1412.30957     365.5888     287.5260
   1412.29431     365.7255     287.8564   1412.29431     365.7255     287.8564
   1412.27905     365.8382     288.1122   1412.27905     365.8382     288.1122
   1412.26379     365.5577     288.3640   1412.26379     365.5577     288.3640
   1412.24854     367.0909     288.7046   1412.24854     367.0909     288.7046
   1412.23328     367.8415     288.6100   1412.23328     367.8415     288.6100
   1412.21802     367.8109     289.0738   1412.21802     367.8109     289.0738
   1412.20276     368.2328     289.9413   1412.20276     368.2328     289.9413