#     FILENAME=!Skynet_57528_lach-cc-233_20649_21023.cyb.fits
#     BASENAME=Skynet_57528_lach-cc-233_20649_21023
#     SRC_NAME=lach-cc-233
#     OBSERVER=ccmadison16_9505
#     DATE_OBS=2016-05-20T19:21:54.250
#        OBSID=20649
#      SCANNUM=21023
#          MJD=57528.8079
#          UTC=69803
#     SCANTYPE=track
#     DATAMODE=HIRES
#     TUNEFREQ=1420.0000
# Actual_FREQ1=1420.0000
# Actual_FREQ2=1420.0000
#    LO1Tuning=6870.000
#     RFFILTER=1355_1435
#        OBSBW=-15.6250
#        NCHAN=1024 
#        FOCUS=37.0709
#           RA=07:29:13.64
#          DEC=-17:46:55.66
#      RA(hrs)=7.487100
#     DEC(deg)=-17.782100
#    AZIM(deg)=154.143
#    ELEV(deg)=29.601
#     IFattens=10.00, 9.00
#      WARNING=None
#    TCAL_XL1=7.9635
#    TCAL_YR1=9.1340
#    TCAL_XL2=7.9635
#    TCAL_YR2=9.1340
#     TRX_XL1=11.7060
#     TRX_YR1=11.7060
#     TRX_XL2=11.7060
#     TRX_YR2=11.7060
#        TAVE=1.0000
#Freq1(MHz)          XL1          YR1  Freq2(MHz)          XL2          YR2 

   1427.81250     367.1564     289.0854   1427.81250     367.1564     289.0854
   1427.79724     366.8398     288.6809   1427.79724     366.8398     288.6809
   1427.78198     368.4715     289.6367   1427.78198     368.4715     289.6367
   1427.76672     370.0325     290.2041   1427.76672     370.0325     290.2041
   1427.75146     370.0349     290.9418   1427.75146     370.0349     290.9418
   1427.73621     370.4816     291.4200   1427.73621     370.4816     291.4200
   1427.72095     371.5706     292.1967   1427.72095     371.5706     292.1967
   1427.70569     372.5273     292.2691   1427.70569     372.5273     292.2691
   1427.69043     374.4402     293.3889   1427.69043     374.4402     293.3889
   1427.67517     375.2456     294.7329   1427.67517     375.2456     294.7329
   1427.65991     376.2591     295.7593   1427.65991     376.2591     295.7593
   1427.64465     377.2646     296.2850   1427.64465     377.2646     296.2850
   1427.62939     378.9788     297.1860   1427.62939     378.9788     297.1860
   1427.61414     380.5069     298.0427   1427.61414     380.5069     298.0427
   1427.59888     381.6725     298.8774   1427.59888     381.6725     298.8774
   1427.58362     382.8231     299.7410   1427.58362     382.8231     299.7410
   1427.56836     383.9900     301.4943   1427.56836     383.9900     301.4943
   1427.55310     385.7433     302.4114   1427.55310     385.7433     302.4114
   1427.53784     387.5785     303.4836   1427.53784     387.5785     303.4836
   1427.52258     388.7791     304.6652   1427.52258     388.7791     304.6652
   1427.50732     390.3801     306.1518   1427.50732     390.3801     306.1518
   1427.49207     391.9559     307.4689   1427.49207     391.9559     307.4689
   1427.47681     393.6812     308.5790   1427.47681     393.6812     308.5790
   1427.46155     395.4561     310.5820   1427.46155     395.4561     310.5820
   1427.44629     397.8869     311.5365   1427.44629     397.8869     311.5365
   1427.43103     399.1551     312.4051   1427.43103     399.1551     312.4051
   1427.41577     400.8053     314.1598   1427.41577     400.8053     314.1598
   1427.40051     403.3653     316.0845   1427.40051     403.3653     316.0845
   1427.38525     405.2854     317.1720   1427.38525     405.2854     317.1720
   1427.37000     407.6173     318.7416   1427.37000     407.6173     318.7416
   1427.35474     409.1856     321.2863   1427.35474     409.1856     321.2863
   1427.33948     411.3229     322.2211   1427.33948     411.3229     322.2211
   1427.32422     413.1120     324.1488   1427.32422     413.1120     324.1488
   1427.30896     416.0432     325.0924   1427.30896     416.0432     325.0924
   1427.29370     417.2126     327.3791   1427.29370     417.2126     327.3791
   1427.27844     419.7343     329.0059   1427.27844     419.7343     329.0059
   1427.26318     422.6897     330.5219   1427.26318     422.6897     330.5219
   1427.24792     425.0243     332.5211   1427.24792     425.0243     332.5211
   1427.23267     427.4676     334.0096   1427.23267     427.4676     334.0096
   1427.21741     429.5570     336.1710   1427.21741     429.5570     336.1710
   1427.20215     431.3559     337.6915   1427.20215     431.3559     337.6915
   1427.18689     434.4660     339.9217   1427.18689     434.4660     339.9217
   1427.17163     437.1611     341.4738   1427.17163     437.1611     341.4738
   1427.15637     439.5453     343.7585   1427.15637     439.5453     343.7585
   1427.14111     442.0107     345.8947   1427.14111     442.0107     345.8947
   1427.12585     444.7755     348.1101   1427.12585     444.7755     348.1101
   1427.11060     446.8509     349.9486   1427.11060     446.8509     349.9486
   1427.09534     450.1927     351.9138   1427.09534     450.1927     351.9138
   1427.08008     452.3849     354.1940   1427.08008     452.3849     354.1940
   1427.06482     455.8193     356.3669   1427.06482     455.8193     356.3669
   1427.04956     457.5788     358.2880   1427.04956     457.5788     358.2880
   1427.03430     460.1012     360.3155   1427.03430     460.1012     360.3155
   1427.01904     462.9208     362.8219   1427.01904     462.9208     362.8219
   1427.00378     465.4338     364.7939   1427.00378     465.4338     364.7939
   1426.98853     468.6786     366.9408   1426.98853     468.6786     366.9408
   1426.97327     471.9434     369.6186   1426.97327     471.9434     369.6186
   1426.95801     473.9280     371.5138   1426.95801     473.9280     371.5138
   1426.94275     477.2422     373.2876   1426.94275     477.2422     373.2876
   1426.92749     479.4275     375.9954   1426.92749     479.4275     375.9954
   1426.91223     481.8582     378.4612   1426.91223     481.8582     378.4612
   1426.89697     485.0029     380.7481   1426.89697     485.0029     380.7481
   1426.88171     489.0561     382.7630   1426.88171     489.0561     382.7630
   1426.86646     491.4576     385.2620   1426.86646     491.4576     385.2620
   1426.85120     493.9316     387.5031   1426.85120     493.9316     387.5031
   1426.83594     497.1624     390.0880   1426.83594     497.1624     390.0880
   1426.82068     499.5883     392.6597   1426.82068     499.5883     392.6597
   1426.80542     502.7582     395.3182   1426.80542     502.7582     395.3182
   1426.79016     505.8397     397.5568   1426.79016     505.8397     397.5568
   1426.77490     508.5365     399.9933   1426.77490     508.5365     399.9933
   1426.75964     511.3421     402.5122   1426.75964     511.3421     402.5122
   1426.74438     514.9708     404.5341   1426.74438     514.9708     404.5341
   1426.72913     517.0767     406.9642   1426.72913     517.0767     406.9642
   1426.71387     519.6529     409.7165   1426.71387     519.6529     409.7165
   1426.69861     523.5690     411.8774   1426.69861     523.5690     411.8774
   1426.68335     526.0259     414.6203   1426.68335     526.0259     414.6203
   1426.66809     528.9866     416.4066   1426.66809     528.9866     416.4066
   1426.65283     532.3147     420.0461   1426.65283     532.3147     420.0461
   1426.63757     534.2993     422.2391   1426.63757     534.2993     422.2391
   1426.62231     542.4069     426.6458   1426.62231     542.4069     426.6458
   1426.60706     540.8761     427.5372   1426.60706     540.8761     427.5372
   1426.59180     544.6796     429.1988   1426.59180     544.6796     429.1988
   1426.57654     547.2936     432.1549   1426.57654     547.2936     432.1549
   1426.56128     549.3061     435.0717   1426.56128     549.3061     435.0717
   1426.54602     552.2131     436.4567   1426.54602     552.2131     436.4567
   1426.53076     556.0131     439.8184   1426.53076     556.0131     439.8184
   1426.51550     557.6994     442.3516   1426.51550     557.6994     442.3516
   1426.50024     561.0270     444.4340   1426.50024     561.0270     444.4340
   1426.48499     564.4717     446.7209   1426.48499     564.4717     446.7209
   1426.46973     568.2364     449.5130   1426.46973     568.2364     449.5130
   1426.45447     570.1945     452.5190   1426.45447     570.1945     452.5190
   1426.43921     573.1061     455.4526   1426.43921     573.1061     455.4526
   1426.42395     575.3741     457.4430   1426.42395     575.3741     457.4430
   1426.40869     578.8255     459.8380   1426.40869     578.8255     459.8380
   1426.39343     581.4193     461.7471   1426.39343     581.4193     461.7471
   1426.37817     584.4232     464.8760   1426.37817     584.4232     464.8760
   1426.36292     587.4029     466.9165   1426.36292     587.4029     466.9165
   1426.34766     590.3031     469.6422   1426.34766     590.3031     469.6422
   1426.33240     592.6022     471.9852   1426.33240     592.6022     471.9852
   1426.31714     594.5911     475.2561   1426.31714     594.5911     475.2561
   1426.30188     597.4879     477.0623   1426.30188     597.4879     477.0623
   1426.28662     601.6889     480.0269   1426.28662     601.6889     480.0269
   1426.27136     603.4372     481.5659   1426.27136     603.4372     481.5659
   1426.25610     605.2419     484.1991   1426.25610     605.2419     484.1991
   1426.24084     608.1331     486.4444   1426.24084     608.1331     486.4444
   1426.22559     611.3079     489.3983   1426.22559     611.3079     489.3983
   1426.21033     613.7167     492.6805   1426.21033     613.7167     492.6805
   1426.19507     616.6542     493.5470   1426.19507     616.6542     493.5470
   1426.17981     618.3737     496.9090   1426.17981     618.3737     496.9090
   1426.16455     621.4716     498.9747   1426.16455     621.4716     498.9747
   1426.14929     624.6568     501.1866   1426.14929     624.6568     501.1866
   1426.13403     626.4131     504.2089   1426.13403     626.4131     504.2089
   1426.11877     628.6484     505.2328   1426.11877     628.6484     505.2328
   1426.10352     631.8187     509.0415   1426.10352     631.8187     509.0415
   1426.08826     633.7298     510.4432   1426.08826     633.7298     510.4432
   1426.07300     635.6498     512.5116   1426.07300     635.6498     512.5116
   1426.05774     638.6580     515.4456   1426.05774     638.6580     515.4456
   1426.04248     640.6707     518.5193   1426.04248     640.6707     518.5193
   1426.02722     642.8887     521.4149   1426.02722     642.8887     521.4149
   1426.01196     645.1705     522.9007   1426.01196     645.1705     522.9007
   1425.99670     647.7386     524.0670   1425.99670     647.7386     524.0670
   1425.98145     649.5804     526.9416   1425.98145     649.5804     526.9416
   1425.96619     652.4307     529.6350   1425.96619     652.4307     529.6350
   1425.95093     655.0937     532.2519   1425.95093     655.0937     532.2519
   1425.93567     656.5216     534.5751   1425.93567     656.5216     534.5751
   1425.92041     659.0766     536.4084   1425.92041     659.0766     536.4084
   1425.90515     661.5776     538.5717   1425.90515     661.5776     538.5717
   1425.88989     662.6833     540.6840   1425.88989     662.6833     540.6840
   1425.87463     664.3126     542.6129   1425.87463     664.3126     542.6129
   1425.85938     665.7950     544.3467   1425.85938     665.7950     544.3467
   1425.84412     668.3680     546.8447   1425.84412     668.3680     546.8447
   1425.82886     671.1895     549.2236   1425.82886     671.1895     549.2236
   1425.81360     671.7834     552.2385   1425.81360     671.7834     552.2385
   1425.79834     675.6151     554.1103   1425.79834     675.6151     554.1103
   1425.78308     676.3376     556.2994   1425.78308     676.3376     556.2994
   1425.76782     677.5201     557.8826   1425.76782     677.5201     557.8826
   1425.75256     680.6435     560.8215   1425.75256     680.6435     560.8215
   1425.73730     681.9550     562.1224   1425.73730     681.9550     562.1224
   1425.72205     682.9149     565.2462   1425.72205     682.9149     565.2462
   1425.70679     684.9910     566.3001   1425.70679     684.9910     566.3001
   1425.69153     686.7868     568.1505   1425.69153     686.7868     568.1505
   1425.67627     688.9196     571.0197   1425.67627     688.9196     571.0197
   1425.66101     689.7411     572.0122   1425.66101     689.7411     572.0122
   1425.64575     691.9653     574.0349   1425.64575     691.9653     574.0349
   1425.63049     694.1403     574.8907   1425.63049     694.1403     574.8907
   1425.61523     694.0784     578.1820   1425.61523     694.0784     578.1820
   1425.59998     696.0848     580.5017   1425.59998     696.0848     580.5017
   1425.58472     697.5367     582.1606   1425.58472     697.5367     582.1606
   1425.56946     698.8564     583.2943   1425.56946     698.8564     583.2943
   1425.55420     702.1957     585.9647   1425.55420     702.1957     585.9647
   1425.53894     703.3441     587.8117   1425.53894     703.3441     587.8117
   1425.52368     703.9034     590.0024   1425.52368     703.9034     590.0024
   1425.50842     705.6942     591.5656   1425.50842     705.6942     591.5656
   1425.49316     705.8817     593.9216   1425.49316     705.8817     593.9216
   1425.47791     707.6337     594.8004   1425.47791     707.6337     594.8004
   1425.46265     708.7026     597.2025   1425.46265     708.7026     597.2025
   1425.44739     710.0346     598.7081   1425.44739     710.0346     598.7081
   1425.43213     710.5553     601.3756   1425.43213     710.5553     601.3756
   1425.41687     712.5689     603.1758   1425.41687     712.5689     603.1758
   1425.40161     713.3550     604.5231   1425.40161     713.3550     604.5231
   1425.38635     715.4346     605.9101   1425.38635     715.4346     605.9101
   1425.37109     715.1205     608.3189   1425.37109     715.1205     608.3189
   1425.35583     716.3600     610.2701   1425.35583     716.3600     610.2701
   1425.34058     717.1374     610.3329   1425.34058     717.1374     610.3329
   1425.32532     718.8234     612.5593   1425.32532     718.8234     612.5593
   1425.31006     720.6993     613.8339   1425.31006     720.6993     613.8339
   1425.29480     720.2097     615.5612   1425.29480     720.2097     615.5612
   1425.27954     722.2370     617.7987   1425.27954     722.2370     617.7987
   1425.26428     722.5201     619.2698   1425.26428     722.5201     619.2698
   1425.24902     722.5031     620.5897   1425.24902     722.5031     620.5897
   1425.23376     724.0774     622.0582   1425.23376     724.0774     622.0582
   1425.21851     725.4571     622.8644   1425.21851     725.4571     622.8644
   1425.20325     725.4926     627.0953   1425.20325     725.4926     627.0953
   1425.18799     727.4980     627.4500   1425.18799     727.4980     627.4500
   1425.17273     728.5516     628.7347   1425.17273     728.5516     628.7347
   1425.15747     726.9032     629.6770   1425.15747     726.9032     629.6770
   1425.14221     728.2579     632.2875   1425.14221     728.2579     632.2875
   1425.12695     729.2816     632.6149   1425.12695     729.2816     632.6149
   1425.11169     730.5035     634.7250   1425.11169     730.5035     634.7250
   1425.09644     729.6706     635.7907   1425.09644     729.6706     635.7907
   1425.08118     730.9092     637.3246   1425.08118     730.9092     637.3246
   1425.06592     731.0699     638.3191   1425.06592     731.0699     638.3191
   1425.05066     731.8651     640.0867   1425.05066     731.8651     640.0867
   1425.03540     731.9190     641.6360   1425.03540     731.9190     641.6360
   1425.02014     732.6633     642.5971   1425.02014     732.6633     642.5971
   1425.00488     732.8446     644.1555   1425.00488     732.8446     644.1555
   1424.98962     734.7031     645.7648   1424.98962     734.7031     645.7648
   1424.97437     734.1725     646.6562   1424.97437     734.1725     646.6562
   1424.95911     735.6094     648.5507   1424.95911     735.6094     648.5507
   1424.94385     735.7074     649.1580   1424.94385     735.7074     649.1580
   1424.92859     735.8078     649.4188   1424.92859     735.8078     649.4188
   1424.91333     736.1550     651.7734   1424.91333     736.1550     651.7734
   1424.89807     737.1209     652.9312   1424.89807     737.1209     652.9312
   1424.88281     736.4478     654.3437   1424.88281     736.4478     654.3437
   1424.86755     737.9788     656.2886   1424.86755     737.9788     656.2886
   1424.85229     735.9289     656.4730   1424.85229     735.9289     656.4730
   1424.83704     737.3184     657.1604   1424.83704     737.3184     657.1604
   1424.82178     737.9568     658.9738   1424.82178     737.9568     658.9738
   1424.80652     737.3238     659.6112   1424.80652     737.3238     659.6112
   1424.79126     738.6213     659.8625   1424.79126     738.6213     659.8625
   1424.77600     738.6024     661.9495   1424.77600     738.6024     661.9495
   1424.76074     738.5114     662.8338   1424.76074     738.5114     662.8338
   1424.74548     738.4920     663.9727   1424.74548     738.4920     663.9727
   1424.73022     739.4909     664.3094   1424.73022     739.4909     664.3094
   1424.71497     739.0928     665.5198   1424.71497     739.0928     665.5198
   1424.69971     738.9500     666.4501   1424.69971     738.9500     666.4501
   1424.68445     738.9473     667.8552   1424.68445     738.9473     667.8552
   1424.66919     739.9318     669.1586   1424.66919     739.9318     669.1586
   1424.65393     739.2220     669.9384   1424.65393     739.2220     669.9384
   1424.63867     739.3995     671.5707   1424.63867     739.3995     671.5707
   1424.62341     740.6544     670.7565   1424.62341     740.6544     670.7565
   1424.60815     740.5208     673.3403   1424.60815     740.5208     673.3403
   1424.59290     739.4050     673.7350   1424.59290     739.4050     673.7350
   1424.57764     739.6455     674.8605   1424.57764     739.6455     674.8605
   1424.56238     739.4373     675.2844   1424.56238     739.4373     675.2844
   1424.54712     739.8995     675.8282   1424.54712     739.8995     675.8282
   1424.53186     739.4829     675.9355   1424.53186     739.4829     675.9355
   1424.51660     739.4007     677.4561   1424.51660     739.4007     677.4561
   1424.50134     739.5588     677.6896   1424.50134     739.5588     677.6896
   1424.48608     739.2786     677.7440   1424.48608     739.2786     677.7440
   1424.47083     738.8989     680.2368   1424.47083     738.8989     680.2368
   1424.45557     738.9044     679.6687   1424.45557     738.9044     679.6687
   1424.44031     739.6083     680.2772   1424.44031     739.6083     680.2772
   1424.42505     740.1746     681.5587   1424.42505     740.1746     681.5587
   1424.40979     739.5534     682.2972   1424.40979     739.5534     682.2972
   1424.39453     739.0714     683.6996   1424.39453     739.0714     683.6996
   1424.37927     738.9540     683.4846   1424.37927     738.9540     683.4846
   1424.36401     738.9508     684.4086   1424.36401     738.9508     684.4086
   1424.34875     739.0184     685.2638   1424.34875     739.0184     685.2638
   1424.33350     738.7699     686.0425   1424.33350     738.7699     686.0425
   1424.31824     739.3887     685.8801   1424.31824     739.3887     685.8801
   1424.30298     739.0031     687.4424   1424.30298     739.0031     687.4424
   1424.28772     739.0452     687.0585   1424.28772     739.0452     687.0585
   1424.27246     738.0878     687.1859   1424.27246     738.0878     687.1859
   1424.25720     737.7823     687.6174   1424.25720     737.7823     687.6174
   1424.24194     737.3036     688.1934   1424.24194     737.3036     688.1934
   1424.22668     737.5098     689.9714   1424.22668     737.5098     689.9714
   1424.21143     736.7902     688.8811   1424.21143     736.7902     688.8811
   1424.19617     736.7723     688.8782   1424.19617     736.7723     688.8782
   1424.18091     736.6285     688.8480   1424.18091     736.6285     688.8480
   1424.16565     736.5892     689.4858   1424.16565     736.5892     689.4858
   1424.15039     736.6402     691.4073   1424.15039     736.6402     691.4073
   1424.13513     735.9651     692.0567   1424.13513     735.9651     692.0567
   1424.11987     736.5623     691.6470   1424.11987     736.5623     691.6470
   1424.10461     735.7992     691.1139   1424.10461     735.7992     691.1139
   1424.08936     734.4601     691.3204   1424.08936     734.4601     691.3204
   1424.07410     735.1628     691.6641   1424.07410     735.1628     691.6641
   1424.05884     736.1550     691.8450   1424.05884     736.1550     691.8450
   1424.04358     736.6639     692.5724   1424.04358     736.6639     692.5724
   1424.02832     734.5954     692.4596   1424.02832     734.5954     692.4596
   1424.01306     735.4844     693.8138   1424.01306     735.4844     693.8138
   1423.99780     734.1729     692.1718   1423.99780     734.1729     692.1718
   1423.98254     735.3192     693.2549   1423.98254     735.3192     693.2549
   1423.96729     733.7897     693.5091   1423.96729     733.7897     693.5091
   1423.95203     732.4498     692.5364   1423.95203     732.4498     692.5364
   1423.93677     732.2397     693.3509   1423.93677     732.2397     693.3509
   1423.92151     734.0851     693.1957   1423.92151     734.0851     693.1957
   1423.90625     732.3340     693.0650   1423.90625     732.3340     693.0650
   1423.89099     732.8965     692.2407   1423.89099     732.8965     692.2407
   1423.87573     732.7878     693.3248   1423.87573     732.7878     693.3248
   1423.86047     730.9519     693.0247   1423.86047     730.9519     693.0247
   1423.84521     732.0024     691.8825   1423.84521     732.0024     691.8825
   1423.82996     732.1308     693.3447   1423.82996     732.1308     693.3447
   1423.81470     731.6060     692.0504   1423.81470     731.6060     692.0504
   1423.79944     730.2094     692.5615   1423.79944     730.2094     692.5615
   1423.78418     731.6398     693.9095   1423.78418     731.6398     693.9095
   1423.76892     729.8527     693.0421   1423.76892     729.8527     693.0421
   1423.75366     729.7005     692.5258   1423.75366     729.7005     692.5258
   1423.73840     729.5714     693.2542   1423.73840     729.5714     693.2542
   1423.72314     729.2247     692.3108   1423.72314     729.2247     692.3108
   1423.70789     728.6553     691.3445   1423.70789     728.6553     691.3445
   1423.69263     728.9370     690.9333   1423.69263     728.9370     690.9333
   1423.67737     728.8226     690.7008   1423.67737     728.8226     690.7008
   1423.66211     728.5598     691.4615   1423.66211     728.5598     691.4615
   1423.64685     727.7161     690.2244   1423.64685     727.7161     690.2244
   1423.63159     727.0850     690.1000   1423.63159     727.0850     690.1000
   1423.61633     728.1288     690.2095   1423.61633     728.1288     690.2095
   1423.60107     727.5684     690.5237   1423.60107     727.5684     690.5237
   1423.58582     727.2933     689.7001   1423.58582     727.2933     689.7001
   1423.57056     726.0411     688.7640   1423.57056     726.0411     688.7640
   1423.55530     727.6837     688.1135   1423.55530     727.6837     688.1135
   1423.54004     725.7549     689.6049   1423.54004     725.7549     689.6049
   1423.52478     726.0126     688.2443   1423.52478     726.0126     688.2443
   1423.50952     725.7048     687.1279   1423.50952     725.7048     687.1279
   1423.49426     725.6835     686.5283   1423.49426     725.6835     686.5283
   1423.47900     725.0471     686.0306   1423.47900     725.0471     686.0306
   1423.46375     724.1765     685.1097   1423.46375     724.1765     685.1097
   1423.44849     724.0071     685.9322   1423.44849     724.0071     685.9322
   1423.43323     723.9071     685.6934   1423.43323     723.9071     685.6934
   1423.41797     724.2368     683.7835   1423.41797     724.2368     683.7835
   1423.40271     724.0651     683.8393   1423.40271     724.0651     683.8393
   1423.38745     724.4646     683.8099   1423.38745     724.4646     683.8099
   1423.37219     723.6570     683.2215   1423.37219     723.6570     683.2215
   1423.35693     722.8798     682.2655   1423.35693     722.8798     682.2655
   1423.34167     722.9399     680.8163   1423.34167     722.9399     680.8163
   1423.32642     722.3589     679.5731   1423.32642     722.3589     679.5731
   1423.31116     721.9164     678.9612   1423.31116     721.9164     678.9612
   1423.29590     721.7698     679.9780   1423.29590     721.7698     679.9780
   1423.28064     722.0847     678.4392   1423.28064     722.0847     678.4392
   1423.26538     721.3613     677.3999   1423.26538     721.3613     677.3999
   1423.25012     722.1249     677.0963   1423.25012     722.1249     677.0963
   1423.23486     721.7421     677.2640   1423.23486     721.7421     677.2640
   1423.21960     721.1005     674.6801   1423.21960     721.1005     674.6801
   1423.20435     719.5820     673.6953   1423.20435     719.5820     673.6953
   1423.18909     719.3717     674.1596   1423.18909     719.3717     674.1596
   1423.17383     720.3151     672.6191   1423.17383     720.3151     672.6191
   1423.15857     719.4804     672.7635   1423.15857     719.4804     672.7635
   1423.14331     719.5773     670.7313   1423.14331     719.5773     670.7313
   1423.12805     719.8583     669.3661   1423.12805     719.8583     669.3661
   1423.11279     718.6208     669.1328   1423.11279     718.6208     669.1328
   1423.09753     718.1646     668.1511   1423.09753     718.1646     668.1511
   1423.08228     718.3716     667.3718   1423.08228     718.3716     667.3718
   1423.06702     718.2439     665.0887   1423.06702     718.2439     665.0887
   1423.05176     717.3188     665.8602   1423.05176     717.3188     665.8602
   1423.03650     717.9827     664.2986   1423.03650     717.9827     664.2986
   1423.02124     715.9114     663.0742   1423.02124     715.9114     663.0742
   1423.00598     715.7266     662.3414   1423.00598     715.7266     662.3414
   1422.99072     717.0937     661.5494   1422.99072     717.0937     661.5494
   1422.97546     715.9462     660.9927   1422.97546     715.9462     660.9927
   1422.96021     716.3712     659.7927   1422.96021     716.3712     659.7927
   1422.94495     716.7780     658.1144   1422.94495     716.7780     658.1144
   1422.92969     715.3990     657.1830   1422.92969     715.3990     657.1830
   1422.91443     715.2233     656.0085   1422.91443     715.2233     656.0085
   1422.89917     715.3492     654.9932   1422.89917     715.3492     654.9932
   1422.88391     714.9071     654.4526   1422.88391     714.9071     654.4526
   1422.86865     715.2596     652.5662   1422.86865     715.2596     652.5662
   1422.85339     714.5344     652.5893   1422.85339     714.5344     652.5893
   1422.83813     715.0014     650.3657   1422.83813     715.0014     650.3657
   1422.82288     714.8991     649.1964   1422.82288     714.8991     649.1964
   1422.80762     713.4162     649.0019   1422.80762     713.4162     649.0019
   1422.79236     713.3473     646.6702   1422.79236     713.3473     646.6702
   1422.77710     714.4370     645.5783   1422.77710     714.4370     645.5783
   1422.76184     714.3159     645.4808   1422.76184     714.3159     645.4808
   1422.74658     713.6577     643.9730   1422.74658     713.6577     643.9730
   1422.73132     713.3920     642.3254   1422.73132     713.3920     642.3254
   1422.71606     712.7396     640.7166   1422.71606     712.7396     640.7166
   1422.70081     712.7908     639.6709   1422.70081     712.7908     639.6709
   1422.68555     711.2221     638.4767   1422.68555     711.2221     638.4767
   1422.67029     712.3400     638.8022   1422.67029     712.3400     638.8022
   1422.65503     711.3538     635.7436   1422.65503     711.3538     635.7436
   1422.63977     711.6988     634.6015   1422.63977     711.6988     634.6015
   1422.62451     711.6273     633.5303   1422.62451     711.6273     633.5303
   1422.60925     711.3301     632.8635   1422.60925     711.3301     632.8635
   1422.59399     711.5977     631.6337   1422.59399     711.5977     631.6337
   1422.57874     711.4366     629.1163   1422.57874     711.4366     629.1163
   1422.56348     710.2548     628.5668   1422.56348     710.2548     628.5668
   1422.54822     710.6324     627.1102   1422.54822     710.6324     627.1102
   1422.53296     710.0944     624.8965   1422.53296     710.0944     624.8965
   1422.51770     710.0218     625.9259   1422.51770     710.0218     625.9259
   1422.50244     709.9266     623.9902   1422.50244     709.9266     623.9902
   1422.48718     709.4750     622.1682   1422.48718     709.4750     622.1682
   1422.47192     709.0695     620.8464   1422.47192     709.0695     620.8464
   1422.45667     708.4270     620.0258   1422.45667     708.4270     620.0258
   1422.44141     708.1061     618.1757   1422.44141     708.1061     618.1757
   1422.42615     707.6617     615.6298   1422.42615     707.6617     615.6298
   1422.41089     708.6373     615.4370   1422.41089     708.6373     615.4370
   1422.39563     708.1089     613.4547   1422.39563     708.1089     613.4547
   1422.38037     707.3162     612.0264   1422.38037     707.3162     612.0264
   1422.36511     707.8292     609.6649   1422.36511     707.8292     609.6649
   1422.34985     707.2627     609.3110   1422.34985     707.2627     609.3110
   1422.33459     707.0332     607.9983   1422.33459     707.0332     607.9983
   1422.31934     707.2888     607.0058   1422.31934     707.2888     607.0058
   1422.30408     707.3652     604.9130   1422.30408     707.3652     604.9130
   1422.28882     707.0198     604.5930   1422.28882     707.0198     604.5930
   1422.27356     706.0140     602.3698   1422.27356     706.0140     602.3698
   1422.25830     706.4827     601.9496   1422.25830     706.4827     601.9496
   1422.24304     705.6067     599.2108   1422.24304     705.6067     599.2108
   1422.22778     705.7648     598.0942   1422.22778     705.7648     598.0942
   1422.21252     706.1312     597.3328   1422.21252     706.1312     597.3328
   1422.19727     706.6945     595.9925   1422.19727     706.6945     595.9925
   1422.18201     704.5710     594.5430   1422.18201     704.5710     594.5430
   1422.16675     704.2911     592.2272   1422.16675     704.2911     592.2272
   1422.15149     705.0479     590.7347   1422.15149     705.0479     590.7347
   1422.13623     704.2627     590.1820   1422.13623     704.2627     590.1820
   1422.12097     704.5358     588.2600   1422.12097     704.5358     588.2600
   1422.10571     704.5477     586.1970   1422.10571     704.5477     586.1970
   1422.09045     703.2780     585.0393   1422.09045     703.2780     585.0393
   1422.07520     705.0056     584.0163   1422.07520     705.0056     584.0163
   1422.05994     703.5759     582.0169   1422.05994     703.5759     582.0169
   1422.04468     704.3657     580.5139   1422.04468     704.3657     580.5139
   1422.02942     702.9806     578.6339   1422.02942     702.9806     578.6339
   1422.01416     703.3367     577.2832   1422.01416     703.3367     577.2832
   1421.99890     703.3629     575.9098   1421.99890     703.3629     575.9098
   1421.98364     701.0167     575.3514   1421.98364     701.0167     575.3514
   1421.96838     702.8014     573.4961   1421.96838     702.8014     573.4961
   1421.95312     702.5221     572.4708   1421.95312     702.5221     572.4708
   1421.93787     701.6037     570.9009   1421.93787     701.6037     570.9009
   1421.92261     702.9861     568.8138   1421.92261     702.9861     568.8138
   1421.90735     701.2920     567.7983   1421.90735     701.2920     567.7983
   1421.89209     701.4063     566.7895   1421.89209     701.4063     566.7895
   1421.87683     701.2847     564.9550   1421.87683     701.2847     564.9550
   1421.86157     701.5906     563.9727   1421.86157     701.5906     563.9727
   1421.84631     700.0631     562.7119   1421.84631     700.0631     562.7119
   1421.83105     700.8762     561.2434   1421.83105     700.8762     561.2434
   1421.81580     699.1796     559.2176   1421.81580     699.1796     559.2176
   1421.80054     700.6451     557.2634   1421.80054     700.6451     557.2634
   1421.78528     700.7411     556.2080   1421.78528     700.7411     556.2080
   1421.77002     700.5211     554.2559   1421.77002     700.5211     554.2559
   1421.75476     699.2250     553.7086   1421.75476     699.2250     553.7086
   1421.73950     699.1111     552.4307   1421.73950     699.1111     552.4307
   1421.72424     700.1079     550.2900   1421.72424     700.1079     550.2900
   1421.70898     699.6130     549.5370   1421.70898     699.6130     549.5370
   1421.69373     700.2344     548.3284   1421.69373     700.2344     548.3284
   1421.67847     697.9838     545.9757   1421.67847     697.9838     545.9757
   1421.66321     699.0483     544.6016   1421.66321     699.0483     544.6016
   1421.64795     698.0497     542.9929   1421.64795     698.0497     542.9929
   1421.63269     697.7190     542.3857   1421.63269     697.7190     542.3857
   1421.61743     697.1533     540.5936   1421.61743     697.1533     540.5936
   1421.60217     697.8691     539.3983   1421.60217     697.8691     539.3983
   1421.58691     697.7054     538.6703   1421.58691     697.7054     538.6703
   1421.57166     697.0709     536.1924   1421.57166     697.0709     536.1924
   1421.55640     696.4938     535.4445   1421.55640     696.4938     535.4445
   1421.54114     695.7612     533.4125   1421.54114     695.7612     533.4125
   1421.52588     696.2936     532.7999   1421.52588     696.2936     532.7999
   1421.51062     697.2533     531.6690   1421.51062     697.2533     531.6690
   1421.49536     695.9904     530.4884   1421.49536     695.9904     530.4884
   1421.48010     695.3064     528.6903   1421.48010     695.3064     528.6903
   1421.46484     695.6744     527.8300   1421.46484     695.6744     527.8300
   1421.44958     694.9716     525.1966   1421.44958     694.9716     525.1966
   1421.43433     695.1622     525.0228   1421.43433     695.1622     525.0228
   1421.41907     694.9528     522.5034   1421.41907     694.9528     522.5034
   1421.40381     694.5304     521.7444   1421.40381     694.5304     521.7444
   1421.38855     695.0968     520.2416   1421.38855     695.0968     520.2416
   1421.37329     694.1285     519.0310   1421.37329     694.1285     519.0310
   1421.35803     694.2977     517.8096   1421.35803     694.2977     517.8096
   1421.34277     693.7512     516.7726   1421.34277     693.7512     516.7726
   1421.32751     693.2266     514.9454   1421.32751     693.2266     514.9454
   1421.31226     693.2642     514.7769   1421.31226     693.2642     514.7769
   1421.29700     693.4844     512.2794   1421.29700     693.4844     512.2794
   1421.28174     693.6324     510.9552   1421.28174     693.6324     510.9552
   1421.26648     692.9551     509.2784   1421.26648     692.9551     509.2784
   1421.25122     693.5286     508.5036   1421.25122     693.5286     508.5036
   1421.23596     691.1456     507.6745   1421.23596     691.1456     507.6745
   1421.22070     692.0984     506.1885   1421.22070     692.0984     506.1885
   1421.20544     691.1069     506.1104   1421.20544     691.1069     506.1104
   1421.19019     690.5665     503.5648   1421.19019     690.5665     503.5648
   1421.17493     691.7881     502.3416   1421.17493     691.7881     502.3416
   1421.15967     691.7319     501.4130   1421.15967     691.7319     501.4130
   1421.14441     691.0395     500.5208   1421.14441     691.0395     500.5208
   1421.12915     689.3656     499.4876   1421.12915     689.3656     499.4876
   1421.11389     690.3771     498.5233   1421.11389     690.3771     498.5233
   1421.09863     689.9067     496.6031   1421.09863     689.9067     496.6031
   1421.08337     689.3674     495.9905   1421.08337     689.3674     495.9905
   1421.06812     689.2269     494.3370   1421.06812     689.2269     494.3370
   1421.05286     688.9601     492.8798   1421.05286     688.9601     492.8798
   1421.03760     689.7083     491.9455   1421.03760     689.7083     491.9455
   1421.02234     689.7880     490.6428   1421.02234     689.7880     490.6428
   1421.00708     687.6939     490.1799   1421.00708     687.6939     490.1799
   1420.99182     688.4454     488.8973   1420.99182     688.4454     488.8973
   1420.97656     688.3694     487.6569   1420.97656     688.3694     487.6569
   1420.96130     688.3722     486.8810   1420.96130     688.3722     486.8810
   1420.94604     687.6640     485.7566   1420.94604     687.6640     485.7566
   1420.93079     687.9079     484.5498   1420.93079     687.9079     484.5498
   1420.91553     686.5930     483.7479   1420.91553     686.5930     483.7479
   1420.90027     687.6097     481.2982   1420.90027     687.6097     481.2982
   1420.88501     686.9186     481.0473   1420.88501     686.9186     481.0473
   1420.86975     686.0633     479.8386   1420.86975     686.0633     479.8386
   1420.85449     686.1160     479.0497   1420.85449     686.1160     479.0497
   1420.83923     686.9919     478.2168   1420.83923     686.9919     478.2168
   1420.82397     685.5486     478.0220   1420.82397     685.5486     478.0220
   1420.80872     687.1063     475.8232   1420.80872     687.1063     475.8232
   1420.79346     687.1259     475.5247   1420.79346     687.1259     475.5247
   1420.77820     687.3190     474.2832   1420.77820     687.3190     474.2832
   1420.76294     686.8818     473.6708   1420.76294     686.8818     473.6708
   1420.74768     686.6706     472.1984   1420.74768     686.6706     472.1984
   1420.73242     687.6310     472.5088   1420.73242     687.6310     472.5088
   1420.71716     686.5203     471.1227   1420.71716     686.5203     471.1227
   1420.70190     687.1487     470.2312   1420.70190     687.1487     470.2312
   1420.68665     686.9738     469.0127   1420.68665     686.9738     469.0127
   1420.67139     686.2065     468.4757   1420.67139     686.2065     468.4757
   1420.65613     686.3005     466.6664   1420.65613     686.3005     466.6664
   1420.64087     686.3375     466.6172   1420.64087     686.3375     466.6172
   1420.62561     686.8773     464.6017   1420.62561     686.8773     464.6017
   1420.61035     685.4916     464.3283   1420.61035     685.4916     464.3283
   1420.59509     686.0255     464.0521   1420.59509     686.0255     464.0521
   1420.57983     687.4943     463.2471   1420.57983     687.4943     463.2471
   1420.56458     687.5645     463.2026   1420.56458     687.5645     463.2026
   1420.54932     688.5815     463.6135   1420.54932     688.5815     463.6135
   1420.53406     690.0801     462.9885   1420.53406     690.0801     462.9885
   1420.51880     690.4484     462.8329   1420.51880     690.4484     462.8329
   1420.50354     690.0575     461.9799   1420.50354     690.0575     461.9799
   1420.48828     689.8569     461.0468   1420.48828     689.8569     461.0468
   1420.47302     690.1706     460.5690   1420.47302     690.1706     460.5690
   1420.45776     689.9548     459.6043   1420.45776     689.9548     459.6043
   1420.44250     688.9562     457.5923   1420.44250     688.9562     457.5923
   1420.42725     688.2401     456.0658   1420.42725     688.2401     456.0658
   1420.41199     687.4297     455.5580   1420.41199     687.4297     455.5580
   1420.39673     687.4443     455.9698   1420.39673     687.4443     455.9698
   1420.38147     688.1270     455.1716   1420.38147     688.1270     455.1716
   1420.36621     686.8660     454.2809   1420.36621     686.8660     454.2809
   1420.35095     688.2610     454.8444   1420.35095     688.2610     454.8444
   1420.33569     689.7162     454.1060   1420.33569     689.7162     454.1060
   1420.32043     690.4096     454.3586   1420.32043     690.4096     454.3586
   1420.30518     692.6255     455.2346   1420.30518     692.6255     455.2346
   1420.28992     697.5423     457.5856   1420.28992     697.5423     457.5856
   1420.27466     708.2566     462.4598   1420.27466     708.2566     462.4598
   1420.25940     738.3516     481.8443   1420.25940     738.3516     481.8443
   1420.24414     873.9827     565.1855   1420.24414     873.9827     565.1855
   1420.22888    1365.2588     867.4797   1420.22888    1365.2588     867.4797
   1420.21362    1219.8334     778.4772   1420.21362    1219.8334     778.4772
   1420.19836    1009.5640     647.2821   1420.19836    1009.5640     647.2821
   1420.18311    1015.5919     647.9948   1420.18311    1015.5919     647.9948
   1420.16785    1120.8077     710.5776   1420.16785    1120.8077     710.5776
   1420.15259    1482.7567     932.4814   1420.15259    1482.7567     932.4814
   1420.13733    1804.1152    1130.2408   1420.13733    1804.1152    1130.2408
   1420.12207    1783.6456    1118.1512   1420.12207    1783.6456    1118.1512
   1420.10681    1598.5040    1001.9616   1420.10681    1598.5040    1001.9616
   1420.09155    1541.8097     965.7182   1420.09155    1541.8097     965.7182
   1420.07629    1516.7241     949.4062   1420.07629    1516.7241     949.4062
   1420.06104    1477.1642     923.7756   1420.06104    1477.1642     923.7756
   1420.04578    1794.9452    1119.6495   1420.04578    1794.9452    1119.6495
   1420.03052    2169.1611    1345.5314   1420.03052    2169.1611    1345.5314
   1420.01526    2171.0588    1345.6564   1420.01526    2171.0588    1345.6564
   1420.00000    1899.0347    1178.5311   1420.00000    1899.0347    1178.5311
   1419.98474    1627.0099    1011.4059   1419.98474    1627.0099    1011.4059
   1419.96948    1512.2168     942.5411   1419.96948    1512.2168     942.5411
   1419.95422    1478.5815     916.2995   1419.95422    1478.5815     916.2995
   1419.93896    1501.2108     928.8694   1419.93896    1501.2108     928.8694
   1419.92371    1498.0137     925.4377   1419.92371    1498.0137     925.4377
   1419.90845    1444.3307     895.1565   1419.90845    1444.3307     895.1565
   1419.89319    1372.9921     855.5403   1419.89319    1372.9921     855.5403
   1419.87793    1346.4067     839.5143   1419.87793    1346.4067     839.5143
   1419.86267    1284.9542     798.1705   1419.86267    1284.9542     798.1705
   1419.84741    1194.9866     743.4307   1419.84741    1194.9866     743.4307
   1419.83215    1087.5889     677.4015   1419.83215    1087.5889     677.4015
   1419.81689     946.4173     592.4045   1419.81689     946.4173     592.4045
   1419.80164     862.7527     539.9898   1419.80164     862.7527     539.9898
   1419.78638     810.4772     508.5535   1419.78638     810.4772     508.5535
   1419.77112     774.8976     485.6279   1419.77112     774.8976     485.6279
   1419.75586     750.5583     471.7019   1419.75586     750.5583     471.7019
   1419.74060     731.7531     460.3330   1419.74060     731.7531     460.3330
   1419.72534     719.8126     451.3451   1419.72534     719.8126     451.3451
   1419.71008     707.0840     444.1621   1419.71008     707.0840     444.1621
   1419.69482     697.9003     438.8974   1419.69482     697.9003     438.8974
   1419.67957     692.1697     434.1182   1419.67957     692.1697     434.1182
   1419.66431     687.3440     431.1395   1419.66431     687.3440     431.1395
   1419.64905     685.0934     429.0031   1419.64905     685.0934     429.0031
   1419.63379     681.9628     426.8707   1419.63379     681.9628     426.8707
   1419.61853     682.5203     426.8282   1419.61853     682.5203     426.8282
   1419.60327     681.5978     426.5168   1419.60327     681.5978     426.5168
   1419.58801     682.1982     426.4583   1419.58801     682.1982     426.4583
   1419.57275     682.2067     425.4369   1419.57275     682.2067     425.4369
   1419.55750     682.2111     425.5560   1419.55750     682.2111     425.5560
   1419.54224     682.3528     424.7834   1419.54224     682.3528     424.7834
   1419.52698     681.5092     424.4419   1419.52698     681.5092     424.4419
   1419.51172     681.3892     424.9897   1419.51172     681.3892     424.9897
   1419.49646     682.5320     424.9471   1419.49646     682.5320     424.9471
   1419.48120     682.6173     423.9762   1419.48120     682.6173     423.9762
   1419.46594     682.2067     424.0321   1419.46594     682.2067     424.0321
   1419.45068     681.8555     423.1966   1419.45068     681.8555     423.1966
   1419.43542     681.9135     424.2885   1419.43542     681.9135     424.2885
   1419.42017     681.7760     423.4679   1419.42017     681.7760     423.4679
   1419.40491     682.3748     423.0345   1419.40491     682.3748     423.0345
   1419.38965     683.0872     422.6909   1419.38965     683.0872     422.6909
   1419.37439     683.0180     423.6814   1419.37439     683.0180     423.6814
   1419.35913     682.7929     422.8089   1419.35913     682.7929     422.8089
   1419.34387     683.2385     422.8998   1419.34387     683.2385     422.8998
   1419.32861     684.0463     422.6605   1419.32861     684.0463     422.6605
   1419.31335     685.3699     422.3827   1419.31335     685.3699     422.3827
   1419.29810     683.9467     422.3395   1419.29810     683.9467     422.3395
   1419.28284     683.8600     422.6697   1419.28284     683.8600     422.6697
   1419.26758     685.3327     422.9455   1419.26758     685.3327     422.9455
   1419.25232     685.7675     423.0251   1419.25232     685.7675     423.0251
   1419.23706     685.0273     422.9348   1419.23706     685.0273     422.9348
   1419.22180     685.5201     422.5803   1419.22180     685.5201     422.5803
   1419.20654     686.6886     423.2336   1419.20654     686.6886     423.2336
   1419.19128     687.0683     423.4427   1419.19128     687.0683     423.4427
   1419.17603     687.7679     423.2516   1419.17603     687.7679     423.2516
   1419.16077     688.5525     422.9723   1419.16077     688.5525     422.9723
   1419.14551     688.3920     422.7068   1419.14551     688.3920     422.7068
   1419.13025     689.2649     423.7153   1419.13025     689.2649     423.7153
   1419.11499     690.1932     423.3428   1419.11499     690.1932     423.3428
   1419.09973     690.3013     423.2882   1419.09973     690.3013     423.2882
   1419.08447     690.0826     423.7089   1419.08447     690.0826     423.7089
   1419.06921     690.9628     424.3460   1419.06921     690.9628     424.3460
   1419.05396     691.3752     424.4074   1419.05396     691.3752     424.4074
   1419.03870     691.9615     424.6900   1419.03870     691.9615     424.6900
   1419.02344     691.8828     424.4833   1419.02344     691.8828     424.4833
   1419.00818     693.2416     424.7239   1419.00818     693.2416     424.7239
   1418.99292     693.4210     426.0817   1418.99292     693.4210     426.0817
   1418.97766     694.9388     425.7767   1418.97766     694.9388     425.7767
   1418.96240     695.1791     425.2513   1418.96240     695.1791     425.2513
   1418.94714     696.0515     426.0099   1418.94714     696.0515     426.0099
   1418.93188     695.7283     426.1043   1418.93188     695.7283     426.1043
   1418.91663     696.5065     426.1008   1418.91663     696.5065     426.1008
   1418.90137     697.7249     426.3507   1418.90137     697.7249     426.3507
   1418.88611     698.0892     426.2257   1418.88611     698.0892     426.2257
   1418.87085     698.4800     426.0682   1418.87085     698.4800     426.0682
   1418.85559     700.3713     427.2289   1418.85559     700.3713     427.2289
   1418.84033     700.1954     427.6931   1418.84033     700.1954     427.6931
   1418.82507     700.8752     427.4815   1418.82507     700.8752     427.4815
   1418.80981     701.9814     428.4092   1418.80981     701.9814     428.4092
   1418.79456     701.8083     428.4884   1418.79456     701.8083     428.4884
   1418.77930     702.2303     429.5591   1418.77930     702.2303     429.5591
   1418.76404     705.8659     428.5459   1418.76404     705.8659     428.5459
   1418.74878     705.4913     429.0112   1418.74878     705.4913     429.0112
   1418.73352     706.0608     429.8865   1418.73352     706.0608     429.8865
   1418.71826     706.5308     429.7548   1418.71826     706.5308     429.7548
   1418.70300     707.0980     430.7751   1418.70300     707.0980     430.7751
   1418.68774     708.3853     430.9613   1418.68774     708.3853     430.9613
   1418.67249     708.1938     431.5408   1418.67249     708.1938     431.5408
   1418.65723     708.4897     431.6862   1418.65723     708.4897     431.6862
   1418.64197     709.5269     432.4004   1418.64197     709.5269     432.4004
   1418.62671     711.4696     432.3274   1418.62671     711.4696     432.3274
   1418.61145     711.8252     432.2137   1418.61145     711.8252     432.2137
   1418.59619     711.7685     433.1279   1418.59619     711.7685     433.1279
   1418.58093     713.1483     433.2713   1418.58093     713.1483     433.2713
   1418.56567     714.0581     433.9080   1418.56567     714.0581     433.9080
   1418.55042     715.3151     434.1418   1418.55042     715.3151     434.1418
   1418.53516     716.3435     435.1061   1418.53516     716.3435     435.1061
   1418.51990     717.4559     434.8477   1418.51990     717.4559     434.8477
   1418.50464     718.5261     435.5709   1418.50464     718.5261     435.5709
   1418.48938     719.2823     436.1896   1418.48938     719.2823     436.1896
   1418.47412     720.7782     436.5236   1418.47412     720.7782     436.5236
   1418.45886     720.6335     437.3750   1418.45886     720.6335     437.3750
   1418.44360     722.4784     438.0245   1418.44360     722.4784     438.0245
   1418.42834     722.5821     438.4336   1418.42834     722.5821     438.4336
   1418.41309     723.5944     438.2890   1418.41309     723.5944     438.2890
   1418.39783     724.4612     439.7110   1418.39783     724.4612     439.7110
   1418.38257     725.3110     440.4971   1418.38257     725.3110     440.4971
   1418.36731     727.5220     439.8625   1418.36731     727.5220     439.8625
   1418.35205     727.2831     440.6693   1418.35205     727.2831     440.6693
   1418.33679     728.4440     441.2520   1418.33679     728.4440     441.2520
   1418.32153     730.4457     442.2336   1418.32153     730.4457     442.2336
   1418.30627     730.5302     442.4177   1418.30627     730.5302     442.4177
   1418.29102     731.8560     442.8976   1418.29102     731.8560     442.8976
   1418.27576     733.7284     443.5272   1418.27576     733.7284     443.5272
   1418.26050     733.1860     443.2890   1418.26050     733.1860     443.2890
   1418.24524     734.5150     444.2105   1418.24524     734.5150     444.2105
   1418.22998     736.5456     445.5665   1418.22998     736.5456     445.5665
   1418.21472     736.9881     444.5425   1418.21472     736.9881     444.5425
   1418.19946     739.0698     445.7404   1418.19946     739.0698     445.7404
   1418.18420     739.6216     446.1205   1418.18420     739.6216     446.1205
   1418.16895     740.4241     447.5338   1418.16895     740.4241     447.5338
   1418.15369     741.0041     448.2623   1418.15369     741.0041     448.2623
   1418.13843     742.0345     448.2963   1418.13843     742.0345     448.2963
   1418.12317     743.2998     448.3750   1418.12317     743.2998     448.3750
   1418.10791     745.0728     449.4068   1418.10791     745.0728     449.4068
   1418.09265     745.0151     450.0000   1418.09265     745.0151     450.0000
   1418.07739     747.0005     450.3818   1418.07739     747.0005     450.3818
   1418.06213     747.9033     451.8832   1418.06213     747.9033     451.8832
   1418.04688     749.5405     451.6570   1418.04688     749.5405     451.6570
   1418.03162     751.3405     453.1169   1418.03162     751.3405     453.1169
   1418.01636     751.5253     452.7379   1418.01636     751.5253     452.7379
   1418.00110     752.7112     453.6223   1418.00110     752.7112     453.6223
   1417.98584     754.3949     454.0970   1417.98584     754.3949     454.0970
   1417.97058     754.8438     455.0352   1417.97058     754.8438     455.0352
   1417.95532     755.9213     454.8526   1417.95532     755.9213     454.8526
   1417.94006     757.0928     456.5544   1417.94006     757.0928     456.5544
   1417.92480     759.7064     456.8019   1417.92480     759.7064     456.8019
   1417.90955     760.3743     457.6520   1417.90955     760.3743     457.6520
   1417.89429     761.9223     457.9139   1417.89429     761.9223     457.9139
   1417.87903     762.6816     458.1227   1417.87903     762.6816     458.1227
   1417.86377     763.9823     459.6710   1417.86377     763.9823     459.6710
   1417.84851     764.0947     460.0710   1417.84851     764.0947     460.0710
   1417.83325     765.3674     460.4461   1417.83325     765.3674     460.4461
   1417.81799     767.5790     460.6885   1417.81799     767.5790     460.6885
   1417.80273     767.9213     461.4108   1417.80273     767.9213     461.4108
   1417.78748     770.1456     461.9246   1417.78748     770.1456     461.9246
   1417.77222     771.3212     462.9981   1417.77222     771.3212     462.9981
   1417.75696     770.6684     463.4348   1417.75696     770.6684     463.4348
   1417.74170     772.4659     463.8506   1417.74170     772.4659     463.8506
   1417.72644     775.8622     464.7097   1417.72644     775.8622     464.7097
   1417.71118     776.0621     464.9765   1417.71118     776.0621     464.9765
   1417.69592     777.1563     465.6230   1417.69592     777.1563     465.6230
   1417.68066     779.4266     466.0622   1417.68066     779.4266     466.0622
   1417.66541     780.2336     467.5438   1417.66541     780.2336     467.5438
   1417.65015     781.9007     467.6024   1417.65015     781.9007     467.6024
   1417.63489     781.8745     469.0003   1417.63489     781.8745     469.0003
   1417.61963     783.9663     468.6239   1417.61963     783.9663     468.6239
   1417.60437     784.2968     470.1291   1417.60437     784.2968     470.1291
   1417.58911     785.3366     470.5900   1417.58911     785.3366     470.5900
   1417.57385     787.1518     471.3301   1417.57385     787.1518     471.3301
   1417.55859     788.6233     471.8499   1417.55859     788.6233     471.8499
   1417.54333     789.9209     471.3876   1417.54333     789.9209     471.3876
   1417.52808     790.8864     473.9865   1417.52808     790.8864     473.9865
   1417.51282     791.8684     473.7047   1417.51282     791.8684     473.7047
   1417.49756     792.8351     474.6004   1417.49756     792.8351     474.6004
   1417.48230     795.0040     474.7982   1417.48230     795.0040     474.7982
   1417.46704     795.0942     474.6323   1417.46704     795.0942     474.6323
   1417.45178     797.1340     475.8511   1417.45178     797.1340     475.8511
   1417.43652     797.5222     476.2438   1417.43652     797.5222     476.2438
   1417.42126     799.0544     477.0816   1417.42126     799.0544     477.0816
   1417.40601     800.5025     477.8823   1417.40601     800.5025     477.8823
   1417.39075     801.2878     478.0783   1417.39075     801.2878     478.0783
   1417.37549     802.4693     479.2519   1417.37549     802.4693     479.2519
   1417.36023     804.5582     480.0177   1417.36023     804.5582     480.0177
   1417.34497     805.2381     479.8882   1417.34497     805.2381     479.8882
   1417.32971     806.2241     480.8018   1417.32971     806.2241     480.8018
   1417.31445     807.1733     481.3630   1417.31445     807.1733     481.3630
   1417.29919     807.9833     480.6205   1417.29919     807.9833     480.6205
   1417.28394     809.5969     481.6615   1417.28394     809.5969     481.6615
   1417.26868     810.8191     482.2147   1417.26868     810.8191     482.2147
   1417.25342     811.8719     483.4305   1417.25342     811.8719     483.4305
   1417.23816     812.4214     483.2725   1417.23816     812.4214     483.2725
   1417.22290     816.8815     484.9201   1417.22290     816.8815     484.9201
   1417.20764     814.9118     485.1135   1417.20764     814.9118     485.1135
   1417.19238     817.1538     485.6311   1417.19238     817.1538     485.6311
   1417.17712     816.7561     485.5022   1417.17712     816.7561     485.5022
   1417.16187     817.2521     486.7728   1417.16187     817.2521     486.7728
   1417.14661     819.0569     486.8797   1417.14661     819.0569     486.8797
   1417.13135     820.1303     487.0941   1417.13135     820.1303     487.0941
   1417.11609     821.6966     487.6340   1417.11609     821.6966     487.6340
   1417.10083     823.7615     488.7073   1417.10083     823.7615     488.7073
   1417.08557     824.4571     489.6354   1417.08557     824.4571     489.6354
   1417.07031     824.3617     489.9834   1417.07031     824.3617     489.9834
   1417.05505     826.3914     489.3892   1417.05505     826.3914     489.3892
   1417.03979     825.8452     490.6971   1417.03979     825.8452     490.6971
   1417.02454     826.9081     490.7271   1417.02454     826.9081     490.7271
   1417.00928     829.1324     491.6507   1417.00928     829.1324     491.6507
   1416.99402     828.2184     491.6691   1416.99402     828.2184     491.6691
   1416.97876     830.3390     492.2180   1416.97876     830.3390     492.2180
   1416.96350     831.0271     492.6492   1416.96350     831.0271     492.6492
   1416.94824     831.5161     492.9931   1416.94824     831.5161     492.9931
   1416.93298     832.0076     492.6594   1416.93298     832.0076     492.6594
   1416.91772     831.9274     493.3095   1416.91772     831.9274     493.3095
   1416.90247     834.8229     493.5660   1416.90247     834.8229     493.5660
   1416.88721     833.8760     494.2151   1416.88721     833.8760     494.2151
   1416.87195     836.3420     494.5149   1416.87195     836.3420     494.5149
   1416.85669     836.8489     495.4041   1416.85669     836.8489     495.4041
   1416.84143     837.2620     494.7040   1416.84143     837.2620     494.7040
   1416.82617     837.8925     494.4968   1416.82617     837.8925     494.4968
   1416.81091     837.2095     495.7000   1416.81091     837.2095     495.7000
   1416.79565     839.4269     495.2076   1416.79565     839.4269     495.2076
   1416.78040     838.7658     496.2098   1416.78040     838.7658     496.2098
   1416.76514     839.0701     495.3247   1416.76514     839.0701     495.3247
   1416.74988     838.9408     495.7856   1416.74988     838.9408     495.7856
   1416.73462     841.6978     496.1089   1416.73462     841.6978     496.1089
   1416.71936     839.9490     497.1422   1416.71936     839.9490     497.1422
   1416.70410     841.4118     497.2961   1416.70410     841.4118     497.2961
   1416.68884     842.7618     497.7120   1416.68884     842.7618     497.7120
   1416.67358     841.8867     497.8329   1416.67358     841.8867     497.8329
   1416.65833     844.2759     496.3004   1416.65833     844.2759     496.3004
   1416.64307     843.5775     498.1407   1416.64307     843.5775     498.1407
   1416.62781     844.1713     497.8109   1416.62781     844.1713     497.8109
   1416.61255     844.7469     497.3412   1416.61255     844.7469     497.3412
   1416.59729     844.7894     498.4979   1416.59729     844.7894     498.4979
   1416.58203     843.9783     497.4972   1416.58203     843.9783     497.4972
   1416.56677     845.0494     498.9200   1416.56677     845.0494     498.9200
   1416.55151     846.1190     497.9936   1416.55151     846.1190     497.9936
   1416.53625     844.5806     498.4919   1416.53625     844.5806     498.4919
   1416.52100     844.9987     497.7844   1416.52100     844.9987     497.7844
   1416.50574     846.5094     497.7345   1416.50574     846.5094     497.7345
   1416.49048     845.4557     498.3865   1416.49048     845.4557     498.3865
   1416.47522     844.7220     498.2313   1416.47522     844.7220     498.2313
   1416.45996     845.4276     497.5316   1416.45996     845.4276     497.5316
   1416.44470     846.3403     498.3026   1416.44470     846.3403     498.3026
   1416.42944     845.2429     498.3402   1416.42944     845.2429     498.3402
   1416.41418     846.1736     497.3563   1416.41418     846.1736     497.3563
   1416.39893     846.0358     498.1805   1416.39893     846.0358     498.1805
   1416.38367     846.5515     498.0811   1416.38367     846.5515     498.0811
   1416.36841     845.8270     497.5874   1416.36841     845.8270     497.5874
   1416.35315     844.9103     498.1804   1416.35315     844.9103     498.1804
   1416.33789     845.4232     498.2458   1416.33789     845.4232     498.2458
   1416.32263     845.1423     497.4460   1416.32263     845.1423     497.4460
   1416.30737     845.0206     497.4945   1416.30737     845.0206     497.4945
   1416.29211     844.1552     497.6483   1416.29211     844.1552     497.6483
   1416.27686     844.4984     497.8225   1416.27686     844.4984     497.8225
   1416.26160     844.0154     497.3073   1416.26160     844.0154     497.3073
   1416.24634     844.0142     495.9079   1416.24634     844.0142     495.9079
   1416.23108     843.9630     497.0089   1416.23108     843.9630     497.0089
   1416.21582     843.8240     496.8282   1416.21582     843.8240     496.8282
   1416.20056     842.4307     495.5671   1416.20056     842.4307     495.5671
   1416.18530     842.6559     495.8288   1416.18530     842.6559     495.8288
   1416.17004     842.2023     496.8355   1416.17004     842.2023     496.8355
   1416.15479     841.8965     496.2083   1416.15479     841.8965     496.2083
   1416.13953     841.7790     495.2538   1416.13953     841.7790     495.2538
   1416.12427     842.5335     495.2330   1416.12427     842.5335     495.2330
   1416.10901     841.3365     495.7199   1416.10901     841.3365     495.7199
   1416.09375     841.4420     495.1932   1416.09375     841.4420     495.1932
   1416.07849     840.8044     494.2100   1416.07849     840.8044     494.2100
   1416.06323     839.1478     494.0758   1416.06323     839.1478     494.0758
   1416.04797     838.5693     494.3523   1416.04797     838.5693     494.3523
   1416.03271     838.9615     494.4625   1416.03271     838.9615     494.4625
   1416.01746     838.8176     493.6569   1416.01746     838.8176     493.6569
   1416.00220     837.7949     493.3761   1416.00220     837.7949     493.3761
   1415.98694     837.5561     493.6478   1415.98694     837.5561     493.6478
   1415.97168     836.2123     494.0808   1415.97168     836.2123     494.0808
   1415.95642     835.4145     493.2728   1415.95642     835.4145     493.2728
   1415.94116     836.3125     492.8502   1415.94116     836.3125     492.8502
   1415.92590     835.4680     492.8009   1415.92590     835.4680     492.8009
   1415.91064     834.5887     492.2645   1415.91064     834.5887     492.2645
   1415.89539     831.8797     491.9521   1415.89539     831.8797     491.9521
   1415.88013     831.4911     492.1034   1415.88013     831.4911     492.1034
   1415.86487     831.6758     491.8700   1415.86487     831.6758     491.8700
   1415.84961     831.0914     490.9981   1415.84961     831.0914     490.9981
   1415.83435     829.8047     491.2720   1415.83435     829.8047     491.2720
   1415.81909     829.6205     490.5859   1415.81909     829.6205     490.5859
   1415.80383     830.6589     489.5391   1415.80383     830.6589     489.5391
   1415.78857     829.1813     491.0982   1415.78857     829.1813     491.0982
   1415.77332     828.2379     490.6545   1415.77332     828.2379     490.6545
   1415.75806     827.3577     490.5109   1415.75806     827.3577     490.5109
   1415.74280     825.2275     489.4702   1415.74280     825.2275     489.4702
   1415.72754     825.7651     490.1084   1415.72754     825.7651     490.1084
   1415.71228     824.5444     489.3715   1415.71228     824.5444     489.3715
   1415.69702     824.1390     488.3429   1415.69702     824.1390     488.3429
   1415.68176     821.4670     489.3823   1415.68176     821.4670     489.3823
   1415.66650     820.4847     488.6245   1415.66650     820.4847     488.6245
   1415.65125     821.2083     486.9710   1415.65125     821.2083     486.9710
   1415.63599     818.2021     488.3368   1415.63599     818.2021     488.3368
   1415.62073     819.0071     486.7037   1415.62073     819.0071     486.7037
   1415.60547     817.3261     487.8259   1415.60547     817.3261     487.8259
   1415.59021     817.0767     486.6063   1415.59021     817.0767     486.6063
   1415.57495     815.6956     486.4263   1415.57495     815.6956     486.4263
   1415.55969     814.4381     486.1103   1415.55969     814.4381     486.1103
   1415.54443     813.3329     486.8634   1415.54443     813.3329     486.8634
   1415.52917     813.5208     485.5370   1415.52917     813.5208     485.5370
   1415.51392     810.9946     485.1854   1415.51392     810.9946     485.1854
   1415.49866     808.6922     485.1989   1415.49866     808.6922     485.1989
   1415.48340     809.3744     485.0206   1415.48340     809.3744     485.0206
   1415.46814     807.8120     484.6269   1415.46814     807.8120     484.6269
   1415.45288     808.4402     484.9620   1415.45288     808.4402     484.9620
   1415.43762     806.5000     484.3746   1415.43762     806.5000     484.3746
   1415.42236     804.1838     484.2833   1415.42236     804.1838     484.2833
   1415.40710     803.1932     483.3169   1415.40710     803.1932     483.3169
   1415.39185     802.7364     483.2232   1415.39185     802.7364     483.2232
   1415.37659     803.1637     482.0755   1415.37659     803.1637     482.0755
   1415.36133     800.5855     482.5302   1415.36133     800.5855     482.5302
   1415.34607     798.2715     481.8671   1415.34607     798.2715     481.8671
   1415.33081     796.7390     481.8894   1415.33081     796.7390     481.8894
   1415.31555     795.9014     482.2584   1415.31555     795.9014     482.2584
   1415.30029     796.0917     480.8238   1415.30029     796.0917     480.8238
   1415.28503     793.1398     480.1852   1415.28503     793.1398     480.1852
   1415.26978     791.4583     480.4807   1415.26978     791.4583     480.4807
   1415.25452     790.5234     480.2259   1415.25452     790.5234     480.2259
   1415.23926     789.8561     479.2656   1415.23926     789.8561     479.2656
   1415.22400     787.4716     479.3454   1415.22400     787.4716     479.3454
   1415.20874     786.0703     478.6975   1415.20874     786.0703     478.6975
   1415.19348     785.1680     477.7349   1415.19348     785.1680     477.7349
   1415.17822     785.3657     477.2070   1415.17822     785.3657     477.2070
   1415.16296     781.9573     478.2861   1415.16296     781.9573     478.2861
   1415.14771     779.4256     477.0746   1415.14771     779.4256     477.0746
   1415.13245     779.6190     476.1932   1415.13245     779.6190     476.1932
   1415.11719     777.5430     476.0376   1415.11719     777.5430     476.0376
   1415.10193     773.8756     475.8862   1415.10193     773.8756     475.8862
   1415.08667     772.9145     474.7521   1415.08667     772.9145     474.7521
   1415.07141     774.2187     475.3741   1415.07141     774.2187     475.3741
   1415.05615     770.0982     474.2873   1415.05615     770.0982     474.2873
   1415.04089     769.3604     474.0840   1415.04089     769.3604     474.0840
   1415.02563     767.2496     472.9580   1415.02563     767.2496     472.9580
   1415.01038     764.4741     472.9830   1415.01038     764.4741     472.9830
   1414.99512     762.8103     472.6059   1414.99512     762.8103     472.6059
   1414.97986     762.0578     471.7032   1414.97986     762.0578     471.7032
   1414.96460     759.8094     471.3412   1414.96460     759.8094     471.3412
   1414.94934     758.5033     469.9464   1414.94934     758.5033     469.9464
   1414.93408     756.1213     469.6642   1414.93408     756.1213     469.6642
   1414.91882     753.6296     469.4425   1414.91882     753.6296     469.4425
   1414.90356     752.6588     468.3473   1414.90356     752.6588     468.3473
   1414.88831     750.9965     468.1463   1414.88831     750.9965     468.1463
   1414.87305     749.7631     466.8567   1414.87305     749.7631     466.8567
   1414.85779     746.8054     466.6474   1414.85779     746.8054     466.6474
   1414.84253     744.6133     466.4790   1414.84253     744.6133     466.4790
   1414.82727     742.9903     465.7540   1414.82727     742.9903     465.7540
   1414.81201     739.5176     465.2971   1414.81201     739.5176     465.2971
   1414.79675     739.0391     464.3985   1414.79675     739.0391     464.3985
   1414.78149     736.0660     463.8236   1414.78149     736.0660     463.8236
   1414.76624     735.0658     463.1571   1414.76624     735.0658     463.1571
   1414.75098     732.2038     462.9917   1414.75098     732.2038     462.9917
   1414.73572     729.5043     461.4215   1414.73572     729.5043     461.4215
   1414.72046     726.8527     460.3837   1414.72046     726.8527     460.3837
   1414.70520     725.9294     460.4932   1414.70520     725.9294     460.4932
   1414.68994     722.3115     459.6034   1414.68994     722.3115     459.6034
   1414.67468     720.5806     458.7407   1414.67468     720.5806     458.7407
   1414.65942     717.7255     457.6967   1414.65942     717.7255     457.6967
   1414.64417     716.5525     457.3618   1414.64417     716.5525     457.3618
   1414.62891     713.2158     455.6349   1414.62891     713.2158     455.6349
   1414.61365     711.5500     454.8130   1414.61365     711.5500     454.8130
   1414.59839     708.9823     454.5537   1414.59839     708.9823     454.5537
   1414.58313     706.7636     453.4656   1414.58313     706.7636     453.4656
   1414.56787     704.3231     452.7017   1414.56787     704.3231     452.7017
   1414.55261     701.9772     451.5873   1414.55261     701.9772     451.5873
   1414.53735     699.4785     451.1741   1414.53735     699.4785     451.1741
   1414.52209     696.4972     449.5769   1414.52209     696.4972     449.5769
   1414.50684     695.1310     449.4550   1414.50684     695.1310     449.4550
   1414.49158     692.1557     447.9289   1414.49158     692.1557     447.9289
   1414.47632     689.1969     446.8000   1414.47632     689.1969     446.8000
   1414.46106     686.6703     446.1507   1414.46106     686.6703     446.1507
   1414.44580     685.2692     445.0193   1414.44580     685.2692     445.0193
   1414.43054     681.6419     444.3004   1414.43054     681.6419     444.3004
   1414.41528     679.3762     443.1057   1414.41528     679.3762     443.1057
   1414.40002     676.3049     442.0742   1414.40002     676.3049     442.0742
   1414.38477     673.0187     441.0178   1414.38477     673.0187     441.0178
   1414.36951     670.9373     440.2771   1414.36951     670.9373     440.2771
   1414.35425     668.3636     438.6188   1414.35425     668.3636     438.6188
   1414.33899     666.2683     437.9578   1414.33899     666.2683     437.9578
   1414.32373     661.9300     437.1163   1414.32373     661.9300     437.1163
   1414.30847     660.6152     435.7670   1414.30847     660.6152     435.7670
   1414.29321     656.2491     434.8044   1414.29321     656.2491     434.8044
   1414.27795     654.5608     433.1419   1414.27795     654.5608     433.1419
   1414.26270     651.1859     433.2692   1414.26270     651.1859     433.2692
   1414.24744     648.4836     431.0303   1414.24744     648.4836     431.0303
   1414.23218     645.3219     430.2235   1414.23218     645.3219     430.2235
   1414.21692     643.1943     428.9881   1414.21692     643.1943     428.9881
   1414.20166     639.8502     427.8032   1414.20166     639.8502     427.8032
   1414.18640     636.2568     427.1187   1414.18640     636.2568     427.1187
   1414.17114     634.7415     425.6519   1414.17114     634.7415     425.6519
   1414.15588     631.5251     424.5345   1414.15588     631.5251     424.5345
   1414.14062     627.5095     422.4147   1414.14062     627.5095     422.4147
   1414.12537     624.6128     422.2142   1414.12537     624.6128     422.2142
   1414.11011     621.6852     420.6692   1414.11011     621.6852     420.6692
   1414.09485     618.8204     419.9258   1414.09485     618.8204     419.9258
   1414.07959     616.2003     417.9370   1414.07959     616.2003     417.9370
   1414.06433     613.2614     417.0069   1414.06433     613.2614     417.0069
   1414.04907     610.5912     416.1844   1414.04907     610.5912     416.1844
   1414.03381     606.5805     413.3402   1414.03381     606.5805     413.3402
   1414.01855     605.4535     412.5415   1414.01855     605.4535     412.5415
   1414.00330     622.0903     417.5212   1414.00330     622.0903     417.5212
   1413.98804     598.7460     410.0815   1413.98804     598.7460     410.0815
   1413.97278     594.1876     408.4411   1413.97278     594.1876     408.4411
   1413.95752     591.4398     407.1841   1413.95752     591.4398     407.1841
   1413.94226     587.9615     406.2796   1413.94226     587.9615     406.2796
   1413.92700     584.2043     404.3511   1413.92700     584.2043     404.3511
   1413.91174     581.6512     403.2896   1413.91174     581.6512     403.2896
   1413.89648     579.2656     402.0368   1413.89648     579.2656     402.0368
   1413.88123     575.0623     400.6210   1413.88123     575.0623     400.6210
   1413.86597     571.7853     398.6944   1413.86597     571.7853     398.6944
   1413.85071     568.0184     397.4749   1413.85071     568.0184     397.4749
   1413.83545     565.5476     395.8351   1413.83545     565.5476     395.8351
   1413.82019     562.8611     394.6586   1413.82019     562.8611     394.6586
   1413.80493     559.2346     392.6480   1413.80493     559.2346     392.6480
   1413.78967     556.4028     391.7423   1413.78967     556.4028     391.7423
   1413.77441     553.2173     389.4977   1413.77441     553.2173     389.4977
   1413.75916     550.2156     389.2028   1413.75916     550.2156     389.2028
   1413.74390     546.5575     387.1589   1413.74390     546.5575     387.1589
   1413.72864     543.5084     385.6252   1413.72864     543.5084     385.6252
   1413.71338     540.4196     384.1176   1413.71338     540.4196     384.1176
   1413.69812     537.3007     383.1621   1413.69812     537.3007     383.1621
   1413.68286     533.9648     380.9312   1413.68286     533.9648     380.9312
   1413.66760     530.8273     378.7987   1413.66760     530.8273     378.7987
   1413.65234     527.4155     377.7922   1413.65234     527.4155     377.7922
   1413.63708     524.4939     376.3450   1413.63708     524.4939     376.3450
   1413.62183     522.0323     375.0318   1413.62183     522.0323     375.0318
   1413.60657     518.2096     373.6736   1413.60657     518.2096     373.6736
   1413.59131     515.1578     371.6621   1413.59131     515.1578     371.6621
   1413.57605     511.5957     370.2812   1413.57605     511.5957     370.2812
   1413.56079     508.4456     368.4807   1413.56079     508.4456     368.4807
   1413.54553     506.3896     367.6780   1413.54553     506.3896     367.6780
   1413.53027     502.0613     365.6735   1413.53027     502.0613     365.6735
   1413.51501     499.9332     363.8418   1413.51501     499.9332     363.8418
   1413.49976     496.2290     362.6932   1413.49976     496.2290     362.6932
   1413.48450     493.8441     361.2669   1413.48450     493.8441     361.2669
   1413.46924     490.6163     359.6296   1413.46924     490.6163     359.6296
   1413.45398     487.7231     358.0305   1413.45398     487.7231     358.0305
   1413.43872     484.4901     355.6769   1413.43872     484.4901     355.6769
   1413.42346     481.4520     355.0036   1413.42346     481.4520     355.0036
   1413.40820     478.2393     353.0558   1413.40820     478.2393     353.0558
   1413.39294     475.4303     351.4449   1413.39294     475.4303     351.4449
   1413.37769     471.9500     350.0146   1413.37769     471.9500     350.0146
   1413.36243     469.7271     348.0517   1413.36243     469.7271     348.0517
   1413.34717     467.1804     346.9980   1413.34717     467.1804     346.9980
   1413.33191     464.4292     345.4528   1413.33191     464.4292     345.4528
   1413.31665     461.0364     343.5112   1413.31665     461.0364     343.5112
   1413.30139     458.5244     342.3655   1413.30139     458.5244     342.3655
   1413.28613     455.6957     340.9268   1413.28613     455.6957     340.9268
   1413.27087     452.6553     339.6417   1413.27087     452.6553     339.6417
   1413.25562     450.3263     338.2433   1413.25562     450.3263     338.2433
   1413.24036     447.9054     336.2452   1413.24036     447.9054     336.2452
   1413.22510     444.7679     334.6312   1413.22510     444.7679     334.6312
   1413.20984     442.3386     333.4356   1413.20984     442.3386     333.4356
   1413.19458     438.8606     331.9984   1413.19458     438.8606     331.9984
   1413.17932     436.4539     330.3774   1413.17932     436.4539     330.3774
   1413.16406     433.7019     329.3799   1413.16406     433.7019     329.3799
   1413.14880     432.3163     327.6097   1413.14880     432.3163     327.6097
   1413.13354     429.1761     326.2176   1413.13354     429.1761     326.2176
   1413.11829     427.8505     324.7844   1413.11829     427.8505     324.7844
   1413.10303     424.9502     324.0307   1413.10303     424.9502     324.0307
   1413.08777     422.1494     322.2013   1413.08777     422.1494     322.2013
   1413.07251     420.1563     320.9182   1413.07251     420.1563     320.9182
   1413.05725     417.4989     319.1352   1413.05725     417.4989     319.1352
   1413.04199     415.4609     318.3432   1413.04199     415.4609     318.3432
   1413.02673     413.2126     317.3206   1413.02673     413.2126     317.3206
   1413.01147     411.6270     315.7955   1413.01147     411.6270     315.7955
   1412.99622     408.2816     314.4716   1412.99622     408.2816     314.4716
   1412.98096     406.9011     313.1815   1412.98096     406.9011     313.1815
   1412.96570     404.5588     312.0859   1412.96570     404.5588     312.0859
   1412.95044     401.8438     310.4587   1412.95044     401.8438     310.4587
   1412.93518     400.7623     309.5678   1412.93518     400.7623     309.5678
   1412.91992     399.3073     308.3276   1412.91992     399.3073     308.3276
   1412.90466     397.0104     306.7380   1412.90466     397.0104     306.7380
   1412.88940     395.2051     305.7661   1412.88940     395.2051     305.7661
   1412.87415     393.1463     305.1658   1412.87415     393.1463     305.1658
   1412.85889     391.2173     304.0889   1412.85889     391.2173     304.0889
   1412.84363     389.8868     302.6778   1412.84363     389.8868     302.6778
   1412.82837     388.7646     301.9228   1412.82837     388.7646     301.9228
   1412.81311     386.4459     301.1228   1412.81311     386.4459     301.1228
   1412.79785     385.1019     300.2778   1412.79785     385.1019     300.2778
   1412.78259     383.1597     298.8937   1412.78259     383.1597     298.8937
   1412.76733     382.6422     297.7922   1412.76733     382.6422     297.7922
   1412.75208     380.9170     297.1848   1412.75208     380.9170     297.1848
   1412.73682     379.8886     296.9439   1412.73682     379.8886     296.9439
   1412.72156     378.5138     295.6467   1412.72156     378.5138     295.6467
   1412.70630     377.3307     294.7322   1412.70630     377.3307     294.7322
   1412.69104     375.8658     294.1694   1412.69104     375.8658     294.1694
   1412.67578     375.2730     293.3089   1412.67578     375.2730     293.3089
   1412.66052     373.4402     292.5931   1412.66052     373.4402     292.5931
   1412.64526     372.6953     292.2064   1412.64526     372.6953     292.2064
   1412.63000     371.5972     291.2902   1412.63000     371.5972     291.2902
   1412.61475     370.4624     290.3630   1412.61475     370.4624     290.3630
   1412.59949     370.0556     289.9598   1412.59949     370.0556     289.9598
   1412.58423     368.5324     289.4837   1412.58423     368.5324     289.4837
   1412.56897     368.2855     289.1246   1412.56897     368.2855     289.1246
   1412.55371     367.6146     288.3352   1412.55371     367.6146     288.3352
   1412.53845     366.7488     288.0002   1412.53845     366.7488     288.0002
   1412.52319     365.8397     287.5317   1412.52319     365.8397     287.5317
   1412.50793     365.5850     287.4954   1412.50793     365.5850     287.4954
   1412.49268     364.5659     286.6256   1412.49268     364.5659     286.6256
   1412.47742     364.5728     286.8661   1412.47742     364.5728     286.8661
   1412.46216     364.3364     286.3398   1412.46216     364.3364     286.3398
   1412.44690     363.4479     286.5689   1412.44690     363.4479     286.5689
   1412.43164     364.3996     285.8090   1412.43164     364.3996     285.8090
   1412.41638     363.7267     286.1372   1412.41638     363.7267     286.1372
   1412.40112     363.8479     285.6704   1412.40112     363.8479     285.6704
   1412.38586     364.0434     286.3659   1412.38586     364.0434     286.3659
   1412.37061     363.7113     285.8481   1412.37061     363.7113     285.8481
   1412.35535     363.2670     285.8461   1412.35535     363.2670     285.8461
   1412.34009     363.3951     285.6734   1412.34009     363.3951     285.6734
   1412.32483     363.7640     285.8613   1412.32483     363.7640     285.8613
   1412.30957     363.5968     285.8776   1412.30957     363.5968     285.8776
   1412.29431     363.7907     285.9982   1412.29431     363.7907     285.9982
   1412.27905     364.3793     286.5019   1412.27905     364.3793     286.5019
   1412.26379     364.9197     286.6978   1412.26379     364.9197     286.6978
   1412.24854     364.7845     286.7839   1412.24854     364.7845     286.7839
   1412.23328     365.1477     287.1592   1412.23328     365.1477     287.1592
   1412.21802     365.5845     287.1566   1412.21802     365.5845     287.1566
   1412.20276     366.5639     288.3056   1412.20276     366.5639     288.3056