#     FILENAME=!Skynet_57528_lach-hhg-136_20449_20960.cyb.fits
#     BASENAME=Skynet_57528_lach-hhg-136_20449_20960
#     SRC_NAME=lach-hhg-136
#     OBSERVER=hhgmadison16_9500
#     DATE_OBS=2016-05-20T17:09:31.620
#        OBSID=20449
#      SCANNUM=20960
#          MJD=57528.7160
#          UTC=61861
#     SCANTYPE=track
#     DATAMODE=HIRES
#     TUNEFREQ=1420.0000
# Actual_FREQ1=1420.0000
# Actual_FREQ2=1420.0000
#    LO1Tuning=6870.000
#     RFFILTER=1355_1435
#        OBSBW=-15.6250
#        NCHAN=1024 
#        FOCUS=37.0489
#           RA=02:39:19.20
#          DEC=60:06:14.07
#      RA(hrs)=2.655300
#     DEC(deg)=60.103900
#    AZIM(deg)=339.552
#    ELEV(deg)=65.890
#     IFattens=11.00, 9.00
#      WARNING=None
#    TCAL_XL1=7.9635
#    TCAL_YR1=9.1340
#    TCAL_XL2=7.9635
#    TCAL_YR2=9.1340
#     TRX_XL1=11.7060
#     TRX_YR1=11.7060
#     TRX_XL2=11.7060
#     TRX_YR2=11.7060
#        TAVE=1.0000
#Freq1(MHz)          XL1          YR1  Freq2(MHz)          XL2          YR2 

   1427.81250     386.6639     247.4332   1427.81250     386.6639     247.4332
   1427.79724     386.4468     248.0417   1427.79724     386.4468     248.0417
   1427.78198     387.7219     249.0334   1427.78198     387.7219     249.0334
   1427.76672     388.3368     250.3182   1427.76672     388.3368     250.3182
   1427.75146     389.2168     251.4023   1427.75146     389.2168     251.4023
   1427.73621     390.5633     252.6093   1427.73621     390.5633     252.6093
   1427.72095     390.8152     253.3238   1427.72095     390.8152     253.3238
   1427.70569     391.8926     254.1776   1427.70569     391.8926     254.1776
   1427.69043     392.5210     255.4992   1427.69043     392.5210     255.4992
   1427.67517     394.0570     256.9380   1427.67517     394.0570     256.9380
   1427.65991     395.3808     258.1216   1427.65991     395.3808     258.1216
   1427.64465     396.7350     259.1176   1427.64465     396.7350     259.1176
   1427.62939     397.8897     260.5766   1427.62939     397.8897     260.5766
   1427.61414     399.6375     261.7219   1427.61414     399.6375     261.7219
   1427.59888     400.9032     263.4427   1427.59888     400.9032     263.4427
   1427.58362     402.3228     264.9579   1427.58362     402.3228     264.9579
   1427.56836     403.5849     266.1395   1427.56836     403.5849     266.1395
   1427.55310     405.8856     267.5973   1427.55310     405.8856     267.5973
   1427.53784     407.2061     268.7722   1427.53784     407.2061     268.7722
   1427.52258     408.6526     270.8931   1427.52258     408.6526     270.8931
   1427.50732     410.5070     272.3173   1427.50732     410.5070     272.3173
   1427.49207     412.5370     274.1110   1427.49207     412.5370     274.1110
   1427.47681     413.9935     275.5124   1427.47681     413.9935     275.5124
   1427.46155     416.0544     277.2273   1427.46155     416.0544     277.2273
   1427.44629     417.3792     278.1973   1427.44629     417.3792     278.1973
   1427.43103     419.4981     280.1401   1427.43103     419.4981     280.1401
   1427.41577     421.6701     282.6641   1427.41577     421.6701     282.6641
   1427.40051     424.2321     283.5414   1427.40051     424.2321     283.5414
   1427.38525     425.9927     285.2892   1427.38525     425.9927     285.2892
   1427.37000     427.7037     287.2227   1427.37000     427.7037     287.2227
   1427.35474     430.4724     288.8413   1427.35474     430.4724     288.8413
   1427.33948     432.5658     290.2676   1427.33948     432.5658     290.2676
   1427.32422     434.6038     292.5770   1427.32422     434.6038     292.5770
   1427.30896     436.7224     294.3261   1427.30896     436.7224     294.3261
   1427.29370     438.2960     296.1688   1427.29370     438.2960     296.1688
   1427.27844     441.8058     298.1187   1427.27844     441.8058     298.1187
   1427.26318     444.5862     299.9420   1427.26318     444.5862     299.9420
   1427.24792     446.2160     301.7769   1427.24792     446.2160     301.7769
   1427.23267     449.6877     304.1765   1427.23267     449.6877     304.1765
   1427.21741     451.9870     305.4103   1427.21741     451.9870     305.4103
   1427.20215     454.5699     307.9445   1427.20215     454.5699     307.9445
   1427.18689     457.1549     309.5910   1427.18689     457.1549     309.5910
   1427.17163     459.9247     311.3573   1427.17163     459.9247     311.3573
   1427.15637     462.5093     313.5887   1427.15637     462.5093     313.5887
   1427.14111     465.3834     315.4935   1427.14111     465.3834     315.4935
   1427.12585     467.7458     317.8111   1427.12585     467.7458     317.8111
   1427.11060     470.6500     319.3574   1427.11060     470.6500     319.3574
   1427.09534     473.1464     321.9436   1427.09534     473.1464     321.9436
   1427.08008     476.7898     323.5901   1427.08008     476.7898     323.5901
   1427.06482     478.8754     325.5797   1427.06482     478.8754     325.5797
   1427.04956     482.7743     327.8727   1427.04956     482.7743     327.8727
   1427.03430     484.8705     329.3931   1427.03430     484.8705     329.3931
   1427.01904     488.0032     331.6721   1427.01904     488.0032     331.6721
   1427.00378     491.2223     333.4039   1427.00378     491.2223     333.4039
   1426.98853     493.9638     335.2582   1426.98853     493.9638     335.2582
   1426.97327     498.1340     337.4805   1426.97327     498.1340     337.4805
   1426.95801     499.6937     340.1299   1426.95801     499.6937     340.1299
   1426.94275     503.6441     342.1814   1426.94275     503.6441     342.1814
   1426.92749     506.9138     344.0076   1426.92749     506.9138     344.0076
   1426.91223     509.2390     346.3723   1426.91223     509.2390     346.3723
   1426.89697     512.4149     347.7163   1426.89697     512.4149     347.7163
   1426.88171     515.5799     350.1096   1426.88171     515.5799     350.1096
   1426.86646     519.5062     352.7361   1426.86646     519.5062     352.7361
   1426.85120     522.5943     354.3255   1426.85120     522.5943     354.3255
   1426.83594     525.4336     355.8502   1426.83594     525.4336     355.8502
   1426.82068     529.4396     358.6053   1426.82068     529.4396     358.6053
   1426.80542     532.1138     360.8442   1426.80542     532.1138     360.8442
   1426.79016     536.0371     362.7370   1426.79016     536.0371     362.7370
   1426.77490     538.8309     364.5401   1426.77490     538.8309     364.5401
   1426.75964     542.3630     366.2849   1426.75964     542.3630     366.2849
   1426.74438     545.0167     368.1880   1426.74438     545.0167     368.1880
   1426.72913     548.1729     370.2800   1426.72913     548.1729     370.2800
   1426.71387     552.7438     372.4294   1426.71387     552.7438     372.4294
   1426.69861     555.3573     374.5324   1426.69861     555.3573     374.5324
   1426.68335     558.1824     376.8904   1426.68335     558.1824     376.8904
   1426.66809     561.8868     378.8236   1426.66809     561.8868     378.8236
   1426.65283     565.5712     380.3990   1426.65283     565.5712     380.3990
   1426.63757     568.1442     382.8353   1426.63757     568.1442     382.8353
   1426.62231     571.7418     385.5881   1426.62231     571.7418     385.5881
   1426.60706     575.4219     386.1938   1426.60706     575.4219     386.1938
   1426.59180     578.0044     388.6468   1426.59180     578.0044     388.6468
   1426.57654     581.1627     390.0168   1426.57654     581.1627     390.0168
   1426.56128     584.6949     391.9048   1426.56128     584.6949     391.9048
   1426.54602     589.0612     394.4520   1426.54602     589.0612     394.4520
   1426.53076     591.3463     395.9037   1426.53076     591.3463     395.9037
   1426.51550     594.5538     397.7179   1426.51550     594.5538     397.7179
   1426.50024     597.2537     399.9875   1426.50024     597.2537     399.9875
   1426.48499     602.2856     401.2025   1426.48499     602.2856     401.2025
   1426.46973     605.2952     403.2434   1426.46973     605.2952     403.2434
   1426.45447     608.0588     405.4258   1426.45447     608.0588     405.4258
   1426.43921     611.0563     406.0153   1426.43921     611.0563     406.0153
   1426.42395     614.0503     409.1902   1426.42395     614.0503     409.1902
   1426.40869     617.8494     410.2234   1426.40869     617.8494     410.2234
   1426.39343     619.8386     411.7918   1426.39343     619.8386     411.7918
   1426.37817     623.7251     414.0760   1426.37817     623.7251     414.0760
   1426.36292     627.5399     415.6204   1426.36292     627.5399     415.6204
   1426.34766     630.2433     417.2383   1426.34766     630.2433     417.2383
   1426.33240     633.1298     419.1418   1426.33240     633.1298     419.1418
   1426.31714     635.7965     420.6465   1426.31714     635.7965     420.6465
   1426.30188     638.7326     422.0820   1426.30188     638.7326     422.0820
   1426.28662     642.4362     423.7891   1426.28662     642.4362     423.7891
   1426.27136     645.7685     425.7256   1426.27136     645.7685     425.7256
   1426.25610     648.6227     427.5323   1426.25610     648.6227     427.5323
   1426.24084     651.7044     429.1901   1426.24084     651.7044     429.1901
   1426.22559     654.4250     430.2207   1426.22559     654.4250     430.2207
   1426.21033     657.1452     432.1311   1426.21033     657.1452     432.1311
   1426.19507     661.4442     433.4279   1426.19507     661.4442     433.4279
   1426.17981     664.2194     434.8046   1426.17981     664.2194     434.8046
   1426.16455     666.1975     436.6831   1426.16455     666.1975     436.6831
   1426.14929     668.9542     437.4296   1426.14929     668.9542     437.4296
   1426.13403     671.2813     439.4186   1426.13403     671.2813     439.4186
   1426.11877     674.9750     440.7363   1426.11877     674.9750     440.7363
   1426.10352     677.2928     442.2035   1426.10352     677.2928     442.2035
   1426.08826     679.7972     444.1750   1426.08826     679.7972     444.1750
   1426.07300     684.4091     444.4645   1426.07300     684.4091     444.4645
   1426.05774     685.6835     445.8938   1426.05774     685.6835     445.8938
   1426.04248     688.9156     448.5695   1426.04248     688.9156     448.5695
   1426.02722     690.6679     449.1841   1426.02722     690.6679     449.1841
   1426.01196     694.5421     450.7491   1426.01196     694.5421     450.7491
   1425.99670     696.9363     452.0411   1425.99670     696.9363     452.0411
   1425.98145     698.5468     453.4482   1425.98145     698.5468     453.4482
   1425.96619     701.9855     454.4476   1425.96619     701.9855     454.4476
   1425.95093     704.1234     455.1024   1425.95093     704.1234     455.1024
   1425.93567     705.6351     456.6267   1425.93567     705.6351     456.6267
   1425.92041     709.1103     457.8910   1425.92041     709.1103     457.8910
   1425.90515     711.5208     459.6174   1425.90515     711.5208     459.6174
   1425.88989     713.5103     460.7460   1425.88989     713.5103     460.7460
   1425.87463     716.2546     462.0704   1425.87463     716.2546     462.0704
   1425.85938     718.5964     462.7559   1425.85938     718.5964     462.7559
   1425.84412     720.8539     463.9412   1425.84412     720.8539     463.9412
   1425.82886     722.8522     464.4359   1425.82886     722.8522     464.4359
   1425.81360     725.8655     466.5823   1425.81360     725.8655     466.5823
   1425.79834     729.3820     467.8154   1425.79834     729.3820     467.8154
   1425.78308     729.9482     467.6040   1425.78308     729.9482     467.6040
   1425.76782     731.5538     469.8604   1425.76782     731.5538     469.8604
   1425.75256     733.6605     469.5511   1425.75256     733.6605     469.5511
   1425.73730     735.8632     471.6019   1425.73730     735.8632     471.6019
   1425.72205     738.9404     472.9014   1425.72205     738.9404     472.9014
   1425.70679     740.0789     473.8965   1425.70679     740.0789     473.8965
   1425.69153     741.9096     474.6126   1425.69153     741.9096     474.6126
   1425.67627     744.5836     475.4223   1425.67627     744.5836     475.4223
   1425.66101     746.0734     476.3020   1425.66101     746.0734     476.3020
   1425.64575     746.9210     476.1870   1425.64575     746.9210     476.1870
   1425.63049     749.1057     478.7329   1425.63049     749.1057     478.7329
   1425.61523     751.7205     479.3277   1425.61523     751.7205     479.3277
   1425.59998     754.1191     479.7916   1425.59998     754.1191     479.7916
   1425.58472     755.0896     480.4890   1425.58472     755.0896     480.4890
   1425.56946     755.7762     481.7074   1425.56946     755.7762     481.7074
   1425.55420     758.2534     482.3732   1425.55420     758.2534     482.3732
   1425.53894     759.2548     483.4760   1425.53894     759.2548     483.4760
   1425.52368     761.2781     484.5416   1425.52368     761.2781     484.5416
   1425.50842     762.3649     484.7961   1425.50842     762.3649     484.7961
   1425.49316     764.5578     485.1335   1425.49316     764.5578     485.1335
   1425.47791     766.2694     487.0244   1425.47791     766.2694     487.0244
   1425.46265     766.6890     487.2395   1425.46265     766.6890     487.2395
   1425.44739     767.3201     487.1869   1425.44739     767.3201     487.1869
   1425.43213     770.8406     489.0848   1425.43213     770.8406     489.0848
   1425.41687     770.8757     490.3375   1425.41687     770.8757     490.3375
   1425.40161     772.3634     489.9821   1425.40161     772.3634     489.9821
   1425.38635     775.6843     491.0276   1425.38635     775.6843     491.0276
   1425.37109     774.5110     492.0713   1425.37109     774.5110     492.0713
   1425.35583     776.2009     492.8116   1425.35583     776.2009     492.8116
   1425.34058     777.6802     492.5520   1425.34058     777.6802     492.5520
   1425.32532     778.9810     494.2453   1425.32532     778.9810     494.2453
   1425.31006     780.7333     493.8058   1425.31006     780.7333     493.8058
   1425.29480     780.1048     494.6711   1425.29480     780.1048     494.6711
   1425.27954     781.4365     495.6282   1425.27954     781.4365     495.6282
   1425.26428     781.8942     495.6920   1425.26428     781.8942     495.6920
   1425.24902     785.0376     495.7243   1425.24902     785.0376     495.7243
   1425.23376     784.6122     496.6413   1425.23376     784.6122     496.6413
   1425.21851     786.2347     498.0557   1425.21851     786.2347     498.0557
   1425.20325     786.3476     498.1173   1425.20325     786.3476     498.1173
   1425.18799     787.4299     498.2748   1425.18799     787.4299     498.2748
   1425.17273     786.9088     499.2950   1425.17273     786.9088     499.2950
   1425.15747     787.5646     499.3412   1425.15747     787.5646     499.3412
   1425.14221     789.0165     500.4384   1425.14221     789.0165     500.4384
   1425.12695     790.0260     501.9346   1425.12695     790.0260     501.9346
   1425.11169     790.4288     501.4815   1425.11169     790.4288     501.4815
   1425.09644     792.1596     501.6838   1425.09644     792.1596     501.6838
   1425.08118     792.2896     501.9987   1425.08118     792.2896     501.9987
   1425.06592     794.1841     502.0579   1425.06592     794.1841     502.0579
   1425.05066     794.3042     503.1687   1425.05066     794.3042     503.1687
   1425.03540     794.3023     502.9950   1425.03540     794.3023     502.9950
   1425.02014     795.8562     504.4734   1425.02014     795.8562     504.4734
   1425.00488     794.8384     504.2549   1425.00488     794.8384     504.2549
   1424.98962     796.4151     505.9077   1424.98962     796.4151     505.9077
   1424.97437     796.7707     505.3745   1424.97437     796.7707     505.3745
   1424.95911     797.1579     505.5887   1424.95911     797.1579     505.5887
   1424.94385     795.9542     506.9101   1424.94385     795.9542     506.9101
   1424.92859     797.8093     506.0455   1424.92859     797.8093     506.0455
   1424.91333     797.3696     506.8769   1424.91333     797.3696     506.8769
   1424.89807     797.6566     506.8373   1424.89807     797.6566     506.8373
   1424.88281     798.6718     507.5919   1424.88281     798.6718     507.5919
   1424.86755     799.2087     507.8339   1424.86755     799.2087     507.8339
   1424.85229     798.0915     507.7630   1424.85229     798.0915     507.7630
   1424.83704     799.7854     508.6443   1424.83704     799.7854     508.6443
   1424.82178     798.4584     507.8881   1424.82178     798.4584     507.8881
   1424.80652     798.9157     509.2729   1424.80652     798.9157     509.2729
   1424.79126     799.6203     509.0072   1424.79126     799.6203     509.0072
   1424.77600     799.6744     509.9739   1424.77600     799.6744     509.9739
   1424.76074     799.6862     510.1357   1424.76074     799.6862     510.1357
   1424.74548     799.5011     509.7613   1424.74548     799.5011     509.7613
   1424.73022     799.7582     510.8013   1424.73022     799.7582     510.8013
   1424.71497     799.2194     509.6850   1424.71497     799.2194     509.6850
   1424.69971     800.2534     511.0776   1424.69971     800.2534     511.0776
   1424.68445     798.5763     510.6842   1424.68445     798.5763     510.6842
   1424.66919     800.6096     511.0078   1424.66919     800.6096     511.0078
   1424.65393     800.2048     510.7554   1424.65393     800.2048     510.7554
   1424.63867     799.9650     511.2707   1424.63867     799.9650     511.2707
   1424.62341     799.4489     511.5333   1424.62341     799.4489     511.5333
   1424.60815     799.9853     512.2103   1424.60815     799.9853     512.2103
   1424.59290     799.5120     512.7826   1424.59290     799.5120     512.7826
   1424.57764     798.3782     513.3735   1424.57764     798.3782     513.3735
   1424.56238     800.0928     512.6524   1424.56238     800.0928     512.6524
   1424.54712     799.1345     512.5980   1424.54712     799.1345     512.5980
   1424.53186     798.9637     512.5912   1424.53186     798.9637     512.5912
   1424.51660     798.8764     512.0848   1424.51660     798.8764     512.0848
   1424.50134     798.0814     513.0383   1424.50134     798.0814     513.0383
   1424.48608     797.7994     513.1369   1424.48608     797.7994     513.1369
   1424.47083     798.6301     513.6899   1424.47083     798.6301     513.6899
   1424.45557     797.9229     513.7927   1424.45557     797.9229     513.7927
   1424.44031     796.7557     513.8063   1424.44031     796.7557     513.8063
   1424.42505     797.2559     513.8527   1424.42505     797.2559     513.8527
   1424.40979     795.7981     514.4315   1424.40979     795.7981     514.4315
   1424.39453     796.2271     513.8892   1424.39453     796.2271     513.8892
   1424.37927     797.2844     513.9419   1424.37927     797.2844     513.9419
   1424.36401     796.1949     514.7355   1424.36401     796.1949     514.7355
   1424.34875     795.9070     515.2684   1424.34875     795.9070     515.2684
   1424.33350     794.8621     514.5713   1424.33350     794.8621     514.5713
   1424.31824     794.8101     514.8497   1424.31824     794.8101     514.8497
   1424.30298     794.4106     515.3248   1424.30298     794.4106     515.3248
   1424.28772     794.9677     514.9183   1424.28772     794.9677     514.9183
   1424.27246     795.0771     514.6118   1424.27246     795.0771     514.6118
   1424.25720     795.0540     515.4307   1424.25720     795.0540     515.4307
   1424.24194     793.5505     514.9989   1424.24194     793.5505     514.9989
   1424.22668     793.2335     515.1468   1424.22668     793.2335     515.1468
   1424.21143     793.2054     514.8577   1424.21143     793.2054     514.8577
   1424.19617     791.9499     515.8151   1424.19617     791.9499     515.8151
   1424.18091     789.6824     515.6204   1424.18091     789.6824     515.6204
   1424.16565     791.4853     515.2605   1424.16565     791.4853     515.2605
   1424.15039     789.6590     515.0776   1424.15039     789.6590     515.0776
   1424.13513     789.3541     514.7017   1424.13513     789.3541     514.7017
   1424.11987     789.5312     515.7906   1424.11987     789.5312     515.7906
   1424.10461     790.7472     514.5206   1424.10461     790.7472     514.5206
   1424.08936     788.9903     515.5869   1424.08936     788.9903     515.5869
   1424.07410     787.4775     515.3491   1424.07410     787.4775     515.3491
   1424.05884     786.6560     515.5007   1424.05884     786.6560     515.5007
   1424.04358     785.8879     514.0952   1424.04358     785.8879     514.0952
   1424.02832     785.8952     514.4438   1424.02832     785.8952     514.4438
   1424.01306     786.3636     515.6083   1424.01306     786.3636     515.6083
   1423.99780     785.1926     514.6207   1423.99780     785.1926     514.6207
   1423.98254     785.8969     514.4938   1423.98254     785.8969     514.4938
   1423.96729     785.0261     514.9205   1423.96729     785.0261     514.9205
   1423.95203     783.6210     515.5318   1423.95203     783.6210     515.5318
   1423.93677     782.9325     515.0004   1423.93677     782.9325     515.0004
   1423.92151     783.5433     515.2590   1423.92151     783.5433     515.2590
   1423.90625     782.6041     515.1447   1423.90625     782.6041     515.1447
   1423.89099     782.1024     514.8774   1423.89099     782.1024     514.8774
   1423.87573     781.4379     514.0730   1423.87573     781.4379     514.0730
   1423.86047     780.7156     514.5800   1423.86047     780.7156     514.5800
   1423.84521     780.3849     513.8777   1423.84521     780.3849     513.8777
   1423.82996     779.9095     514.0845   1423.82996     779.9095     514.0845
   1423.81470     779.5217     514.4568   1423.81470     779.5217     514.4568
   1423.79944     778.3801     513.5183   1423.79944     778.3801     513.5183
   1423.78418     778.0983     513.5520   1423.78418     778.0983     513.5520
   1423.76892     778.0587     513.6104   1423.76892     778.0587     513.6104
   1423.75366     777.1818     512.8532   1423.75366     777.1818     512.8532
   1423.73840     776.2673     512.7507   1423.73840     776.2673     512.7507
   1423.72314     776.1993     512.5905   1423.72314     776.1993     512.5905
   1423.70789     774.0063     513.5065   1423.70789     774.0063     513.5065
   1423.69263     774.4836     512.5184   1423.69263     774.4836     512.5184
   1423.67737     773.2482     512.0517   1423.67737     773.2482     512.0517
   1423.66211     773.2141     512.8829   1423.66211     773.2141     512.8829
   1423.64685     773.3607     512.3370   1423.64685     773.3607     512.3370
   1423.63159     774.7482     511.8178   1423.63159     774.7482     511.8178
   1423.61633     770.7252     511.5813   1423.61633     770.7252     511.5813
   1423.60107     771.7661     511.7039   1423.60107     771.7661     511.7039
   1423.58582     770.6193     510.3113   1423.58582     770.6193     510.3113
   1423.57056     770.5356     511.7301   1423.57056     770.5356     511.7301
   1423.55530     771.2669     510.3252   1423.55530     771.2669     510.3252
   1423.54004     768.7848     510.8353   1423.54004     768.7848     510.8353
   1423.52478     768.9943     510.2289   1423.52478     768.9943     510.2289
   1423.50952     768.1628     509.5776   1423.50952     768.1628     509.5776
   1423.49426     765.6755     510.2191   1423.49426     765.6755     510.2191
   1423.47900     766.1679     509.7545   1423.47900     766.1679     509.7545
   1423.46375     766.9659     509.0191   1423.46375     766.9659     509.0191
   1423.44849     766.8923     509.0526   1423.44849     766.8923     509.0526
   1423.43323     764.0410     508.3515   1423.43323     764.0410     508.3515
   1423.41797     764.0945     507.7146   1423.41797     764.0945     507.7146
   1423.40271     763.7224     507.9213   1423.40271     763.7224     507.9213
   1423.38745     764.1719     507.9356   1423.38745     764.1719     507.9356
   1423.37219     763.2230     507.8847   1423.37219     763.2230     507.8847
   1423.35693     762.0757     506.3541   1423.35693     762.0757     506.3541
   1423.34167     761.6581     505.9958   1423.34167     761.6581     505.9958
   1423.32642     760.6688     505.6415   1423.32642     760.6688     505.6415
   1423.31116     761.3864     505.5274   1423.31116     761.3864     505.5274
   1423.29590     760.1809     505.3683   1423.29590     760.1809     505.3683
   1423.28064     759.5108     505.2116   1423.28064     759.5108     505.2116
   1423.26538     759.1457     504.6073   1423.26538     759.1457     504.6073
   1423.25012     757.4974     504.2189   1423.25012     757.4974     504.2189
   1423.23486     758.0095     503.8467   1423.23486     758.0095     503.8467
   1423.21960     757.9312     502.2559   1423.21960     757.9312     502.2559
   1423.20435     756.9140     502.5554   1423.20435     756.9140     502.5554
   1423.18909     755.6667     503.1078   1423.18909     755.6667     503.1078
   1423.17383     756.6419     502.1818   1423.17383     756.6419     502.1818
   1423.15857     755.6552     500.8905   1423.15857     755.6552     500.8905
   1423.14331     756.4320     500.9287   1423.14331     756.4320     500.9287
   1423.12805     754.7036     499.3955   1423.12805     754.7036     499.3955
   1423.11279     754.9341     499.6485   1423.11279     754.9341     499.6485
   1423.09753     754.9023     499.5600   1423.09753     754.9023     499.5600
   1423.08228     754.3797     497.9959   1423.08228     754.3797     497.9959
   1423.06702     752.7836     497.9680   1423.06702     752.7836     497.9680
   1423.05176     754.0233     498.0664   1423.05176     754.0233     498.0664
   1423.03650     751.5235     496.3902   1423.03650     751.5235     496.3902
   1423.02124     752.3577     495.6848   1423.02124     752.3577     495.6848
   1423.00598     750.9293     495.6690   1423.00598     750.9293     495.6690
   1422.99072     751.0394     495.3321   1422.99072     751.0394     495.3321
   1422.97546     750.4868     494.4400   1422.97546     750.4868     494.4400
   1422.96021     750.2865     493.5037   1422.96021     750.2865     493.5037
   1422.94495     749.6611     494.1017   1422.94495     749.6611     494.1017
   1422.92969     749.8930     493.1733   1422.92969     749.8930     493.1733
   1422.91443     750.0079     492.8675   1422.91443     750.0079     492.8675
   1422.89917     747.8294     491.4982   1422.89917     747.8294     491.4982
   1422.88391     746.9283     491.1237   1422.88391     746.9283     491.1237
   1422.86865     747.7053     491.2011   1422.86865     747.7053     491.2011
   1422.85339     747.1672     489.7157   1422.85339     747.1672     489.7157
   1422.83813     746.8658     489.3818   1422.83813     746.8658     489.3818
   1422.82288     746.9231     487.8205   1422.82288     746.9231     487.8205
   1422.80762     746.7786     488.0789   1422.80762     746.7786     488.0789
   1422.79236     744.6121     486.8529   1422.79236     744.6121     486.8529
   1422.77710     747.5296     485.3378   1422.77710     747.5296     485.3378
   1422.76184     745.3444     485.7045   1422.76184     745.3444     485.7045
   1422.74658     745.2036     484.8013   1422.74658     745.2036     484.8013
   1422.73132     745.0760     484.1657   1422.73132     745.0760     484.1657
   1422.71606     744.6558     483.3319   1422.71606     744.6558     483.3319
   1422.70081     744.2711     482.9326   1422.70081     744.2711     482.9326
   1422.68555     744.1717     482.1605   1422.68555     744.1717     482.1605
   1422.67029     742.5406     480.4903   1422.67029     742.5406     480.4903
   1422.65503     742.7859     480.8360   1422.65503     742.7859     480.8360
   1422.63977     743.4983     479.7736   1422.63977     743.4983     479.7736
   1422.62451     742.2061     479.8356   1422.62451     742.2061     479.8356
   1422.60925     742.7038     478.3093   1422.60925     742.7038     478.3093
   1422.59399     742.1939     478.1025   1422.59399     742.1939     478.1025
   1422.57874     741.1269     477.0092   1422.57874     741.1269     477.0092
   1422.56348     742.4629     475.5912   1422.56348     742.4629     475.5912
   1422.54822     741.3507     475.1361   1422.54822     741.3507     475.1361
   1422.53296     741.1755     475.2850   1422.53296     741.1755     475.2850
   1422.51770     741.9276     474.5847   1422.51770     741.9276     474.5847
   1422.50244     740.3691     473.3392   1422.50244     740.3691     473.3392
   1422.48718     739.3408     472.4062   1422.48718     739.3408     472.4062
   1422.47192     739.0496     471.5785   1422.47192     739.0496     471.5785
   1422.45667     739.3430     469.9214   1422.45667     739.3430     469.9214
   1422.44141     739.6221     469.8899   1422.44141     739.6221     469.8899
   1422.42615     739.0258     469.8264   1422.42615     739.0258     469.8264
   1422.41089     739.4873     468.2780   1422.41089     739.4873     468.2780
   1422.39563     738.9734     467.5988   1422.39563     738.9734     467.5988
   1422.38037     737.6024     466.8253   1422.38037     737.6024     466.8253
   1422.36511     738.1888     465.8888   1422.36511     738.1888     465.8888
   1422.34985     737.7458     464.5894   1422.34985     737.7458     464.5894
   1422.33459     738.1624     464.3869   1422.33459     738.1624     464.3869
   1422.31934     737.7217     463.8474   1422.31934     737.7217     463.8474
   1422.30408     738.2153     462.9755   1422.30408     738.2153     462.9755
   1422.28882     736.8362     461.6751   1422.28882     736.8362     461.6751
   1422.27356     737.1649     461.0833   1422.27356     737.1649     461.0833
   1422.25830     737.1351     460.4917   1422.25830     737.1351     460.4917
   1422.24304     738.0876     461.1592   1422.24304     738.0876     461.1592
   1422.22778     737.1102     459.4350   1422.22778     737.1102     459.4350
   1422.21252     736.0906     457.1463   1422.21252     736.0906     457.1463
   1422.19727     736.2365     456.8027   1422.19727     736.2365     456.8027
   1422.18201     735.6315     456.1859   1422.18201     735.6315     456.1859
   1422.16675     736.2146     455.3064   1422.16675     736.2146     455.3064
   1422.15149     735.6930     453.5038   1422.15149     735.6930     453.5038
   1422.13623     736.4920     453.2402   1422.13623     736.4920     453.2402
   1422.12097     736.9601     451.9234   1422.12097     736.9601     451.9234
   1422.10571     734.4542     451.1501   1422.10571     734.4542     451.1501
   1422.09045     733.8178     450.2016   1422.09045     733.8178     450.2016
   1422.07520     735.6664     449.5188   1422.07520     735.6664     449.5188
   1422.05994     734.2935     448.3415   1422.05994     734.2935     448.3415
   1422.04468     735.2486     448.1430   1422.04468     735.2486     448.1430
   1422.02942     733.6951     446.7025   1422.02942     733.6951     446.7025
   1422.01416     733.6354     445.4998   1422.01416     733.6354     445.4998
   1421.99890     734.8338     445.2449   1421.99890     734.8338     445.2449
   1421.98364     732.5277     444.0423   1421.98364     732.5277     444.0423
   1421.96838     734.5641     442.6152   1421.96838     734.5641     442.6152
   1421.95312     734.1360     442.7903   1421.95312     734.1360     442.7903
   1421.93787     734.0722     441.2565   1421.93787     734.0722     441.2565
   1421.92261     733.4370     440.3005   1421.92261     733.4370     440.3005
   1421.90735     733.3987     439.3698   1421.90735     733.3987     439.3698
   1421.89209     732.9349     438.6611   1421.89209     732.9349     438.6611
   1421.87683     732.5073     436.9973   1421.87683     732.5073     436.9973
   1421.86157     733.2052     436.2656   1421.86157     733.2052     436.2656
   1421.84631     732.1035     435.8010   1421.84631     732.1035     435.8010
   1421.83105     731.5435     434.6720   1421.83105     731.5435     434.6720
   1421.81580     733.2731     433.7658   1421.81580     733.2731     433.7658
   1421.80054     732.3019     432.7942   1421.80054     732.3019     432.7942
   1421.78528     733.2284     431.6956   1421.78528     733.2284     431.6956
   1421.77002     732.2347     431.0544   1421.77002     732.2347     431.0544
   1421.75476     731.8205     429.4648   1421.75476     731.8205     429.4648
   1421.73950     732.5781     428.7300   1421.73950     732.5781     428.7300
   1421.72424     731.4250     428.2868   1421.72424     731.4250     428.2868
   1421.70898     731.9033     426.8663   1421.70898     731.9033     426.8663
   1421.69373     731.0035     426.4076   1421.69373     731.0035     426.4076
   1421.67847     731.0866     425.1158   1421.67847     731.0866     425.1158
   1421.66321     730.6434     424.5552   1421.66321     730.6434     424.5552
   1421.64795     730.5186     423.3412   1421.64795     730.5186     423.3412
   1421.63269     730.5339     422.9445   1421.63269     730.5339     422.9445
   1421.61743     730.0948     421.5592   1421.61743     730.0948     421.5592
   1421.60217     731.5500     420.5199   1421.60217     731.5500     420.5199
   1421.58691     730.5879     419.6201   1421.58691     730.5879     419.6201
   1421.57166     729.8544     418.8107   1421.57166     729.8544     418.8107
   1421.55640     729.3897     418.0425   1421.55640     729.3897     418.0425
   1421.54114     729.3552     416.3251   1421.54114     729.3552     416.3251
   1421.52588     729.4982     415.7273   1421.52588     729.4982     415.7273
   1421.51062     728.8327     414.5974   1421.51062     728.8327     414.5974
   1421.49536     728.2778     413.7643   1421.49536     728.2778     413.7643
   1421.48010     728.2922     413.9398   1421.48010     728.2922     413.9398
   1421.46484     728.8532     412.0037   1421.46484     728.8532     412.0037
   1421.44958     729.8598     411.2568   1421.44958     729.8598     411.2568
   1421.43433     728.0631     409.8295   1421.43433     728.0631     409.8295
   1421.41907     729.3878     409.1119   1421.41907     729.3878     409.1119
   1421.40381     728.4297     407.8955   1421.40381     728.4297     407.8955
   1421.38855     728.1508     407.7810   1421.38855     728.1508     407.7810
   1421.37329     728.9396     406.7473   1421.37329     728.9396     406.7473
   1421.35803     729.4177     406.1669   1421.35803     729.4177     406.1669
   1421.34277     728.2852     405.2878   1421.34277     728.2852     405.2878
   1421.32751     727.8927     404.5235   1421.32751     727.8927     404.5235
   1421.31226     728.7271     403.2615   1421.31226     728.7271     403.2615
   1421.29700     728.5086     402.1170   1421.29700     728.5086     402.1170
   1421.28174     728.6929     401.4387   1421.28174     728.6929     401.4387
   1421.26648     728.8298     401.3256   1421.26648     728.8298     401.3256
   1421.25122     729.6423     400.0516   1421.25122     729.6423     400.0516
   1421.23596     728.8051     399.6598   1421.23596     728.8051     399.6598
   1421.22070     728.1575     398.8980   1421.22070     728.1575     398.8980
   1421.20544     730.6982     398.0741   1421.20544     730.6982     398.0741
   1421.19019     730.4974     397.4032   1421.19019     730.4974     397.4032
   1421.17493     730.5602     396.6436   1421.17493     730.5602     396.6436
   1421.15967     730.6955     395.7820   1421.15967     730.6955     395.7820
   1421.14441     729.9426     395.4283   1421.14441     729.9426     395.4283
   1421.12915     730.1297     394.3228   1421.12915     730.1297     394.3228
   1421.11389     730.6725     392.7267   1421.11389     730.6725     392.7267
   1421.09863     729.2698     392.8108   1421.09863     729.2698     392.8108
   1421.08337     728.8433     392.0127   1421.08337     728.8433     392.0127
   1421.06812     729.7353     390.8413   1421.06812     729.7353     390.8413
   1421.05286     729.3588     389.2470   1421.05286     729.3588     389.2470
   1421.03760     728.4498     388.6037   1421.03760     728.4498     388.6037
   1421.02234     729.3748     388.1368   1421.02234     729.3748     388.1368
   1421.00708     728.8768     387.4177   1421.00708     728.8768     387.4177
   1420.99182     730.7816     387.3417   1420.99182     730.7816     387.3417
   1420.97656     732.8558     388.0186   1420.97656     732.8558     388.0186
   1420.96130     734.8530     388.2066   1420.96130     734.8530     388.2066
   1420.94604     741.7291     391.2911   1420.94604     741.7291     391.2911
   1420.93079     754.5549     396.8206   1420.93079     754.5549     396.8206
   1420.91553     781.0336     409.0638   1420.91553     781.0336     409.0638
   1420.90027     823.2745     430.0085   1420.90027     823.2745     430.0085
   1420.88501     886.1552     461.7261   1420.88501     886.1552     461.7261
   1420.86975     956.6224     496.1570   1420.86975     956.6224     496.1570
   1420.85449    1015.4055     524.4216   1420.85449    1015.4055     524.4216
   1420.83923    1058.0510     546.2706   1420.83923    1058.0510     546.2706
   1420.82397    1036.7220     534.6848   1420.82397    1036.7220     534.6848
   1420.80872     979.2523     505.3276   1420.80872     979.2523     505.3276
   1420.79346     978.7831     503.5502   1420.79346     978.7831     503.5502
   1420.77820     971.9464     500.2973   1420.77820     971.9464     500.2973
   1420.76294     977.1829     500.3572   1420.76294     977.1829     500.3572
   1420.74768    1010.0418     515.4422   1420.74768    1010.0418     515.4422
   1420.73242    1071.5221     544.7643   1420.73242    1071.5221     544.7643
   1420.71716    1256.4292     636.7617   1420.71716    1256.4292     636.7617
   1420.70190    1551.7487     780.2466   1420.70190    1551.7487     780.2466
   1420.68665    1813.3944     907.5815   1420.68665    1813.3944     907.5815
   1420.67139    1823.4087     912.4698   1420.67139    1823.4087     912.4698
   1420.65613    2045.8632    1022.8275   1420.65613    2045.8632    1022.8275
   1420.64087    2307.6135    1148.3954   1420.64087    2307.6135    1148.3954
   1420.62561    2287.9563    1137.5331   1420.62561    2287.9563    1137.5331
   1420.61035    2256.6760    1118.9243   1420.61035    2256.6760    1118.9243
   1420.59509    2222.2598    1098.7402   1420.59509    2222.2598    1098.7402
   1420.57983    1996.5667     985.9172   1420.57983    1996.5667     985.9172
   1420.56458    1527.4729     756.6277   1420.56458    1527.4729     756.6277
   1420.54932    1417.8517     702.4802   1420.54932    1417.8517     702.4802
   1420.53406    1450.3049     718.4968   1420.53406    1450.3049     718.4968
   1420.51880    1321.3459     654.6068   1420.51880    1321.3459     654.6068
   1420.50354    1240.0109     613.0644   1420.50354    1240.0109     613.0644
   1420.48828    1310.3307     646.1364   1420.48828    1310.3307     646.1364
   1420.47302    1433.6075     704.7070   1420.47302    1433.6075     704.7070
   1420.45776    1482.6052     726.4069   1420.45776    1482.6052     726.4069
   1420.44250    1745.5328     853.4217   1420.44250    1745.5328     853.4217
   1420.42725    1840.4886     894.7716   1420.42725    1840.4886     894.7716
   1420.41199    1641.1511     798.4800   1420.41199    1641.1511     798.4800
   1420.39673    1129.1110     552.6530   1420.39673    1129.1110     552.6530
   1420.38147     872.9736     429.3831   1420.38147     872.9736     429.3831
   1420.36621     794.1010     390.0471   1420.36621     794.1010     390.0471
   1420.35095     759.8937     374.5040   1420.35095     759.8937     374.5040
   1420.33569     745.6660     366.3132   1420.33569     745.6660     366.3132
   1420.32043     737.5416     361.9754   1420.32043     737.5416     361.9754
   1420.30518     729.9951     358.6685   1420.30518     729.9951     358.6685
   1420.28992     728.0427     357.0866   1420.28992     728.0427     357.0866
   1420.27466     726.1837     355.6330   1420.27466     726.1837     355.6330
   1420.25940     724.4945     354.4312   1420.25940     724.4945     354.4312
   1420.24414     722.7424     353.2817   1420.24414     722.7424     353.2817
   1420.22888     722.3959     352.6567   1420.22888     722.3959     352.6567
   1420.21362     720.6962     351.4017   1420.21362     720.6962     351.4017
   1420.19836     720.1976     350.3204   1420.19836     720.1976     350.3204
   1420.18311     718.3634     348.9632   1420.18311     718.3634     348.9632
   1420.16785     717.6253     348.3624   1420.16785     717.6253     348.3624
   1420.15259     718.0013     348.4395   1420.15259     718.0013     348.4395
   1420.13733     716.2676     347.3635   1420.13733     716.2676     347.3635
   1420.12207     715.8859     346.7006   1420.12207     715.8859     346.7006
   1420.10681     715.3514     345.1320   1420.10681     715.3514     345.1320
   1420.09155     714.5805     345.1426   1420.09155     714.5805     345.1426
   1420.07629     714.0991     344.2850   1420.07629     714.0991     344.2850
   1420.06104     714.0382     343.6881   1420.06104     714.0382     343.6881
   1420.04578     713.3016     343.5973   1420.04578     713.3016     343.5973
   1420.03052     713.0823     343.4371   1420.03052     713.0823     343.4371
   1420.01526     716.9829     343.9054   1420.01526     716.9829     343.9054
   1420.00000     717.0627     344.6081   1420.00000     717.0627     344.6081
   1419.98474     717.1423     345.3108   1419.98474     717.1423     345.3108
   1419.96948     714.7076     342.6158   1419.96948     714.7076     342.6158
   1419.95422     711.7515     341.6924   1419.95422     711.7515     341.6924
   1419.93896     712.9222     340.7541   1419.93896     712.9222     340.7541
   1419.92371     713.2177     340.0799   1419.92371     713.2177     340.0799
   1419.90845     711.6145     339.8729   1419.90845     711.6145     339.8729
   1419.89319     714.2834     339.6095   1419.89319     714.2834     339.6095
   1419.87793     713.2438     339.2566   1419.87793     713.2438     339.2566
   1419.86267     714.0970     339.2662   1419.86267     714.0970     339.2662
   1419.84741     712.3185     338.8079   1419.84741     712.3185     338.8079
   1419.83215     713.4715     338.2990   1419.83215     713.4715     338.2990
   1419.81689     713.2803     338.1874   1419.81689     713.2803     338.1874
   1419.80164     712.9167     337.8270   1419.80164     712.9167     337.8270
   1419.78638     712.7422     337.9389   1419.78638     712.7422     337.9389
   1419.77112     714.2309     337.8651   1419.77112     714.2309     337.8651
   1419.75586     713.2545     337.3558   1419.75586     713.2545     337.3558
   1419.74060     714.5677     336.9616   1419.74060     714.5677     336.9616
   1419.72534     714.5196     337.2870   1419.72534     714.5196     337.2870
   1419.71008     713.1852     337.4135   1419.71008     713.1852     337.4135
   1419.69482     714.0018     336.5072   1419.69482     714.0018     336.5072
   1419.67957     714.7064     336.7891   1419.67957     714.7064     336.7891
   1419.66431     713.7144     336.2667   1419.66431     713.7144     336.2667
   1419.64905     714.8795     336.4345   1419.64905     714.8795     336.4345
   1419.63379     714.2771     336.2044   1419.63379     714.2771     336.2044
   1419.61853     715.1026     336.3575   1419.61853     715.1026     336.3575
   1419.60327     715.1888     335.7217   1419.60327     715.1888     335.7217
   1419.58801     715.4934     335.8680   1419.58801     715.4934     335.8680
   1419.57275     715.4547     336.1565   1419.57275     715.4547     336.1565
   1419.55750     716.3776     335.7941   1419.55750     716.3776     335.7941
   1419.54224     715.5905     336.2662   1419.54224     715.5905     336.2662
   1419.52698     717.5757     336.1610   1419.52698     717.5757     336.1610
   1419.51172     716.5621     335.6697   1419.51172     716.5621     335.6697
   1419.49646     717.2321     336.2884   1419.49646     717.2321     336.2884
   1419.48120     716.3662     335.8811   1419.48120     716.3662     335.8811
   1419.46594     716.6712     335.6483   1419.46594     716.6712     335.6483
   1419.45068     719.3384     336.0930   1419.45068     719.3384     336.0930
   1419.43542     717.4069     336.0899   1419.43542     717.4069     336.0899
   1419.42017     718.1522     335.8975   1419.42017     718.1522     335.8975
   1419.40491     717.6063     335.7204   1419.40491     717.6063     335.7204
   1419.38965     718.4656     335.9945   1419.38965     718.4656     335.9945
   1419.37439     718.4938     335.8849   1419.37439     718.4938     335.8849
   1419.35913     719.5720     335.8915   1419.35913     719.5720     335.8915
   1419.34387     719.6414     336.1369   1419.34387     719.6414     336.1369
   1419.32861     719.7925     336.6154   1419.32861     719.7925     336.6154
   1419.31335     720.4751     336.0906   1419.31335     720.4751     336.0906
   1419.29810     721.0201     336.3904   1419.29810     721.0201     336.3904
   1419.28284     720.2830     336.4348   1419.28284     720.2830     336.4348
   1419.26758     721.9628     337.1793   1419.26758     721.9628     337.1793
   1419.25232     721.9688     337.3168   1419.25232     721.9688     337.3168
   1419.23706     722.7712     337.0269   1419.23706     722.7712     337.0269
   1419.22180     722.7280     336.8577   1419.22180     722.7280     336.8577
   1419.20654     722.4998     337.4961   1419.20654     722.4998     337.4961
   1419.19128     724.1315     337.6855   1419.19128     724.1315     337.6855
   1419.17603     723.5621     337.7703   1419.17603     723.5621     337.7703
   1419.16077     723.4192     337.9756   1419.16077     723.4192     337.9756
   1419.14551     725.3944     338.3912   1419.14551     725.3944     338.3912
   1419.13025     724.2676     337.9876   1419.13025     724.2676     337.9876
   1419.11499     726.0578     338.9252   1419.11499     726.0578     338.9252
   1419.09973     725.1592     339.1527   1419.09973     725.1592     339.1527
   1419.08447     727.0380     338.7710   1419.08447     727.0380     338.7710
   1419.06921     727.8292     339.5958   1419.06921     727.8292     339.5958
   1419.05396     727.1710     339.5623   1419.05396     727.1710     339.5623
   1419.03870     727.9012     340.1475   1419.03870     727.9012     340.1475
   1419.02344     728.5150     340.6019   1419.02344     728.5150     340.6019
   1419.00818     729.0391     340.8412   1419.00818     729.0391     340.8412
   1418.99292     729.2972     340.9851   1418.99292     729.2972     340.9851
   1418.97766     730.0583     341.0878   1418.97766     730.0583     341.0878
   1418.96240     729.4099     341.5668   1418.96240     729.4099     341.5668
   1418.94714     730.7851     342.0688   1418.94714     730.7851     342.0688
   1418.93188     732.3431     342.2801   1418.93188     732.3431     342.2801
   1418.91663     733.6297     343.3787   1418.91663     733.6297     343.3787
   1418.90137     733.3954     342.5811   1418.90137     733.3954     342.5811
   1418.88611     733.1528     343.1288   1418.88611     733.1528     343.1288
   1418.87085     733.4936     343.8631   1418.87085     733.4936     343.8631
   1418.85559     735.3408     344.5394   1418.85559     735.3408     344.5394
   1418.84033     735.3725     344.4066   1418.84033     735.3725     344.4066
   1418.82507     736.4077     345.4920   1418.82507     736.4077     345.4920
   1418.80981     736.2596     345.7410   1418.80981     736.2596     345.7410
   1418.79456     737.5505     346.0083   1418.79456     737.5505     346.0083
   1418.77930     736.5705     346.4693   1418.77930     736.5705     346.4693
   1418.76404     737.6607     346.7971   1418.76404     737.6607     346.7971
   1418.74878     738.6005     347.1436   1418.74878     738.6005     347.1436
   1418.73352     739.9346     347.5866   1418.73352     739.9346     347.5866
   1418.71826     741.3940     348.6101   1418.71826     741.3940     348.6101
   1418.70300     740.9052     349.3013   1418.70300     740.9052     349.3013
   1418.68774     740.9535     350.0682   1418.68774     740.9535     350.0682
   1418.67249     742.1085     349.8881   1418.67249     742.1085     349.8881
   1418.65723     741.7621     350.4254   1418.65723     741.7621     350.4254
   1418.64197     743.3784     350.6732   1418.64197     743.3784     350.6732
   1418.62671     744.6374     351.5819   1418.62671     744.6374     351.5819
   1418.61145     743.5158     352.0064   1418.61145     743.5158     352.0064
   1418.59619     745.0356     352.4341   1418.59619     745.0356     352.4341
   1418.58093     746.5618     353.1715   1418.58093     746.5618     353.1715
   1418.56567     746.8283     353.9686   1418.56567     746.8283     353.9686
   1418.55042     747.0220     354.8338   1418.55042     747.0220     354.8338
   1418.53516     747.7333     354.7448   1418.53516     747.7333     354.7448
   1418.51990     750.1238     356.1762   1418.51990     750.1238     356.1762
   1418.50464     749.3163     356.1982   1418.50464     749.3163     356.1982
   1418.48938     750.3146     357.1010   1418.48938     750.3146     357.1010
   1418.47412     751.6725     358.1115   1418.47412     751.6725     358.1115
   1418.45886     752.0486     357.7812   1418.45886     752.0486     357.7812
   1418.44360     753.1972     358.9153   1418.44360     753.1972     358.9153
   1418.42834     754.6246     360.0772   1418.42834     754.6246     360.0772
   1418.41309     753.9548     360.4204   1418.41309     753.9548     360.4204
   1418.39783     754.8792     361.1248   1418.39783     754.8792     361.1248
   1418.38257     755.8393     362.3254   1418.38257     755.8393     362.3254
   1418.36731     756.9525     362.5033   1418.36731     756.9525     362.5033
   1418.35205     757.5070     363.5733   1418.35205     757.5070     363.5733
   1418.33679     757.5729     364.3564   1418.33679     757.5729     364.3564
   1418.32153     760.0395     364.6519   1418.32153     760.0395     364.6519
   1418.30627     761.3999     365.6920   1418.30627     761.3999     365.6920
   1418.29102     761.0235     365.8865   1418.29102     761.0235     365.8865
   1418.27576     761.2004     367.4932   1418.27576     761.2004     367.4932
   1418.26050     762.7532     367.6729   1418.26050     762.7532     367.6729
   1418.24524     763.0055     369.1694   1418.24524     763.0055     369.1694
   1418.22998     765.3872     369.4892   1418.22998     765.3872     369.4892
   1418.21472     764.6401     370.4037   1418.21472     764.6401     370.4037
   1418.19946     766.8124     370.5161   1418.19946     766.8124     370.5161
   1418.18420     766.2545     371.7993   1418.18420     766.2545     371.7993
   1418.16895     768.6811     373.0520   1418.16895     768.6811     373.0520
   1418.15369     768.5186     373.5612   1418.15369     768.5186     373.5612
   1418.13843     770.5621     374.4846   1418.13843     770.5621     374.4846
   1418.12317     771.0828     375.1084   1418.12317     771.0828     375.1084
   1418.10791     771.9546     376.3831   1418.10791     771.9546     376.3831
   1418.09265     772.7344     376.7798   1418.09265     772.7344     376.7798
   1418.07739     773.4263     377.2874   1418.07739     773.4263     377.2874
   1418.06213     774.9196     378.7844   1418.06213     774.9196     378.7844
   1418.04688     775.5217     379.4539   1418.04688     775.5217     379.4539
   1418.03162     775.4792     380.3949   1418.03162     775.4792     380.3949
   1418.01636     778.4306     381.4927   1418.01636     778.4306     381.4927
   1418.00110     778.3290     381.9284   1418.00110     778.3290     381.9284
   1417.98584     780.3727     383.9568   1417.98584     780.3727     383.9568
   1417.97058     779.1461     384.0767   1417.97058     779.1461     384.0767
   1417.95532     779.7838     384.7957   1417.95532     779.7838     384.7957
   1417.94006     782.1860     385.5684   1417.94006     782.1860     385.5684
   1417.92480     782.2925     387.5798   1417.92480     782.2925     387.5798
   1417.90955     783.2946     387.6648   1417.90955     783.2946     387.6648
   1417.89429     784.9244     389.2986   1417.89429     784.9244     389.2986
   1417.87903     786.5697     389.4110   1417.87903     786.5697     389.4110
   1417.86377     786.6199     390.9510   1417.86377     786.6199     390.9510
   1417.84851     788.3986     391.8169   1417.84851     788.3986     391.8169
   1417.83325     789.0553     392.7663   1417.83325     789.0553     392.7663
   1417.81799     790.1133     394.2529   1417.81799     790.1133     394.2529
   1417.80273     790.8547     394.7828   1417.80273     790.8547     394.7828
   1417.78748     791.4120     395.4572   1417.78748     791.4120     395.4572
   1417.77222     791.4146     397.0454   1417.77222     791.4146     397.0454
   1417.75696     795.6539     397.4020   1417.75696     795.6539     397.4020
   1417.74170     795.0575     398.9025   1417.74170     795.0575     398.9025
   1417.72644     796.1915     399.6401   1417.72644     796.1915     399.6401
   1417.71118     796.6678     400.7998   1417.71118     796.6678     400.7998
   1417.69592     796.7812     401.2549   1417.69592     796.7812     401.2549
   1417.68066     798.0120     403.4807   1417.68066     798.0120     403.4807
   1417.66541     798.9723     403.3576   1417.66541     798.9723     403.3576
   1417.65015     799.9090     405.2690   1417.65015     799.9090     405.2690
   1417.63489     801.1420     405.4703   1417.63489     801.1420     405.4703
   1417.61963     802.4544     406.8592   1417.61963     802.4544     406.8592
   1417.60437     803.9292     407.9259   1417.60437     803.9292     407.9259
   1417.58911     803.8293     408.9135   1417.58911     803.8293     408.9135
   1417.57385     805.1381     410.4782   1417.57385     805.1381     410.4782
   1417.55859     805.7361     412.1731   1417.55859     805.7361     412.1731
   1417.54333     807.2603     412.3731   1417.54333     807.2603     412.3731
   1417.52808     807.8939     412.9352   1417.52808     807.8939     412.9352
   1417.51282     808.8696     413.8717   1417.51282     808.8696     413.8717
   1417.49756     809.9301     415.9813   1417.49756     809.9301     415.9813
   1417.48230     811.5087     416.1476   1417.48230     811.5087     416.1476
   1417.46704     811.2123     416.7517   1417.46704     811.2123     416.7517
   1417.45178     812.8292     418.7036   1417.45178     812.8292     418.7036
   1417.43652     813.3945     419.7295   1417.43652     813.3945     419.7295
   1417.42126     814.7964     421.0213   1417.42126     814.7964     421.0213
   1417.40601     814.4177     421.4725   1417.40601     814.4177     421.4725
   1417.39075     815.1635     423.2393   1417.39075     815.1635     423.2393
   1417.37549     817.6552     423.7622   1417.37549     817.6552     423.7622
   1417.36023     817.0488     424.7338   1417.36023     817.0488     424.7338
   1417.34497     819.1854     425.9687   1417.34497     819.1854     425.9687
   1417.32971     818.5468     426.4231   1417.32971     818.5468     426.4231
   1417.31445     820.1223     427.5375   1417.31445     820.1223     427.5375
   1417.29919     820.7120     428.6815   1417.29919     820.7120     428.6815
   1417.28394     822.4613     429.8012   1417.28394     822.4613     429.8012
   1417.26868     823.9529     430.6175   1417.26868     823.9529     430.6175
   1417.25342     824.4615     432.4500   1417.25342     824.4615     432.4500
   1417.23816     823.8864     432.7856   1417.23816     823.8864     432.7856
   1417.22290     825.7495     435.0451   1417.22290     825.7495     435.0451
   1417.20764     827.5267     435.6791   1417.20764     827.5267     435.6791
   1417.19238     827.1180     435.6464   1417.19238     827.1180     435.6464
   1417.17712     828.4545     436.9124   1417.17712     828.4545     436.9124
   1417.16187     828.8856     438.5529   1417.16187     828.8856     438.5529
   1417.14661     828.6235     438.9726   1417.14661     828.6235     438.9726
   1417.13135     830.8510     439.8202   1417.13135     830.8510     439.8202
   1417.11609     831.2495     440.7492   1417.11609     831.2495     440.7492
   1417.10083     831.4702     441.7061   1417.10083     831.4702     441.7061
   1417.08557     832.2260     442.4502   1417.08557     832.2260     442.4502
   1417.07031     831.7382     444.2570   1417.07031     831.7382     444.2570
   1417.05505     833.4905     444.7870   1417.05505     833.4905     444.7870
   1417.03979     834.1080     445.6377   1417.03979     834.1080     445.6377
   1417.02454     835.3011     446.3363   1417.02454     835.3011     446.3363
   1417.00928     835.5644     446.9912   1417.00928     835.5644     446.9912
   1416.99402     837.6750     448.4636   1416.99402     837.6750     448.4636
   1416.97876     837.4810     448.8295   1416.97876     837.4810     448.8295
   1416.96350     837.8198     449.8055   1416.96350     837.8198     449.8055
   1416.94824     837.4749     451.3754   1416.94824     837.4749     451.3754
   1416.93298     837.4003     450.7098   1416.93298     837.4003     450.7098
   1416.91772     838.2451     452.9070   1416.91772     838.2451     452.9070
   1416.90247     838.7971     453.0761   1416.90247     838.7971     453.0761
   1416.88721     838.5838     453.9410   1416.88721     838.5838     453.9410
   1416.87195     839.9118     454.2002   1416.87195     839.9118     454.2002
   1416.85669     841.2643     455.2218   1416.85669     841.2643     455.2218
   1416.84143     840.4384     455.8557   1416.84143     840.4384     455.8557
   1416.82617     842.1712     456.2549   1416.82617     842.1712     456.2549
   1416.81091     842.7057     457.5120   1416.81091     842.7057     457.5120
   1416.79565     843.3805     457.9855   1416.79565     843.3805     457.9855
   1416.78040     842.4909     458.4833   1416.78040     842.4909     458.4833
   1416.76514     842.5544     458.7017   1416.76514     842.5544     458.7017
   1416.74988     843.2595     459.3693   1416.74988     843.2595     459.3693
   1416.73462     843.3237     459.9496   1416.73462     843.3237     459.9496
   1416.71936     844.1392     460.7950   1416.71936     844.1392     460.7950
   1416.70410     845.0878     461.0531   1416.70410     845.0878     461.0531
   1416.68884     844.9041     461.7561   1416.68884     844.9041     461.7561
   1416.67358     844.0481     462.5428   1416.67358     844.0481     462.5428
   1416.65833     845.1840     463.0399   1416.65833     845.1840     463.0399
   1416.64307     845.3171     461.9700   1416.64307     845.3171     461.9700
   1416.62781     845.1651     463.1320   1416.62781     845.1651     463.1320
   1416.61255     848.4167     463.6157   1416.61255     848.4167     463.6157
   1416.59729     849.8634     464.1221   1416.59729     849.8634     464.1221
   1416.58203     847.2379     464.3329   1416.58203     847.2379     464.3329
   1416.56677     845.6791     464.2657   1416.56677     845.6791     464.2657
   1416.55151     845.3399     464.6387   1416.55151     845.3399     464.6387
   1416.53625     846.7280     465.2928   1416.53625     846.7280     465.2928
   1416.52100     845.3085     465.5790   1416.52100     845.3085     465.5790
   1416.50574     845.9179     465.9898   1416.50574     845.9179     465.9898
   1416.49048     845.9286     465.9409   1416.49048     845.9286     465.9409
   1416.47522     846.0154     465.9982   1416.47522     846.0154     465.9982
   1416.45996     845.3506     466.3294   1416.45996     845.3506     466.3294
   1416.44470     845.1740     466.1033   1416.44470     845.1740     466.1033
   1416.42944     845.6961     466.0742   1416.42944     845.6961     466.0742
   1416.41418     846.3790     465.5458   1416.41418     846.3790     465.5458
   1416.39893     845.6586     466.8439   1416.39893     845.6586     466.8439
   1416.38367     844.8807     467.0053   1416.38367     844.8807     467.0053
   1416.36841     845.7882     466.7841   1416.36841     845.7882     466.7841
   1416.35315     845.1444     466.3909   1416.35315     845.1444     466.3909
   1416.33789     845.0992     467.2210   1416.33789     845.0992     467.2210
   1416.32263     844.9637     467.6332   1416.32263     844.9637     467.6332
   1416.30737     844.1454     466.8368   1416.30737     844.1454     466.8368
   1416.29211     843.0009     466.8340   1416.29211     843.0009     466.8340
   1416.27686     843.6254     465.8858   1416.27686     843.6254     465.8858
   1416.26160     842.2054     465.7784   1416.26160     842.2054     465.7784
   1416.24634     843.5549     466.2955   1416.24634     843.5549     466.2955
   1416.23108     843.1364     465.0028   1416.23108     843.1364     465.0028
   1416.21582     846.9349     466.0767   1416.21582     846.9349     466.0767
   1416.20056     841.5975     465.4462   1416.20056     841.5975     465.4462
   1416.18530     841.1442     465.3480   1416.18530     841.1442     465.3480
   1416.17004     841.9556     464.3244   1416.17004     841.9556     464.3244
   1416.15479     841.3521     464.5907   1416.15479     841.3521     464.5907
   1416.13953     840.5916     463.7177   1416.13953     840.5916     463.7177
   1416.12427     839.2809     463.4174   1416.12427     839.2809     463.4174
   1416.10901     837.6266     464.2244   1416.10901     837.6266     464.2244
   1416.09375     839.2399     463.1411   1416.09375     839.2399     463.1411
   1416.07849     838.3161     462.7014   1416.07849     838.3161     462.7014
   1416.06323     837.4814     461.8787   1416.06323     837.4814     461.8787
   1416.04797     837.0773     461.9167   1416.04797     837.0773     461.9167
   1416.03271     836.4214     461.4728   1416.03271     836.4214     461.4728
   1416.01746     834.6837     461.7183   1416.01746     834.6837     461.7183
   1416.00220     835.2371     460.8097   1416.00220     835.2371     460.8097
   1415.98694     833.6949     460.0665   1415.98694     833.6949     460.0665
   1415.97168     834.7210     460.5057   1415.97168     834.7210     460.5057
   1415.95642     834.1617     460.0981   1415.95642     834.1617     460.0981
   1415.94116     832.0544     459.0128   1415.94116     832.0544     459.0128
   1415.92590     832.0806     458.5379   1415.92590     832.0806     458.5379
   1415.91064     830.8634     458.2664   1415.91064     830.8634     458.2664
   1415.89539     830.8864     457.5763   1415.89539     830.8864     457.5763
   1415.88013     829.0494     457.3363   1415.88013     829.0494     457.3363
   1415.86487     829.1104     456.7794   1415.86487     829.1104     456.7794
   1415.84961     827.9731     455.6874   1415.84961     827.9731     455.6874
   1415.83435     831.8763     455.7589   1415.83435     831.8763     455.7589
   1415.81909     825.6729     455.1925   1415.81909     825.6729     455.1925
   1415.80383     825.4582     454.7283   1415.80383     825.4582     454.7283
   1415.78857     824.7711     453.9100   1415.78857     824.7711     453.9100
   1415.77332     823.8840     452.9590   1415.77332     823.8840     452.9590
   1415.75806     821.9937     451.7816   1415.75806     821.9937     451.7816
   1415.74280     823.2700     451.8901   1415.74280     823.2700     451.8901
   1415.72754     821.2346     451.2895   1415.72754     821.2346     451.2895
   1415.71228     821.9919     450.4688   1415.71228     821.9919     450.4688
   1415.69702     819.4599     450.0791   1415.69702     819.4599     450.0791
   1415.68176     818.9371     449.8480   1415.68176     818.9371     449.8480
   1415.66650     818.1423     448.6647   1415.66650     818.1423     448.6647
   1415.65125     819.3093     447.6097   1415.65125     819.3093     447.6097
   1415.63599     816.4471     447.5361   1415.63599     816.4471     447.5361
   1415.62073     816.1526     447.2395   1415.62073     816.1526     447.2395
   1415.60547     814.1440     446.6438   1415.60547     814.1440     446.6438
   1415.59021     814.1751     445.8411   1415.59021     814.1751     445.8411
   1415.57495     813.3469     444.9334   1415.57495     813.3469     444.9334
   1415.55969     811.8156     443.5742   1415.55969     811.8156     443.5742
   1415.54443     811.5125     443.1027   1415.54443     811.5125     443.1027
   1415.52917     810.0452     442.1501   1415.52917     810.0452     442.1501
   1415.51392     807.3799     441.9399   1415.51392     807.3799     441.9399
   1415.49866     807.9850     441.4873   1415.49866     807.9850     441.4873
   1415.48340     806.3220     440.3624   1415.48340     806.3220     440.3624
   1415.46814     804.9813     440.0821   1415.46814     804.9813     440.0821
   1415.45288     812.9828     438.8783   1415.45288     812.9828     438.8783
   1415.43762     802.6351     438.1024   1415.43762     802.6351     438.1024
   1415.42236     801.9991     437.8744   1415.42236     801.9991     437.8744
   1415.40710     800.3286     435.9166   1415.40710     800.3286     435.9166
   1415.39185     799.5490     435.9073   1415.39185     799.5490     435.9073
   1415.37659     797.7227     434.9824   1415.37659     797.7227     434.9824
   1415.36133     796.8961     434.8800   1415.36133     796.8961     434.8800
   1415.34607     796.4384     433.3957   1415.34607     796.4384     433.3957
   1415.33081     794.8123     432.8039   1415.33081     794.8123     432.8039
   1415.31555     794.6895     432.0504   1415.31555     794.6895     432.0504
   1415.30029     792.5410     431.3085   1415.30029     792.5410     431.3085
   1415.28503     792.0879     429.7034   1415.28503     792.0879     429.7034
   1415.26978     789.3818     429.4113   1415.26978     789.3818     429.4113
   1415.25452     787.6491     429.3259   1415.25452     787.6491     429.3259
   1415.23926     786.4472     427.5846   1415.23926     786.4472     427.5846
   1415.22400     784.4985     426.9233   1415.22400     784.4985     426.9233
   1415.20874     784.9554     425.9539   1415.20874     784.9554     425.9539
   1415.19348     783.0942     425.5177   1415.19348     783.0942     425.5177
   1415.17822     781.0640     424.4581   1415.17822     781.0640     424.4581
   1415.16296     780.3392     423.6635   1415.16296     780.3392     423.6635
   1415.14771     778.3781     422.5141   1415.14771     778.3781     422.5141
   1415.13245     776.7255     421.3712   1415.13245     776.7255     421.3712
   1415.11719     774.4457     420.5110   1415.11719     774.4457     420.5110
   1415.10193     773.4731     419.5571   1415.10193     773.4731     419.5571
   1415.08667     772.4665     418.9400   1415.08667     772.4665     418.9400
   1415.07141     771.2409     418.3796   1415.07141     771.2409     418.3796
   1415.05615     767.4062     417.6700   1415.05615     767.4062     417.6700
   1415.04089     767.3227     416.2706   1415.04089     767.3227     416.2706
   1415.02563     765.2241     415.1315   1415.02563     765.2241     415.1315
   1415.01038     764.1618     414.1152   1415.01038     764.1618     414.1152
   1414.99512     760.9904     413.5063   1414.99512     760.9904     413.5063
   1414.97986     761.4462     412.7121   1414.97986     761.4462     412.7121
   1414.96460     758.9759     411.5161   1414.96460     758.9759     411.5161
   1414.94934     757.5562     410.0400   1414.94934     757.5562     410.0400
   1414.93408     756.2766     409.4885   1414.93408     756.2766     409.4885
   1414.91882     753.5806     408.8800   1414.91882     753.5806     408.8800
   1414.90356     751.5884     407.0588   1414.90356     751.5884     407.0588
   1414.88831     749.4529     405.7309   1414.88831     749.4529     405.7309
   1414.87305     747.9768     405.0253   1414.87305     747.9768     405.0253
   1414.85779     744.7912     403.7881   1414.85779     744.7912     403.7881
   1414.84253     744.2247     403.3998   1414.84253     744.2247     403.3998
   1414.82727     741.8005     402.2625   1414.82727     741.8005     402.2625
   1414.81201     741.7137     401.1913   1414.81201     741.7137     401.1913
   1414.79675     739.0589     400.3300   1414.79675     739.0589     400.3300
   1414.78149     737.0028     399.5840   1414.78149     737.0028     399.5840
   1414.76624     735.4396     397.5506   1414.76624     735.4396     397.5506
   1414.75098     733.4894     396.6755   1414.75098     733.4894     396.6755
   1414.73572     730.8448     396.0925   1414.73572     730.8448     396.0925
   1414.72046     728.5549     394.5197   1414.72046     728.5549     394.5197
   1414.70520     726.0122     393.3010   1414.70520     726.0122     393.3010
   1414.68994     726.2341     392.3107   1414.68994     726.2341     392.3107
   1414.67468     721.6012     391.4667   1414.67468     721.6012     391.4667
   1414.65942     720.8727     389.9081   1414.65942     720.8727     389.9081
   1414.64417     717.9778     389.2000   1414.64417     717.9778     389.2000
   1414.62891     715.8105     387.2220   1414.62891     715.8105     387.2220
   1414.61365     713.3589     386.8091   1414.61365     713.3589     386.8091
   1414.59839     710.8860     385.5884   1414.59839     710.8860     385.5884
   1414.58313     708.9979     384.4008   1414.58313     708.9979     384.4008
   1414.56787     706.9133     383.0776   1414.56787     706.9133     383.0776
   1414.55261     704.5768     382.3165   1414.55261     704.5768     382.3165
   1414.53735     703.3284     380.4607   1414.53735     703.3284     380.4607
   1414.52209     700.7637     378.9424   1414.52209     700.7637     378.9424
   1414.50684     699.0859     378.5262   1414.50684     699.0859     378.5262
   1414.49158     695.5944     377.1621   1414.49158     695.5944     377.1621
   1414.47632     694.0702     375.5619   1414.47632     694.0702     375.5619
   1414.46106     690.7560     374.4989   1414.46106     690.7560     374.4989
   1414.44580     688.1951     373.6030   1414.44580     688.1951     373.6030
   1414.43054     686.0166     372.4269   1414.43054     686.0166     372.4269
   1414.41528     683.7417     371.0373   1414.41528     683.7417     371.0373
   1414.40002     681.8943     370.0908   1414.40002     681.8943     370.0908
   1414.38477     678.2306     368.2397   1414.38477     678.2306     368.2397
   1414.36951     676.3710     366.8604   1414.36951     676.3710     366.8604
   1414.35425     674.8460     365.2221   1414.35425     674.8460     365.2221
   1414.33899     671.4894     364.0432   1414.33899     671.4894     364.0432
   1414.32373     668.4646     362.9955   1414.32373     668.4646     362.9955
   1414.30847     667.1239     361.6341   1414.30847     667.1239     361.6341
   1414.29321     663.8953     360.1115   1414.29321     663.8953     360.1115
   1414.27795     661.1685     358.9823   1414.27795     661.1685     358.9823
   1414.26270     657.9421     357.6832   1414.26270     657.9421     357.6832
   1414.24744     655.3002     356.7807   1414.24744     655.3002     356.7807
   1414.23218     652.3981     354.7986   1414.23218     652.3981     354.7986
   1414.21692     649.2389     353.6389   1414.21692     649.2389     353.6389
   1414.20166     648.2050     352.2995   1414.20166     648.2050     352.2995
   1414.18640     643.8127     350.8655   1414.18640     643.8127     350.8655
   1414.17114     642.1140     349.6824   1414.17114     642.1140     349.6824
   1414.15588     639.6352     348.5811   1414.15588     639.6352     348.5811
   1414.14062     636.6997     346.4016   1414.14062     636.6997     346.4016
   1414.12537     633.5309     345.5048   1414.12537     633.5309     345.5048
   1414.11011     631.5976     343.8847   1414.11011     631.5976     343.8847
   1414.09485     628.5283     342.6338   1414.09485     628.5283     342.6338
   1414.07959     625.5099     341.3043   1414.07959     625.5099     341.3043
   1414.06433     622.0681     339.4806   1414.06433     622.0681     339.4806
   1414.04907     619.0178     338.3654   1414.04907     619.0178     338.3654
   1414.03381     617.0703     337.1790   1414.03381     617.0703     337.1790
   1414.01855     614.6633     335.6544   1414.01855     614.6633     335.6544
   1414.00330     641.9274     343.2099   1414.00330     641.9274     343.2099
   1413.98804     611.6216     332.8791   1413.98804     611.6216     332.8791
   1413.97278     605.1824     331.3348   1413.97278     605.1824     331.3348
   1413.95752     603.3745     329.7135   1413.95752     603.3745     329.7135
   1413.94226     598.8253     328.6415   1413.94226     598.8253     328.6415
   1413.92700     596.6539     327.1098   1413.92700     596.6539     327.1098
   1413.91174     593.9090     325.4860   1413.91174     593.9090     325.4860
   1413.89648     590.7794     324.5609   1413.89648     590.7794     324.5609
   1413.88123     587.7819     322.8355   1413.88123     587.7819     322.8355
   1413.86597     584.5047     321.2822   1413.86597     584.5047     321.2822
   1413.85071     581.3397     319.8122   1413.85071     581.3397     319.8122
   1413.83545     578.5934     318.4922   1413.83545     578.5934     318.4922
   1413.82019     576.0786     316.7562   1413.82019     576.0786     316.7562
   1413.80493     572.8141     315.4189   1413.80493     572.8141     315.4189
   1413.78967     569.2433     313.8576   1413.78967     569.2433     313.8576
   1413.77441     566.6849     312.6153   1413.77441     566.6849     312.6153
   1413.75916     564.5054     310.8524   1413.75916     564.5054     310.8524
   1413.74390     560.9676     309.9231   1413.74390     560.9676     309.9231
   1413.72864     558.6374     308.0036   1413.72864     558.6374     308.0036
   1413.71338     555.2331     306.8327   1413.71338     555.2331     306.8327
   1413.69812     552.0718     305.6632   1413.69812     552.0718     305.6632
   1413.68286     549.1107     303.8976   1413.68286     549.1107     303.8976
   1413.66760     547.1429     302.8885   1413.66760     547.1429     302.8885
   1413.65234     543.8902     301.0648   1413.65234     543.8902     301.0648
   1413.63708     540.1216     300.1212   1413.63708     540.1216     300.1212
   1413.62183     537.4232     298.4275   1413.62183     537.4232     298.4275
   1413.60657     534.5453     296.7733   1413.60657     534.5453     296.7733
   1413.59131     531.0873     295.9012   1413.59131     531.0873     295.9012
   1413.57605     528.8880     293.9809   1413.57605     528.8880     293.9809
   1413.56079     525.2236     292.6980   1413.56079     525.2236     292.6980
   1413.54553     523.6550     291.2039   1413.54553     523.6550     291.2039
   1413.53027     519.7791     290.0997   1413.53027     519.7791     290.0997
   1413.51501     516.5795     288.0587   1413.51501     516.5795     288.0587
   1413.49976     513.2458     287.3278   1413.49976     513.2458     287.3278
   1413.48450     511.0704     285.4314   1413.48450     511.0704     285.4314
   1413.46924     507.3451     284.1364   1413.46924     507.3451     284.1364
   1413.45398     504.5746     282.8695   1413.45398     504.5746     282.8695
   1413.43872     502.5031     281.4395   1413.43872     502.5031     281.4395
   1413.42346     499.7994     279.9669   1413.42346     499.7994     279.9669
   1413.40820     496.9014     279.0022   1413.40820     496.9014     279.0022
   1413.39294     493.9127     278.0018   1413.39294     493.9127     278.0018
   1413.37769     491.1528     276.2867   1413.37769     491.1528     276.2867
   1413.36243     487.6325     274.9596   1413.36243     487.6325     274.9596
   1413.34717     485.5883     273.5431   1413.34717     485.5883     273.5431
   1413.33191     482.8695     272.6033   1413.33191     482.8695     272.6033
   1413.31665     479.4931     271.1093   1413.31665     479.4931     271.1093
   1413.30139     476.9113     270.2798   1413.30139     476.9113     270.2798
   1413.28613     474.8421     268.7399   1413.28613     474.8421     268.7399
   1413.27087     471.9535     267.5043   1413.27087     471.9535     267.5043
   1413.25562     468.8275     266.6887   1413.25562     468.8275     266.6887
   1413.24036     467.0729     264.7773   1413.24036     467.0729     264.7773
   1413.22510     464.4689     264.2013   1413.22510     464.4689     264.2013
   1413.20984     461.2640     263.0517   1413.20984     461.2640     263.0517
   1413.19458     458.9279     261.3220   1413.19458     458.9279     261.3220
   1413.17932     456.4430     260.6930   1413.17932     456.4430     260.6930
   1413.16406     455.0353     259.9832   1413.16406     455.0353     259.9832
   1413.14880     451.9219     258.5936   1413.14880     451.9219     258.5936
   1413.13354     450.0150     257.3988   1413.13354     450.0150     257.3988
   1413.11829     447.2513     256.1988   1413.11829     447.2513     256.1988
   1413.10303     444.4157     255.5776   1413.10303     444.4157     255.5776
   1413.08777     442.4687     254.2096   1413.08777     442.4687     254.2096
   1413.07251     439.7094     252.8979   1413.07251     439.7094     252.8979
   1413.05725     437.7430     252.2556   1413.05725     437.7430     252.2556
   1413.04199     435.4497     251.7589   1413.04199     435.4497     251.7589
   1413.02673     434.2937     250.5076   1413.02673     434.2937     250.5076
   1413.01147     431.3274     249.8974   1413.01147     431.3274     249.8974
   1412.99622     428.9066     248.8413   1412.99622     428.9066     248.8413
   1412.98096     426.8622     247.8846   1412.98096     426.8622     247.8846
   1412.96570     425.2360     247.2208   1412.96570     425.2360     247.2208
   1412.95044     422.4130     246.1000   1412.95044     422.4130     246.1000
   1412.93518     420.4867     245.3632   1412.93518     420.4867     245.3632
   1412.91992     419.3818     244.6629   1412.91992     419.3818     244.6629
   1412.90466     417.1722     244.0027   1412.90466     417.1722     244.0027
   1412.88940     415.2980     242.9831   1412.88940     415.2980     242.9831
   1412.87415     413.5938     242.8601   1412.87415     413.5938     242.8601
   1412.85889     412.0137     242.1206   1412.85889     412.0137     242.1206
   1412.84363     410.3300     241.3519   1412.84363     410.3300     241.3519
   1412.82837     408.5326     241.2309   1412.82837     408.5326     241.2309
   1412.81311     407.1231     240.3887   1412.81311     407.1231     240.3887
   1412.79785     405.0536     239.9090   1412.79785     405.0536     239.9090
   1412.78259     404.1202     239.2894   1412.78259     404.1202     239.2894
   1412.76733     402.6700     238.9566   1412.76733     402.6700     238.9566
   1412.75208     400.7265     238.5280   1412.75208     400.7265     238.5280
   1412.73682     399.6380     238.0789   1412.73682     399.6380     238.0789
   1412.72156     398.5915     237.6708   1412.72156     398.5915     237.6708
   1412.70630     396.9290     237.4361   1412.70630     396.9290     237.4361
   1412.69104     395.6300     237.4389   1412.69104     395.6300     237.4389
   1412.67578     394.7089     236.8566   1412.67578     394.7089     236.8566
   1412.66052     393.2057     236.7137   1412.66052     393.2057     236.7137
   1412.64526     392.3373     236.3981   1412.64526     392.3373     236.3981
   1412.63000     391.3719     236.2467   1412.63000     391.3719     236.2467
   1412.61475     390.5291     235.7294   1412.61475     390.5291     235.7294
   1412.59949     389.9762     235.9216   1412.59949     389.9762     235.9216
   1412.58423     388.7020     236.2039   1412.58423     388.7020     236.2039
   1412.56897     387.4164     236.3264   1412.56897     387.4164     236.3264
   1412.55371     387.0624     235.9745   1412.55371     387.0624     235.9745
   1412.53845     386.8370     236.6344   1412.53845     386.8370     236.6344
   1412.52319     385.3637     236.1120   1412.52319     385.3637     236.1120
   1412.50793     385.4592     236.1481   1412.50793     385.4592     236.1481
   1412.49268     384.5286     236.2904   1412.49268     384.5286     236.2904
   1412.47742     384.3090     236.6000   1412.47742     384.3090     236.6000
   1412.46216     383.5339     236.9734   1412.46216     383.5339     236.9734
   1412.44690     383.5470     236.9778   1412.44690     383.5470     236.9778
   1412.43164     382.9921     237.8483   1412.43164     382.9921     237.8483
   1412.41638     382.7781     237.7827   1412.41638     382.7781     237.7827
   1412.40112     383.3084     238.2313   1412.40112     383.3084     238.2313
   1412.38586     383.0589     238.5975   1412.38586     383.0589     238.5975
   1412.37061     382.5397     239.0548   1412.37061     382.5397     239.0548
   1412.35535     382.2837     239.2892   1412.35535     382.2837     239.2892
   1412.34009     382.9396     239.5093   1412.34009     382.9396     239.5093
   1412.32483     382.6039     240.3976   1412.32483     382.6039     240.3976
   1412.30957     382.4509     240.8242   1412.30957     382.4509     240.8242
   1412.29431     383.2501     241.5094   1412.29431     383.2501     241.5094
   1412.27905     383.4035     242.4194   1412.27905     383.4035     242.4194
   1412.26379     383.0868     243.1769   1412.26379     383.0868     243.1769
   1412.24854     383.8854     243.7869   1412.24854     383.8854     243.7869
   1412.23328     384.4648     244.5233   1412.23328     384.4648     244.5233
   1412.21802     385.2837     245.5324   1412.21802     385.2837     245.5324
   1412.20276     386.2718     246.6058   1412.20276     386.2718     246.6058