#     FILENAME=!Skynet_57528_lach-hhg-118_20395_20942.cyb.fits
#     BASENAME=Skynet_57528_lach-hhg-118_20395_20942
#     SRC_NAME=lach-hhg-118
#     OBSERVER=hhgmadison16_9500
#     DATE_OBS=2016-05-20T16:33:39.560
#        OBSID=20395
#      SCANNUM=20942
#          MJD=57528.6911
#          UTC=59709
#     SCANTYPE=track
#     DATAMODE=HIRES
#     TUNEFREQ=1420.0000
# Actual_FREQ1=1420.0000
# Actual_FREQ2=1420.0000
#    LO1Tuning=6870.000
#     RFFILTER=1355_1435
#        OBSBW=-15.6250
#        NCHAN=1024 
#        FOCUS=37.0709
#           RA=00:08:34.86
#          DEC=62:27:36.75
#      RA(hrs)=0.143000
#     DEC(deg)=62.460200
#    AZIM(deg)=325.972
#    ELEV(deg)=53.696
#     IFattens=10.00, 9.00
#      WARNING=None
#    TCAL_XL1=7.9635
#    TCAL_YR1=9.1340
#    TCAL_XL2=7.9635
#    TCAL_YR2=9.1340
#     TRX_XL1=11.7060
#     TRX_YR1=11.7060
#     TRX_XL2=11.7060
#     TRX_YR2=11.7060
#        TAVE=1.0000
#Freq1(MHz)          XL1          YR1  Freq2(MHz)          XL2          YR2 

   1427.81250     380.6363     279.9534   1427.81250     380.6363     279.9534
   1427.79724     381.0286     280.6752   1427.79724     381.0286     280.6752
   1427.78198     381.4744     281.0674   1427.78198     381.4744     281.0674
   1427.76672     382.4642     281.9105   1427.76672     382.4642     281.9105
   1427.75146     382.8145     283.0905   1427.75146     382.8145     283.0905
   1427.73621     383.8065     283.9657   1427.73621     383.8065     283.9657
   1427.72095     384.3017     285.1379   1427.72095     384.3017     285.1379
   1427.70569     386.2264     285.5862   1427.70569     386.2264     285.5862
   1427.69043     387.2982     286.6695   1427.69043     387.2982     286.6695
   1427.67517     387.8011     287.5953   1427.67517     387.8011     287.5953
   1427.65991     389.5094     288.2553   1427.65991     389.5094     288.2553
   1427.64465     390.2628     289.6428   1427.64465     390.2628     289.6428
   1427.62939     391.4799     291.1422   1427.62939     391.4799     291.1422
   1427.61414     393.1635     292.3033   1427.61414     393.1635     292.3033
   1427.59888     393.6241     293.7533   1427.59888     393.6241     293.7533
   1427.58362     395.5904     294.2080   1427.58362     395.5904     294.2080
   1427.56836     397.6636     295.8543   1427.56836     397.6636     295.8543
   1427.55310     399.0956     297.2155   1427.55310     399.0956     297.2155
   1427.53784     399.9753     298.8351   1427.53784     399.9753     298.8351
   1427.52258     401.7905     300.2217   1427.52258     401.7905     300.2217
   1427.50732     403.1454     301.3897   1427.50732     403.1454     301.3897
   1427.49207     405.7441     303.1145   1427.49207     405.7441     303.1145
   1427.47681     407.5270     304.5591   1427.47681     407.5270     304.5591
   1427.46155     409.1411     306.2913   1427.46155     409.1411     306.2913
   1427.44629     410.6492     307.9594   1427.44629     410.6492     307.9594
   1427.43103     412.8047     309.5602   1427.43103     412.8047     309.5602
   1427.41577     414.3856     311.7146   1427.41577     414.3856     311.7146
   1427.40051     416.9534     312.7711   1427.40051     416.9534     312.7711
   1427.38525     418.0930     314.9825   1427.38525     418.0930     314.9825
   1427.37000     419.4809     316.8343   1427.37000     419.4809     316.8343
   1427.35474     422.1252     318.4427   1427.35474     422.1252     318.4427
   1427.33948     424.3438     320.1164   1427.33948     424.3438     320.1164
   1427.32422     426.6146     321.9518   1427.32422     426.6146     321.9518
   1427.30896     428.9202     323.4353   1427.30896     428.9202     323.4353
   1427.29370     431.9135     325.2805   1427.29370     431.9135     325.2805
   1427.27844     433.7397     327.5010   1427.27844     433.7397     327.5010
   1427.26318     436.7100     329.4450   1427.26318     436.7100     329.4450
   1427.24792     438.3121     331.9264   1427.24792     438.3121     331.9264
   1427.23267     441.1908     334.0593   1427.23267     441.1908     334.0593
   1427.21741     443.3412     335.9803   1427.21741     443.3412     335.9803
   1427.20215     445.8771     337.8358   1427.20215     445.8771     337.8358
   1427.18689     448.8181     339.7636   1427.18689     448.8181     339.7636
   1427.17163     450.9566     342.2182   1427.17163     450.9566     342.2182
   1427.15637     452.8063     344.3214   1427.15637     452.8063     344.3214
   1427.14111     456.6595     346.5771   1427.14111     456.6595     346.5771
   1427.12585     458.3994     348.7342   1427.12585     458.3994     348.7342
   1427.11060     461.3389     350.8398   1427.11060     461.3389     350.8398
   1427.09534     463.9242     353.3532   1427.09534     463.9242     353.3532
   1427.08008     466.8795     355.3394   1427.08008     466.8795     355.3394
   1427.06482     469.6120     357.7541   1427.06482     469.6120     357.7541
   1427.04956     472.0633     360.4132   1427.04956     472.0633     360.4132
   1427.03430     475.2088     362.9511   1427.03430     475.2088     362.9511
   1427.01904     478.3240     364.9288   1427.01904     478.3240     364.9288
   1427.00378     481.1490     367.1578   1427.00378     481.1490     367.1578
   1426.98853     483.7025     368.9240   1426.98853     483.7025     368.9240
   1426.97327     486.3780     372.5606   1426.97327     486.3780     372.5606
   1426.95801     489.1642     374.5432   1426.95801     489.1642     374.5432
   1426.94275     493.0616     377.1472   1426.94275     493.0616     377.1472
   1426.92749     495.8542     379.4321   1426.92749     495.8542     379.4321
   1426.91223     499.1819     381.6826   1426.91223     499.1819     381.6826
   1426.89697     502.6467     384.4943   1426.89697     502.6467     384.4943
   1426.88171     504.2848     387.3306   1426.88171     504.2848     387.3306
   1426.86646     507.6640     389.2794   1426.86646     507.6640     389.2794
   1426.85120     510.9026     392.5094   1426.85120     510.9026     392.5094
   1426.83594     513.6946     394.6852   1426.83594     513.6946     394.6852
   1426.82068     516.7573     396.7666   1426.82068     516.7573     396.7666
   1426.80542     519.4611     399.6002   1426.80542     519.4611     399.6002
   1426.79016     523.8835     402.0309   1426.79016     523.8835     402.0309
   1426.77490     525.8019     404.4400   1426.77490     525.8019     404.4400
   1426.75964     529.3944     406.8818   1426.75964     529.3944     406.8818
   1426.74438     532.8192     410.0336   1426.74438     532.8192     410.0336
   1426.72913     535.6794     412.1869   1426.72913     535.6794     412.1869
   1426.71387     539.5144     414.7754   1426.71387     539.5144     414.7754
   1426.69861     542.0411     416.6386   1426.69861     542.0411     416.6386
   1426.68335     544.7443     420.4624   1426.68335     544.7443     420.4624
   1426.66809     547.1640     422.3143   1426.66809     547.1640     422.3143
   1426.65283     551.0696     425.8899   1426.65283     551.0696     425.8899
   1426.63757     554.1612     427.5427   1426.63757     554.1612     427.5427
   1426.62231     558.5092     430.3708   1426.62231     558.5092     430.3708
   1426.60706     560.8399     432.6844   1426.60706     560.8399     432.6844
   1426.59180     563.0215     435.3661   1426.59180     563.0215     435.3661
   1426.57654     565.8871     438.1050   1426.57654     565.8871     438.1050
   1426.56128     569.6928     440.7290   1426.56128     569.6928     440.7290
   1426.54602     572.7756     442.4324   1426.54602     572.7756     442.4324
   1426.53076     576.2476     445.8901   1426.53076     576.2476     445.8901
   1426.51550     579.0367     447.7548   1426.51550     579.0367     447.7548
   1426.50024     581.6635     450.5624   1426.50024     581.6635     450.5624
   1426.48499     585.1018     452.5618   1426.48499     585.1018     452.5618
   1426.46973     588.5208     456.4117   1426.46973     588.5208     456.4117
   1426.45447     591.2501     459.0221   1426.45447     591.2501     459.0221
   1426.43921     593.8963     460.9246   1426.43921     593.8963     460.9246
   1426.42395     597.1210     463.7559   1426.42395     597.1210     463.7559
   1426.40869     600.2910     465.2899   1426.40869     600.2910     465.2899
   1426.39343     603.3979     467.9031   1426.39343     603.3979     467.9031
   1426.37817     606.7123     471.6612   1426.37817     606.7123     471.6612
   1426.36292     609.1323     472.8137   1426.36292     609.1323     472.8137
   1426.34766     612.4616     476.1111   1426.34766     612.4616     476.1111
   1426.33240     614.7921     478.5386   1426.33240     614.7921     478.5386
   1426.31714     617.7856     481.1610   1426.31714     617.7856     481.1610
   1426.30188     620.6899     482.5540   1426.30188     620.6899     482.5540
   1426.28662     623.5693     485.8821   1426.28662     623.5693     485.8821
   1426.27136     626.0043     488.3276   1426.27136     626.0043     488.3276
   1426.25610     628.5925     490.3043   1426.25610     628.5925     490.3043
   1426.24084     631.9686     492.5695   1426.24084     631.9686     492.5695
   1426.22559     635.0305     494.2419   1426.22559     635.0305     494.2419
   1426.21033     637.5465     497.8387   1426.21033     637.5465     497.8387
   1426.19507     639.8983     500.4735   1426.19507     639.8983     500.4735
   1426.17981     643.8104     502.5344   1426.17981     643.8104     502.5344
   1426.16455     645.5369     504.3496   1426.16455     645.5369     504.3496
   1426.14929     648.4113     506.4026   1426.14929     648.4113     506.4026
   1426.13403     650.5169     509.6055   1426.13403     650.5169     509.6055
   1426.11877     653.5298     510.9058   1426.11877     653.5298     510.9058
   1426.10352     655.6893     512.6527   1426.10352     655.6893     512.6527
   1426.08826     657.7884     516.0570   1426.08826     657.7884     516.0570
   1426.07300     660.6929     517.6406   1426.07300     660.6929     517.6406
   1426.05774     664.3561     520.6818   1426.05774     664.3561     520.6818
   1426.04248     666.0676     522.8476   1426.04248     666.0676     522.8476
   1426.02722     668.5141     523.8129   1426.02722     668.5141     523.8129
   1426.01196     670.5425     526.6128   1426.01196     670.5425     526.6128
   1425.99670     674.0711     527.6808   1425.99670     674.0711     527.6808
   1425.98145     675.9545     530.4461   1425.98145     675.9545     530.4461
   1425.96619     678.0183     533.2388   1425.96619     678.0183     533.2388
   1425.95093     679.6321     535.1169   1425.95093     679.6321     535.1169
   1425.93567     683.2878     536.1960   1425.93567     683.2878     536.1960
   1425.92041     684.1908     538.8892   1425.92041     684.1908     538.8892
   1425.90515     688.1332     541.1832   1425.90515     688.1332     541.1832
   1425.88989     688.5749     542.8617   1425.88989     688.5749     542.8617
   1425.87463     692.1945     545.6928   1425.87463     692.1945     545.6928
   1425.85938     693.0274     547.1991   1425.85938     693.0274     547.1991
   1425.84412     695.4241     548.1385   1425.84412     695.4241     548.1385
   1425.82886     697.8950     551.3809   1425.82886     697.8950     551.3809
   1425.81360     699.5829     552.7977   1425.81360     699.5829     552.7977
   1425.79834     702.1042     554.6819   1425.79834     702.1042     554.6819
   1425.78308     704.9124     556.1285   1425.78308     704.9124     556.1285
   1425.76782     705.1164     558.3777   1425.76782     705.1164     558.3777
   1425.75256     707.5134     559.8569   1425.75256     707.5134     559.8569
   1425.73730     707.7632     561.9673   1425.73730     707.7632     561.9673
   1425.72205     710.7917     564.1222   1425.72205     710.7917     564.1222
   1425.70679     712.7076     565.4150   1425.70679     712.7076     565.4150
   1425.69153     714.6848     566.5478   1425.69153     714.6848     566.5478
   1425.67627     716.7213     568.4814   1425.67627     716.7213     568.4814
   1425.66101     718.8245     570.2571   1425.66101     718.8245     570.2571
   1425.64575     720.3317     573.4208   1425.64575     720.3317     573.4208
   1425.63049     720.1795     574.3137   1425.63049     720.1795     574.3137
   1425.61523     722.7593     575.7359   1425.61523     722.7593     575.7359
   1425.59998     723.9943     577.8385   1425.59998     723.9943     577.8385
   1425.58472     726.6900     578.3376   1425.58472     726.6900     578.3376
   1425.56946     728.9471     580.7692   1425.56946     728.9471     580.7692
   1425.55420     729.6411     581.7505   1425.55420     729.6411     581.7505
   1425.53894     730.3736     583.4451   1425.53894     730.3736     583.4451
   1425.52368     731.1966     584.4465   1425.52368     731.1966     584.4465
   1425.50842     734.2620     587.1964   1425.50842     734.2620     587.1964
   1425.49316     734.4108     587.7343   1425.49316     734.4108     587.7343
   1425.47791     736.0938     590.4598   1425.47791     736.0938     590.4598
   1425.46265     737.7424     591.2457   1425.46265     737.7424     591.2457
   1425.44739     738.8163     592.9777   1425.44739     738.8163     592.9777
   1425.43213     740.4641     593.8495   1425.43213     740.4641     593.8495
   1425.41687     742.0988     597.3340   1425.41687     742.0988     597.3340
   1425.40161     742.8248     597.0956   1425.40161     742.8248     597.0956
   1425.38635     743.3123     598.8966   1425.38635     743.3123     598.8966
   1425.37109     744.7004     600.5518   1425.37109     744.7004     600.5518
   1425.35583     746.1797     601.2739   1425.35583     746.1797     601.2739
   1425.34058     747.0048     602.4729   1425.34058     747.0048     602.4729
   1425.32532     747.5410     603.9374   1425.32532     747.5410     603.9374
   1425.31006     748.3258     605.4556   1425.31006     748.3258     605.4556
   1425.29480     750.0486     606.2289   1425.29480     750.0486     606.2289
   1425.27954     750.3723     607.8134   1425.27954     750.3723     607.8134
   1425.26428     751.6970     609.4902   1425.26428     751.6970     609.4902
   1425.24902     752.0082     610.1241   1425.24902     752.0082     610.1241
   1425.23376     754.2384     611.6917   1425.23376     754.2384     611.6917
   1425.21851     754.3114     611.7581   1425.21851     754.3114     611.7581
   1425.20325     754.9153     614.5402   1425.20325     754.9153     614.5402
   1425.18799     755.7905     615.5087   1425.18799     755.7905     615.5087
   1425.17273     756.9436     616.1054   1425.17273     756.9436     616.1054
   1425.15747     756.6902     617.4896   1425.15747     756.6902     617.4896
   1425.14221     757.6324     617.7820   1425.14221     757.6324     617.7820
   1425.12695     758.6178     620.3813   1425.12695     758.6178     620.3813
   1425.11169     759.7229     620.7296   1425.11169     759.7229     620.7296
   1425.09644     759.3672     621.8293   1425.09644     759.3672     621.8293
   1425.08118     760.4658     622.4982   1425.08118     760.4658     622.4982
   1425.06592     760.6755     623.7140   1425.06592     760.6755     623.7140
   1425.05066     761.8581     624.9655   1425.05066     761.8581     624.9655
   1425.03540     762.3708     626.4907   1425.03540     762.3708     626.4907
   1425.02014     763.0731     628.3233   1425.02014     763.0731     628.3233
   1425.00488     764.2255     628.1990   1425.00488     764.2255     628.1990
   1424.98962     762.8463     629.7940   1424.98962     762.8463     629.7940
   1424.97437     764.1725     629.7531   1424.97437     764.1725     629.7531
   1424.95911     764.2434     629.9534   1424.95911     764.2434     629.9534
   1424.94385     765.2003     631.6537   1424.94385     765.2003     631.6537
   1424.92859     764.7284     633.2407   1424.92859     764.7284     633.2407
   1424.91333     765.2469     632.8768   1424.91333     765.2469     632.8768
   1424.89807     766.2849     633.3866   1424.89807     766.2849     633.3866
   1424.88281     765.9673     634.8534   1424.88281     765.9673     634.8534
   1424.86755     766.0583     634.9982   1424.86755     766.0583     634.9982
   1424.85229     766.3881     635.9755   1424.85229     766.3881     635.9755
   1424.83704     767.8179     637.7650   1424.83704     767.8179     637.7650
   1424.82178     766.9491     638.8461   1424.82178     766.9491     638.8461
   1424.80652     767.7491     639.4155   1424.80652     767.7491     639.4155
   1424.79126     767.6191     640.5070   1424.79126     767.6191     640.5070
   1424.77600     767.8522     640.9429   1424.77600     767.8522     640.9429
   1424.76074     768.2675     641.1577   1424.76074     768.2675     641.1577
   1424.74548     768.2635     641.7194   1424.74548     768.2635     641.7194
   1424.73022     768.1100     642.2848   1424.73022     768.1100     642.2848
   1424.71497     767.5195     642.9836   1424.71497     767.5195     642.9836
   1424.69971     767.4774     643.4257   1424.69971     767.4774     643.4257
   1424.68445     768.0887     644.1624   1424.68445     768.0887     644.1624
   1424.66919     768.7036     645.5488   1424.66919     768.7036     645.5488
   1424.65393     768.3199     646.6200   1424.65393     768.3199     646.6200
   1424.63867     768.0355     646.0802   1424.63867     768.0355     646.0802
   1424.62341     769.0587     647.7262   1424.62341     769.0587     647.7262
   1424.60815     769.5939     647.6244   1424.60815     769.5939     647.6244
   1424.59290     768.3229     648.7573   1424.59290     768.3229     648.7573
   1424.57764     769.0264     649.0333   1424.57764     769.0264     649.0333
   1424.56238     768.0815     649.2930   1424.56238     768.0815     649.2930
   1424.54712     768.4724     649.8672   1424.54712     768.4724     649.8672
   1424.53186     767.9601     650.4042   1424.53186     767.9601     650.4042
   1424.51660     766.9095     651.0507   1424.51660     766.9095     651.0507
   1424.50134     768.3137     651.1028   1424.50134     768.3137     651.1028
   1424.48608     767.7659     652.8913   1424.48608     767.7659     652.8913
   1424.47083     767.2160     653.2057   1424.47083     767.2160     653.2057
   1424.45557     766.7061     652.9705   1424.45557     766.7061     652.9705
   1424.44031     768.5784     652.6798   1424.44031     768.5784     652.6798
   1424.42505     767.4389     654.6673   1424.42505     767.4389     654.6673
   1424.40979     769.3602     654.3632   1424.40979     769.3602     654.3632
   1424.39453     766.5936     655.3686   1424.39453     766.5936     655.3686
   1424.37927     766.8874     655.9833   1424.37927     766.8874     655.9833
   1424.36401     767.5528     655.5236   1424.36401     767.5528     655.5236
   1424.34875     765.9261     656.5298   1424.34875     765.9261     656.5298
   1424.33350     765.3700     656.2728   1424.33350     765.3700     656.2728
   1424.31824     764.9421     657.3693   1424.31824     764.9421     657.3693
   1424.30298     765.1777     657.0767   1424.30298     765.1777     657.0767
   1424.28772     766.1497     656.9929   1424.28772     766.1497     656.9929
   1424.27246     764.3797     656.6961   1424.27246     764.3797     656.6961
   1424.25720     765.4795     658.7896   1424.25720     765.4795     658.7896
   1424.24194     765.4130     659.5239   1424.24194     765.4130     659.5239
   1424.22668     764.3701     659.1727   1424.22668     764.3701     659.1727
   1424.21143     764.4808     659.2840   1424.21143     764.4808     659.2840
   1424.19617     764.0366     658.9922   1424.19617     764.0366     658.9922
   1424.18091     763.9510     660.0121   1424.18091     763.9510     660.0121
   1424.16565     763.9897     659.6577   1424.16565     763.9897     659.6577
   1424.15039     763.6907     660.0811   1424.15039     763.6907     660.0811
   1424.13513     762.4704     659.7831   1424.13513     762.4704     659.7831
   1424.11987     761.8679     660.8093   1424.11987     761.8679     660.8093
   1424.10461     762.0579     660.2577   1424.10461     762.0579     660.2577
   1424.08936     762.5829     660.9226   1424.08936     762.5829     660.9226
   1424.07410     761.6161     661.8387   1424.07410     761.6161     661.8387
   1424.05884     761.9539     661.3428   1424.05884     761.9539     661.3428
   1424.04358     762.0758     660.8259   1424.04358     762.0758     660.8259
   1424.02832     760.3824     661.5653   1424.02832     760.3824     661.5653
   1424.01306     761.5782     660.7203   1424.01306     761.5782     660.7203
   1423.99780     761.0258     661.0026   1423.99780     761.0258     661.0026
   1423.98254     760.2521     661.8082   1423.98254     760.2521     661.8082
   1423.96729     759.8771     661.8314   1423.96729     759.8771     661.8314
   1423.95203     759.3159     662.2825   1423.95203     759.3159     662.2825
   1423.93677     759.0735     662.6790   1423.93677     759.0735     662.6790
   1423.92151     757.8312     662.0942   1423.92151     757.8312     662.0942
   1423.90625     757.6058     661.1196   1423.90625     757.6058     661.1196
   1423.89099     756.9224     661.1406   1423.89099     756.9224     661.1406
   1423.87573     757.7188     662.3586   1423.87573     757.7188     662.3586
   1423.86047     757.7137     661.3344   1423.86047     757.7137     661.3344
   1423.84521     756.6620     662.1018   1423.84521     756.6620     662.1018
   1423.82996     755.9661     661.1228   1423.82996     755.9661     661.1228
   1423.81470     754.9316     660.5456   1423.81470     754.9316     660.5456
   1423.79944     755.7103     660.3142   1423.79944     755.7103     660.3142
   1423.78418     755.6607     661.0054   1423.78418     755.6607     661.0054
   1423.76892     754.8397     661.2893   1423.76892     754.8397     661.2893
   1423.75366     755.3948     661.5388   1423.75366     755.3948     661.5388
   1423.73840     753.0289     660.8948   1423.73840     753.0289     660.8948
   1423.72314     754.4238     660.8118   1423.72314     754.4238     660.8118
   1423.70789     753.6470     659.2972   1423.70789     753.6470     659.2972
   1423.69263     752.8931     660.6190   1423.69263     752.8931     660.6190
   1423.67737     754.6439     660.1220   1423.67737     754.6439     660.1220
   1423.66211     753.0955     660.3997   1423.66211     753.0955     660.3997
   1423.64685     752.0289     659.1918   1423.64685     752.0289     659.1918
   1423.63159     751.1011     659.2243   1423.63159     751.1011     659.2243
   1423.61633     751.8974     659.1929   1423.61633     751.8974     659.1929
   1423.60107     751.2870     659.2039   1423.60107     751.2870     659.2039
   1423.58582     750.8196     658.3870   1423.58582     750.8196     658.3870
   1423.57056     749.2427     658.0491   1423.57056     749.2427     658.0491
   1423.55530     749.8141     658.3321   1423.55530     749.8141     658.3321
   1423.54004     748.7065     657.9788   1423.54004     748.7065     657.9788
   1423.52478     749.4147     658.5813   1423.52478     749.4147     658.5813
   1423.50952     748.6190     657.6643   1423.50952     748.6190     657.6643
   1423.49426     749.3831     657.2733   1423.49426     749.3831     657.2733
   1423.47900     747.5392     657.4179   1423.47900     747.5392     657.4179
   1423.46375     747.7899     656.6096   1423.46375     747.7899     656.6096
   1423.44849     747.7303     656.0702   1423.44849     747.7303     656.0702
   1423.43323     747.8233     655.2787   1423.43323     747.8233     655.2787
   1423.41797     747.0239     654.8056   1423.41797     747.0239     654.8056
   1423.40271     746.7715     654.6732   1423.40271     746.7715     654.6732
   1423.38745     745.7513     653.7800   1423.38745     745.7513     653.7800
   1423.37219     746.2667     654.2302   1423.37219     746.2667     654.2302
   1423.35693     745.5313     653.9601   1423.35693     745.5313     653.9601
   1423.34167     744.4434     652.6659   1423.34167     744.4434     652.6659
   1423.32642     745.8883     652.3774   1423.32642     745.8883     652.3774
   1423.31116     743.2914     651.5918   1423.31116     743.2914     651.5918
   1423.29590     744.7893     651.2122   1423.29590     744.7893     651.2122
   1423.28064     744.0147     650.6349   1423.28064     744.0147     650.6349
   1423.26538     742.6008     650.2178   1423.26538     742.6008     650.2178
   1423.25012     743.4770     649.5296   1423.25012     743.4770     649.5296
   1423.23486     742.5869     648.7517   1423.23486     742.5869     648.7517
   1423.21960     742.7745     648.8546   1423.21960     742.7745     648.8546
   1423.20435     740.7337     647.9408   1423.20435     740.7337     647.9408
   1423.18909     741.1520     647.3535   1423.18909     741.1520     647.3535
   1423.17383     740.7062     646.6472   1423.17383     740.7062     646.6472
   1423.15857     740.9973     646.5519   1423.15857     740.9973     646.5519
   1423.14331     742.0581     645.2744   1423.14331     742.0581     645.2744
   1423.12805     740.6343     644.7369   1423.12805     740.6343     644.7369
   1423.11279     740.6328     643.2932   1423.11279     740.6328     643.2932
   1423.09753     739.0834     643.6071   1423.09753     739.0834     643.6071
   1423.08228     739.5608     641.9989   1423.08228     739.5608     641.9989
   1423.06702     739.9398     641.4439   1423.06702     739.9398     641.4439
   1423.05176     739.5870     641.2258   1423.05176     739.5870     641.2258
   1423.03650     738.9744     640.4565   1423.03650     738.9744     640.4565
   1423.02124     739.9918     640.2156   1423.02124     739.9918     640.2156
   1423.00598     738.1666     639.0237   1423.00598     738.1666     639.0237
   1422.99072     737.4263     638.2140   1422.99072     737.4263     638.2140
   1422.97546     736.9772     636.2507   1422.97546     736.9772     636.2507
   1422.96021     737.3157     636.4435   1422.96021     737.3157     636.4435
   1422.94495     736.8423     635.4512   1422.94495     736.8423     635.4512
   1422.92969     736.9740     634.9028   1422.92969     736.9740     634.9028
   1422.91443     736.2618     634.4094   1422.91443     736.2618     634.4094
   1422.89917     735.6385     632.7280   1422.89917     735.6385     632.7280
   1422.88391     736.5101     632.4564   1422.88391     736.5101     632.4564
   1422.86865     737.2020     632.0101   1422.86865     737.2020     632.0101
   1422.85339     735.6001     629.7552   1422.85339     735.6001     629.7552
   1422.83813     734.4930     629.6664   1422.83813     734.4930     629.6664
   1422.82288     736.0143     628.9388   1422.82288     736.0143     628.9388
   1422.80762     733.9691     627.9482   1422.80762     733.9691     627.9482
   1422.79236     735.4930     627.7374   1422.79236     735.4930     627.7374
   1422.77710     733.9629     625.1946   1422.77710     733.9629     625.1946
   1422.76184     733.6747     625.9306   1422.76184     733.6747     625.9306
   1422.74658     733.1295     623.9109   1422.74658     733.1295     623.9109
   1422.73132     734.2008     622.8752   1422.73132     734.2008     622.8752
   1422.71606     733.3581     622.7914   1422.71606     733.3581     622.7914
   1422.70081     733.8062     621.7551   1422.70081     733.8062     621.7551
   1422.68555     732.6710     621.4661   1422.68555     732.6710     621.4661
   1422.67029     733.9792     619.1984   1422.67029     733.9792     619.1984
   1422.65503     733.4215     619.0017   1422.65503     733.4215     619.0017
   1422.63977     732.4403     616.8849   1422.63977     732.4403     616.8849
   1422.62451     730.9509     616.3818   1422.62451     730.9509     616.3818
   1422.60925     731.2598     615.3297   1422.60925     731.2598     615.3297
   1422.59399     731.5359     613.8561   1422.59399     731.5359     613.8561
   1422.57874     731.2346     613.9785   1422.57874     731.2346     613.9785
   1422.56348     731.3557     612.6519   1422.56348     731.3557     612.6519
   1422.54822     731.2184     610.8242   1422.54822     731.2184     610.8242
   1422.53296     731.8061     610.7848   1422.53296     731.8061     610.7848
   1422.51770     729.5829     610.0443   1422.51770     729.5829     610.0443
   1422.50244     729.9351     609.0014   1422.50244     729.9351     609.0014
   1422.48718     731.1723     608.0934   1422.48718     731.1723     608.0934
   1422.47192     730.9504     606.2994   1422.47192     730.9504     606.2994
   1422.45667     729.5933     604.6292   1422.45667     729.5933     604.6292
   1422.44141     728.9345     604.6279   1422.44141     728.9345     604.6279
   1422.42615     729.0295     602.6676   1422.42615     729.0295     602.6676
   1422.41089     727.7971     601.5863   1422.41089     727.7971     601.5863
   1422.39563     727.5762     599.5445   1422.39563     727.5762     599.5445
   1422.38037     727.8024     598.9225   1422.38037     727.8024     598.9225
   1422.36511     728.8017     598.1044   1422.36511     728.8017     598.1044
   1422.34985     729.1912     596.5136   1422.34985     729.1912     596.5136
   1422.33459     729.5660     595.3306   1422.33459     729.5660     595.3306
   1422.31934     726.9918     594.3644   1422.31934     726.9918     594.3644
   1422.30408     727.4265     594.2049   1422.30408     727.4265     594.2049
   1422.28882     727.8596     592.0315   1422.28882     727.8596     592.0315
   1422.27356     728.3453     591.2864   1422.27356     728.3453     591.2864
   1422.25830     726.8674     589.8327   1422.25830     726.8674     589.8327
   1422.24304     727.2697     588.8281   1422.24304     727.2697     588.8281
   1422.22778     728.2918     587.4251   1422.22778     728.2918     587.4251
   1422.21252     727.2454     585.5768   1422.21252     727.2454     585.5768
   1422.19727     727.1757     585.1571   1422.19727     727.1757     585.1571
   1422.18201     725.6909     583.6265   1422.18201     725.6909     583.6265
   1422.16675     725.9178     582.5864   1422.16675     725.9178     582.5864
   1422.15149     725.8491     581.0526   1422.15149     725.8491     581.0526
   1422.13623     725.7982     580.3074   1422.13623     725.7982     580.3074
   1422.12097     726.0505     578.5847   1422.12097     726.0505     578.5847
   1422.10571     725.2519     577.8528   1422.10571     725.2519     577.8528
   1422.09045     726.0975     575.7922   1422.09045     726.0975     575.7922
   1422.07520     725.9048     575.5406   1422.07520     725.9048     575.5406
   1422.05994     725.0485     573.6613   1422.05994     725.0485     573.6613
   1422.04468     724.0815     572.6253   1422.04468     724.0815     572.6253
   1422.02942     724.4293     571.5613   1422.02942     724.4293     571.5613
   1422.01416     725.2420     570.0147   1422.01416     725.2420     570.0147
   1421.99890     726.7190     569.1032   1421.99890     726.7190     569.1032
   1421.98364     724.9616     567.6884   1421.98364     724.9616     567.6884
   1421.96838     723.2413     566.0854   1421.96838     723.2413     566.0854
   1421.95312     724.6615     564.9899   1421.95312     724.6615     564.9899
   1421.93787     724.5800     563.2917   1421.93787     724.5800     563.2917
   1421.92261     723.5876     562.2993   1421.92261     723.5876     562.2993
   1421.90735     722.8120     561.0193   1421.90735     722.8120     561.0193
   1421.89209     722.7294     560.7431   1421.89209     722.7294     560.7431
   1421.87683     723.2499     558.5226   1421.87683     723.2499     558.5226
   1421.86157     723.5583     558.0817   1421.86157     723.5583     558.0817
   1421.84631     721.3993     556.0759   1421.84631     721.3993     556.0759
   1421.83105     722.1738     554.8511   1421.83105     722.1738     554.8511
   1421.81580     722.2507     552.9103   1421.81580     722.2507     552.9103
   1421.80054     721.3077     552.5087   1421.80054     721.3077     552.5087
   1421.78528     721.9537     550.7415   1421.78528     721.9537     550.7415
   1421.77002     722.4231     549.8688   1421.77002     722.4231     549.8688
   1421.75476     722.2880     548.2660   1421.75476     722.2880     548.2660
   1421.73950     721.5260     547.2838   1421.73950     721.5260     547.2838
   1421.72424     721.4445     545.3395   1421.72424     721.4445     545.3395
   1421.70898     722.6478     544.8378   1421.70898     722.6478     544.8378
   1421.69373     721.0705     543.3533   1421.69373     721.0705     543.3533
   1421.67847     720.7119     542.4766   1421.67847     720.7119     542.4766
   1421.66321     721.0485     541.9241   1421.66321     721.0485     541.9241
   1421.64795     721.2346     540.2167   1421.64795     721.2346     540.2167
   1421.63269     721.1434     538.4575   1421.63269     721.1434     538.4575
   1421.61743     720.9454     538.2285   1421.61743     720.9454     538.2285
   1421.60217     721.1254     536.0780   1421.60217     721.1254     536.0780
   1421.58691     719.7635     535.0704   1421.58691     719.7635     535.0704
   1421.57166     719.2429     533.0927   1421.57166     719.2429     533.0927
   1421.55640     719.1253     532.5972   1421.55640     719.1253     532.5972
   1421.54114     720.5878     530.9163   1421.54114     720.5878     530.9163
   1421.52588     719.5374     529.7153   1421.52588     719.5374     529.7153
   1421.51062     719.4855     529.3720   1421.51062     719.4855     529.3720
   1421.49536     719.0296     527.5629   1421.49536     719.0296     527.5629
   1421.48010     718.3900     525.7726   1421.48010     718.3900     525.7726
   1421.46484     719.3929     525.6656   1421.46484     719.3929     525.6656
   1421.44958     719.2054     524.5366   1421.44958     719.2054     524.5366
   1421.43433     718.2355     523.3724   1421.43433     718.2355     523.3724
   1421.41907     719.5251     522.0833   1421.41907     719.5251     522.0833
   1421.40381     719.8461     521.6333   1421.40381     719.8461     521.6333
   1421.38855     719.4282     519.3990   1421.38855     719.4282     519.3990
   1421.37329     718.8573     519.1411   1421.37329     718.8573     519.1411
   1421.35803     719.1967     517.5610   1421.35803     719.1967     517.5610
   1421.34277     719.8250     517.0558   1421.34277     719.8250     517.0558
   1421.32751     719.9349     515.1750   1421.32751     719.9349     515.1750
   1421.31226     718.9625     514.9911   1421.31226     718.9625     514.9911
   1421.29700     719.0209     513.1912   1421.29700     719.0209     513.1912
   1421.28174     720.0618     513.1369   1421.28174     720.0618     513.1369
   1421.26648     717.9444     510.9965   1421.26648     717.9444     510.9965
   1421.25122     718.8303     510.2388   1421.25122     718.8303     510.2388
   1421.23596     718.0678     508.8592   1421.23596     718.0678     508.8592
   1421.22070     718.5695     507.6587   1421.22070     718.5695     507.6587
   1421.20544     718.0717     506.4255   1421.20544     718.0717     506.4255
   1421.19019     719.2625     505.6989   1421.19019     719.2625     505.6989
   1421.17493     719.2601     504.9746   1421.17493     719.2601     504.9746
   1421.15967     720.8904     505.0204   1421.15967     720.8904     505.0204
   1421.14441     724.2213     506.1402   1421.14441     724.2213     506.1402
   1421.12915     729.1667     508.3434   1421.12915     729.1667     508.3434
   1421.11389     739.5988     515.1617   1421.11389     739.5988     515.1617
   1421.09863     754.1329     524.8279   1421.09863     754.1329     524.8279
   1421.08337     772.3058     535.0391   1421.08337     772.3058     535.0391
   1421.06812     780.8382     539.2690   1421.06812     780.8382     539.2690
   1421.05286     782.0319     539.7985   1421.05286     782.0319     539.7985
   1421.03760     782.3702     539.3896   1421.03760     782.3702     539.3896
   1421.02234     784.5323     540.3894   1421.02234     784.5323     540.3894
   1421.00708     791.8525     543.7905   1421.00708     791.8525     543.7905
   1420.99182     817.0270     559.9622   1420.99182     817.0270     559.9622
   1420.97656     849.5436     579.7694   1420.97656     849.5436     579.7694
   1420.96130     932.1464     635.7518   1420.96130     932.1464     635.7518
   1420.94604    1122.5657     760.7162   1420.94604    1122.5657     760.7162
   1420.93079    1176.5365     795.5118   1420.93079    1176.5365     795.5118
   1420.91553    1021.3879     692.0477   1420.91553    1021.3879     692.0477
   1420.90027     951.7932     643.7143   1420.90027     951.7932     643.7143
   1420.88501     922.2338     623.3903   1420.88501     922.2338     623.3903
   1420.86975     927.4528     626.4998   1420.86975     927.4528     626.4998
   1420.85449     945.2297     635.3824   1420.85449     945.2297     635.3824
   1420.83923     936.2090     630.0617   1420.83923     936.2090     630.0617
   1420.82397     968.2650     649.3344   1420.82397     968.2650     649.3344
   1420.80872    1104.2979     739.5374   1420.80872    1104.2979     739.5374
   1420.79346    1266.2220     843.2684   1420.79346    1266.2220     843.2684
   1420.77820    1355.1958     898.5319   1420.77820    1355.1958     898.5319
   1420.76294    1404.8846     928.1145   1420.76294    1404.8846     928.1145
   1420.74768    1471.9443     973.4642   1420.74768    1471.9443     973.4642
   1420.73242    1537.3459    1014.5699   1420.73242    1537.3459    1014.5699
   1420.71716    1546.7230    1019.2676   1420.71716    1546.7230    1019.2676
   1420.70190    1556.4540    1024.9167   1420.70190    1556.4540    1024.9167
   1420.68665    1638.6790    1073.9338   1420.68665    1638.6790    1073.9338
   1420.67139    1562.3069    1021.9444   1420.67139    1562.3069    1021.9444
   1420.65613    1504.6454     981.5098   1420.65613    1504.6454     981.5098
   1420.64087    1367.2799     893.3864   1420.64087    1367.2799     893.3864
   1420.62561    1206.5388     786.7952   1420.62561    1206.5388     786.7952
   1420.61035    1111.9880     724.6744   1420.61035    1111.9880     724.6744
   1420.59509    1057.8401     687.6069   1420.59509    1057.8401     687.6069
   1420.57983    1055.4760     684.0905   1420.57983    1055.4760     684.0905
   1420.56458    1093.6575     709.7056   1420.56458    1093.6575     709.7056
   1420.54932    1181.7400     765.5239   1420.54932    1181.7400     765.5239
   1420.53406    1294.1688     838.6381   1420.53406    1294.1688     838.6381
   1420.51880    1343.4333     870.4531   1420.51880    1343.4333     870.4531
   1420.50354    1363.9038     881.5234   1420.50354    1363.9038     881.5234
   1420.48828    1512.7627     972.9675   1420.48828    1512.7627     972.9675
   1420.47302    1816.9974    1162.6488   1420.47302    1816.9974    1162.6488
   1420.45776    1632.2583    1044.8002   1420.45776    1632.2583    1044.8002
   1420.44250    1043.4662     668.1804   1420.44250    1043.4662     668.1804
   1420.42725     850.9156     546.3370   1420.42725     850.9156     546.3370
   1420.41199     784.4428     503.0280   1420.41199     784.4428     503.0280
   1420.39673     751.4522     481.9265   1420.39673     751.4522     481.9265
   1420.38147     733.1484     470.2657   1420.38147     733.1484     470.2657
   1420.36621     724.0712     463.4966   1420.36621     724.0712     463.4966
   1420.35095     719.2411     459.7789   1420.35095     719.2411     459.7789
   1420.33569     716.1631     456.6251   1420.33569     716.1631     456.6251
   1420.32043     714.9310     455.7878   1420.32043     714.9310     455.7878
   1420.30518     713.4493     454.2092   1420.30518     713.4493     454.2092
   1420.28992     713.2398     452.3839   1420.28992     713.2398     452.3839
   1420.27466     713.0944     452.0756   1420.27466     713.0944     452.0756
   1420.25940     711.5591     452.1508   1420.25940     711.5591     452.1508
   1420.24414     712.0803     450.3820   1420.24414     712.0803     450.3820
   1420.22888     712.1134     449.4417   1420.22888     712.1134     449.4417
   1420.21362     710.3456     448.3881   1420.21362     710.3456     448.3881
   1420.19836     710.3713     447.3023   1420.19836     710.3713     447.3023
   1420.18311     709.1210     445.7833   1420.18311     709.1210     445.7833
   1420.16785     709.2881     445.0678   1420.16785     709.2881     445.0678
   1420.15259     707.8936     443.9594   1420.15259     707.8936     443.9594
   1420.13733     707.8401     443.0926   1420.13733     707.8401     443.0926
   1420.12207     707.1379     442.3790   1420.12207     707.1379     442.3790
   1420.10681     706.4075     441.4890   1420.10681     706.4075     441.4890
   1420.09155     706.2989     440.5847   1420.09155     706.2989     440.5847
   1420.07629     706.0702     440.1521   1420.07629     706.0702     440.1521
   1420.06104     705.1218     439.6291   1420.06104     705.1218     439.6291
   1420.04578     705.2139     438.3735   1420.04578     705.2139     438.3735
   1420.03052     705.1095     438.2415   1420.03052     705.1095     438.2415
   1420.01526     705.1758     438.3936   1420.01526     705.1758     438.3936
   1420.00000     706.2375     439.1267   1420.00000     706.2375     439.1267
   1419.98474     707.2993     439.8598   1419.98474     707.2993     439.8598
   1419.96948     707.5989     437.0646   1419.96948     707.5989     437.0646
   1419.95422     704.7089     435.5626   1419.95422     704.7089     435.5626
   1419.93896     704.4321     435.3584   1419.93896     704.4321     435.3584
   1419.92371     704.3925     434.5964   1419.92371     704.3925     434.5964
   1419.90845     704.3504     434.0390   1419.90845     704.3504     434.0390
   1419.89319     704.5194     433.8024   1419.89319     704.5194     433.8024
   1419.87793     704.8788     433.5966   1419.87793     704.8788     433.5966
   1419.86267     703.9786     432.7293   1419.86267     703.9786     432.7293
   1419.84741     704.7246     432.6056   1419.84741     704.7246     432.6056
   1419.83215     704.2776     432.2336   1419.83215     704.2776     432.2336
   1419.81689     705.5867     431.8153   1419.81689     705.5867     431.8153
   1419.80164     704.7499     431.2836   1419.80164     704.7499     431.2836
   1419.78638     704.6675     431.3152   1419.78638     704.6675     431.3152
   1419.77112     704.6459     430.4015   1419.77112     704.6459     430.4015
   1419.75586     704.6262     430.3667   1419.75586     704.6262     430.3667
   1419.74060     705.2488     430.6527   1419.74060     705.2488     430.6527
   1419.72534     705.8785     430.7287   1419.72534     705.8785     430.7287
   1419.71008     705.3411     430.7722   1419.71008     705.3411     430.7722
   1419.69482     706.4296     430.1264   1419.69482     706.4296     430.1264
   1419.67957     706.2152     429.2345   1419.67957     706.2152     429.2345
   1419.66431     706.4395     429.6506   1419.66431     706.4395     429.6506
   1419.64905     707.4210     429.5285   1419.64905     707.4210     429.5285
   1419.63379     707.5377     428.8343   1419.63379     707.5377     428.8343
   1419.61853     707.5720     429.2531   1419.61853     707.5720     429.2531
   1419.60327     707.3351     429.1773   1419.60327     707.3351     429.1773
   1419.58801     707.9383     428.7278   1419.58801     707.9383     428.7278
   1419.57275     706.8936     428.3492   1419.57275     706.8936     428.3492
   1419.55750     706.9192     428.0867   1419.55750     706.9192     428.0867
   1419.54224     708.4410     428.2172   1419.54224     708.4410     428.2172
   1419.52698     707.9837     428.5552   1419.52698     707.9837     428.5552
   1419.51172     707.5883     428.4414   1419.51172     707.5883     428.4414
   1419.49646     708.8672     428.1509   1419.49646     708.8672     428.1509
   1419.48120     709.0179     428.4844   1419.48120     709.0179     428.4844
   1419.46594     709.7520     427.8682   1419.46594     709.7520     427.8682
   1419.45068     709.5173     429.0359   1419.45068     709.5173     429.0359
   1419.43542     709.9290     428.7384   1419.43542     709.9290     428.7384
   1419.42017     710.8417     427.5050   1419.42017     710.8417     427.5050
   1419.40491     710.0248     428.4317   1419.40491     710.0248     428.4317
   1419.38965     711.7158     428.1131   1419.38965     711.7158     428.1131
   1419.37439     711.5744     428.0759   1419.37439     711.5744     428.0759
   1419.35913     711.4485     427.7526   1419.35913     711.4485     427.7526
   1419.34387     712.3823     429.3695   1419.34387     712.3823     429.3695
   1419.32861     711.8782     428.0806   1419.32861     711.8782     428.0806
   1419.31335     713.2520     428.6562   1419.31335     713.2520     428.6562
   1419.29810     713.9721     428.7209   1419.29810     713.9721     428.7209
   1419.28284     712.6980     428.8295   1419.28284     712.6980     428.8295
   1419.26758     713.3622     428.6162   1419.26758     713.3622     428.6162
   1419.25232     714.3247     429.8310   1419.25232     714.3247     429.8310
   1419.23706     714.0016     429.3936   1419.23706     714.0016     429.3936
   1419.22180     714.2183     429.4819   1419.22180     714.2183     429.4819
   1419.20654     714.6422     429.5370   1419.20654     714.6422     429.5370
   1419.19128     715.5402     430.2415   1419.19128     715.5402     430.2415
   1419.17603     714.9154     429.4331   1419.17603     714.9154     429.4331
   1419.16077     717.4251     430.2816   1419.16077     717.4251     430.2816
   1419.14551     717.0657     429.8823   1419.14551     717.0657     429.8823
   1419.13025     716.4850     431.0673   1419.13025     716.4850     431.0673
   1419.11499     717.5770     430.3484   1419.11499     717.5770     430.3484
   1419.09973     717.4352     430.3483   1419.09973     717.4352     430.3483
   1419.08447     718.5442     431.1719   1419.08447     718.5442     431.1719
   1419.06921     718.7797     431.5721   1419.06921     718.7797     431.5721
   1419.05396     719.2113     431.4286   1419.05396     719.2113     431.4286
   1419.03870     719.7434     431.7142   1419.03870     719.7434     431.7142
   1419.02344     719.2985     432.9527   1419.02344     719.2985     432.9527
   1419.00818     721.1704     432.2840   1419.00818     721.1704     432.2840
   1418.99292     720.5298     433.4543   1418.99292     720.5298     433.4543
   1418.97766     721.4717     433.2126   1418.97766     721.4717     433.2126
   1418.96240     723.0131     433.5436   1418.96240     723.0131     433.5436
   1418.94714     722.5427     433.7116   1418.94714     722.5427     433.7116
   1418.93188     723.4172     434.6086   1418.93188     723.4172     434.6086
   1418.91663     724.0184     434.3196   1418.91663     724.0184     434.3196
   1418.90137     724.7207     434.3938   1418.90137     724.7207     434.3938
   1418.88611     725.4417     434.4901   1418.88611     725.4417     434.4901
   1418.87085     725.7952     435.4678   1418.87085     725.7952     435.4678
   1418.85559     726.1695     436.1646   1418.85559     726.1695     436.1646
   1418.84033     726.5710     437.0003   1418.84033     726.5710     437.0003
   1418.82507     727.7705     436.8328   1418.82507     727.7705     436.8328
   1418.80981     728.3317     437.8121   1418.80981     728.3317     437.8121
   1418.79456     728.8801     437.7179   1418.79456     728.8801     437.7179
   1418.77930     728.4768     438.9511   1418.77930     728.4768     438.9511
   1418.76404     728.9089     438.4873   1418.76404     728.9089     438.4873
   1418.74878     730.3733     439.2183   1418.74878     730.3733     439.2183
   1418.73352     730.8253     439.3247   1418.73352     730.8253     439.3247
   1418.71826     730.5580     440.1759   1418.71826     730.5580     440.1759
   1418.70300     732.7173     440.7346   1418.70300     732.7173     440.7346
   1418.68774     732.7671     441.1375   1418.68774     732.7671     441.1375
   1418.67249     733.3405     441.7386   1418.67249     733.3405     441.7386
   1418.65723     734.0712     441.5893   1418.65723     734.0712     441.5893
   1418.64197     735.0258     443.2791   1418.64197     735.0258     443.2791
   1418.62671     735.6961     444.2164   1418.62671     735.6961     444.2164
   1418.61145     735.6900     443.9150   1418.61145     735.6900     443.9150
   1418.59619     736.8041     444.8641   1418.59619     736.8041     444.8641
   1418.58093     737.6058     445.7975   1418.58093     737.6058     445.7975
   1418.56567     736.7622     445.7594   1418.56567     736.7622     445.7594
   1418.55042     737.8429     445.8253   1418.55042     737.8429     445.8253
   1418.53516     740.1624     446.9943   1418.53516     740.1624     446.9943
   1418.51990     740.3551     446.7202   1418.51990     740.3551     446.7202
   1418.50464     740.8585     448.5339   1418.50464     740.8585     448.5339
   1418.48938     742.1799     449.2780   1418.48938     742.1799     449.2780
   1418.47412     743.0435     449.6472   1418.47412     743.0435     449.6472
   1418.45886     743.0433     450.4178   1418.45886     743.0433     450.4178
   1418.44360     744.2001     451.1331   1418.44360     744.2001     451.1331
   1418.42834     744.7534     451.5020   1418.42834     744.7534     451.5020
   1418.41309     744.6056     452.3758   1418.41309     744.6056     452.3758
   1418.39783     745.4290     453.1624   1418.39783     745.4290     453.1624
   1418.38257     748.2933     453.9066   1418.38257     748.2933     453.9066
   1418.36731     748.5105     454.3063   1418.36731     748.5105     454.3063
   1418.35205     748.9004     455.4979   1418.35205     748.9004     455.4979
   1418.33679     750.2177     456.0274   1418.33679     750.2177     456.0274
   1418.32153     748.5216     456.8291   1418.32153     748.5216     456.8291
   1418.30627     750.7308     457.9014   1418.30627     750.7308     457.9014
   1418.29102     751.6193     459.4557   1418.29102     751.6193     459.4557
   1418.27576     753.3276     459.3682   1418.27576     753.3276     459.3682
   1418.26050     754.9169     459.8072   1418.26050     754.9169     459.8072
   1418.24524     754.7709     460.5688   1418.24524     754.7709     460.5688
   1418.22998     756.2448     462.1675   1418.22998     756.2448     462.1675
   1418.21472     755.8116     463.2793   1418.21472     755.8116     463.2793
   1418.19946     758.3820     463.6714   1418.19946     758.3820     463.6714
   1418.18420     757.8131     463.3852   1418.18420     757.8131     463.3852
   1418.16895     760.5223     464.8780   1418.16895     760.5223     464.8780
   1418.15369     759.4665     465.6738   1418.15369     759.4665     465.6738
   1418.13843     759.9628     466.1165   1418.13843     759.9628     466.1165
   1418.12317     762.2207     468.0286   1418.12317     762.2207     468.0286
   1418.10791     762.5154     468.4845   1418.10791     762.5154     468.4845
   1418.09265     763.2337     468.8415   1418.09265     763.2337     468.8415
   1418.07739     763.3423     469.7476   1418.07739     763.3423     469.7476
   1418.06213     765.7110     470.0584   1418.06213     765.7110     470.0584
   1418.04688     766.0528     471.5722   1418.04688     766.0528     471.5722
   1418.03162     766.8679     472.8180   1418.03162     766.8679     472.8180
   1418.01636     768.1865     473.0794   1418.01636     768.1865     473.0794
   1418.00110     769.9384     474.8420   1418.00110     769.9384     474.8420
   1417.98584     770.0228     475.4374   1417.98584     770.0228     475.4374
   1417.97058     771.0431     476.3199   1417.97058     771.0431     476.3199
   1417.95532     770.7563     476.5816   1417.95532     770.7563     476.5816
   1417.94006     773.7238     477.8800   1417.94006     773.7238     477.8800
   1417.92480     775.2654     478.5971   1417.92480     775.2654     478.5971
   1417.90955     775.2226     479.2851   1417.90955     775.2226     479.2851
   1417.89429     774.9689     480.6279   1417.89429     774.9689     480.6279
   1417.87903     777.0289     481.6554   1417.87903     777.0289     481.6554
   1417.86377     777.8951     482.0367   1417.86377     777.8951     482.0367
   1417.84851     778.7382     483.3130   1417.84851     778.7382     483.3130
   1417.83325     779.1708     484.5755   1417.83325     779.1708     484.5755
   1417.81799     780.7532     484.9001   1417.81799     780.7532     484.9001
   1417.80273     780.9248     486.0047   1417.80273     780.9248     486.0047
   1417.78748     782.2916     486.7932   1417.78748     782.2916     486.7932
   1417.77222     783.9909     488.2927   1417.77222     783.9909     488.2927
   1417.75696     785.1780     488.4297   1417.75696     785.1780     488.4297
   1417.74170     785.3518     490.0998   1417.74170     785.3518     490.0998
   1417.72644     786.6890     490.8784   1417.72644     786.6890     490.8784
   1417.71118     787.3328     491.9919   1417.71118     787.3328     491.9919
   1417.69592     786.8195     493.3246   1417.69592     786.8195     493.3246
   1417.68066     790.2542     493.2699   1417.68066     790.2542     493.2699
   1417.66541     789.8988     494.7508   1417.66541     789.8988     494.7508
   1417.65015     791.8137     494.9782   1417.65015     791.8137     494.9782
   1417.63489     791.8038     496.5278   1417.63489     791.8038     496.5278
   1417.61963     793.1144     497.0367   1417.61963     793.1144     497.0367
   1417.60437     793.7770     498.2354   1417.60437     793.7770     498.2354
   1417.58911     794.7676     499.3283   1417.58911     794.7676     499.3283
   1417.57385     796.2169     499.7688   1417.57385     796.2169     499.7688
   1417.55859     797.7661     501.4066   1417.55859     797.7661     501.4066
   1417.54333     798.3868     502.2075   1417.54333     798.3868     502.2075
   1417.52808     799.1346     503.1248   1417.52808     799.1346     503.1248
   1417.51282     800.1548     502.9788   1417.51282     800.1548     502.9788
   1417.49756     801.6855     505.0997   1417.49756     801.6855     505.0997
   1417.48230     801.2132     505.9485   1417.48230     801.2132     505.9485
   1417.46704     802.2518     506.8304   1417.46704     802.2518     506.8304
   1417.45178     803.0767     507.1625   1417.45178     803.0767     507.1625
   1417.43652     805.2341     507.5449   1417.43652     805.2341     507.5449
   1417.42126     806.1528     509.7740   1417.42126     806.1528     509.7740
   1417.40601     806.8857     510.5865   1417.40601     806.8857     510.5865
   1417.39075     808.0308     510.9926   1417.39075     808.0308     510.9926
   1417.37549     809.4521     512.3022   1417.37549     809.4521     512.3022
   1417.36023     809.7372     513.0123   1417.36023     809.7372     513.0123
   1417.34497     811.3685     513.7226   1417.34497     811.3685     513.7226
   1417.32971     809.6843     514.7075   1417.32971     809.6843     514.7075
   1417.31445     812.7547     516.1058   1417.31445     812.7547     516.1058
   1417.29919     814.0715     516.6595   1417.29919     814.0715     516.6595
   1417.28394     814.6205     517.2297   1417.28394     814.6205     517.2297
   1417.26868     814.7456     518.0043   1417.26868     814.7456     518.0043
   1417.25342     816.3171     519.5682   1417.25342     816.3171     519.5682
   1417.23816     816.5356     519.6275   1417.23816     816.5356     519.6275
   1417.22290     817.3962     520.5776   1417.22290     817.3962     520.5776
   1417.20764     817.7242     521.0582   1417.20764     817.7242     521.0582
   1417.19238     821.0717     521.9117   1417.19238     821.0717     521.9117
   1417.17712     819.4047     522.4279   1417.17712     819.4047     522.4279
   1417.16187     819.5082     523.9572   1417.16187     819.5082     523.9572
   1417.14661     821.7026     524.5970   1417.14661     821.7026     524.5970
   1417.13135     823.3461     525.7842   1417.13135     823.3461     525.7842
   1417.11609     822.8491     525.6318   1417.11609     822.8491     525.6318
   1417.10083     824.2286     526.8891   1417.10083     824.2286     526.8891
   1417.08557     824.7000     527.8403   1417.08557     824.7000     527.8403
   1417.07031     825.4977     528.1846   1417.07031     825.4977     528.1846
   1417.05505     826.5779     529.2357   1417.05505     826.5779     529.2357
   1417.03979     828.2979     529.6718   1417.03979     828.2979     529.6718
   1417.02454     827.8735     530.5803   1417.02454     827.8735     530.5803
   1417.00928     829.4288     531.1222   1417.00928     829.4288     531.1222
   1416.99402     830.6972     530.6770   1416.99402     830.6972     530.6770
   1416.97876     829.5331     532.2816   1416.97876     829.5331     532.2816
   1416.96350     831.5432     532.8724   1416.96350     831.5432     532.8724
   1416.94824     831.9384     533.6742   1416.94824     831.9384     533.6742
   1416.93298     833.9736     533.5276   1416.93298     833.9736     533.5276
   1416.91772     833.7390     535.3676   1416.91772     833.7390     535.3676
   1416.90247     833.7001     535.2203   1416.90247     833.7001     535.2203
   1416.88721     834.3845     536.0772   1416.88721     834.3845     536.0772
   1416.87195     835.6279     536.0404   1416.87195     835.6279     536.0404
   1416.85669     836.3372     536.6949   1416.85669     836.3372     536.6949
   1416.84143     837.7104     537.7481   1416.84143     837.7104     537.7481
   1416.82617     837.0339     538.3096   1416.82617     837.0339     538.3096
   1416.81091     837.0280     538.2052   1416.81091     837.0280     538.2052
   1416.79565     838.8155     538.6801   1416.79565     838.8155     538.6801
   1416.78040     838.7756     538.5857   1416.78040     838.7756     538.5857
   1416.76514     840.4122     538.7546   1416.76514     840.4122     538.7546
   1416.74988     839.7977     539.7666   1416.74988     839.7977     539.7666
   1416.73462     839.8976     539.2332   1416.73462     839.8976     539.2332
   1416.71936     840.2878     540.4970   1416.71936     840.2878     540.4970
   1416.70410     841.4286     540.0844   1416.70410     841.4286     540.0844
   1416.68884     842.1761     540.4843   1416.68884     842.1761     540.4843
   1416.67358     841.4086     539.6659   1416.67358     841.4086     539.6659
   1416.65833     842.3894     541.2241   1416.65833     842.3894     541.2241
   1416.64307     841.8425     540.9886   1416.64307     841.8425     540.9886
   1416.62781     843.6504     542.3181   1416.62781     843.6504     542.3181
   1416.61255     845.9283     542.0391   1416.61255     845.9283     542.0391
   1416.59729     843.8796     541.9670   1416.59729     843.8796     541.9670
   1416.58203     845.2124     541.3570   1416.58203     845.2124     541.3570
   1416.56677     844.1041     542.0400   1416.56677     844.1041     542.0400
   1416.55151     843.9844     541.2550   1416.55151     843.9844     541.2550
   1416.53625     844.6495     541.9545   1416.53625     844.6495     541.9545
   1416.52100     845.9219     541.8439   1416.52100     845.9219     541.8439
   1416.50574     845.1770     542.1067   1416.50574     845.1770     542.1067
   1416.49048     846.5530     541.3159   1416.49048     846.5530     541.3159
   1416.47522     846.4703     542.0444   1416.47522     846.4703     542.0444
   1416.45996     845.7287     540.8910   1416.45996     845.7287     540.8910
   1416.44470     846.0446     541.4310   1416.44470     846.0446     541.4310
   1416.42944     846.5545     540.4841   1416.42944     846.5545     540.4841
   1416.41418     846.0748     541.3414   1416.41418     846.0748     541.3414
   1416.39893     846.2050     540.8648   1416.39893     846.2050     540.8648
   1416.38367     846.8758     541.2934   1416.38367     846.8758     541.2934
   1416.36841     846.2921     540.6591   1416.36841     846.2921     540.6591
   1416.35315     846.0538     540.1039   1416.35315     846.0538     540.1039
   1416.33789     845.5997     540.2088   1416.33789     845.5997     540.2088
   1416.32263     846.5244     540.3286   1416.32263     846.5244     540.3286
   1416.30737     847.4909     539.6664   1416.30737     847.4909     539.6664
   1416.29211     847.1935     538.8814   1416.29211     847.1935     538.8814
   1416.27686     847.2198     539.1010   1416.27686     847.2198     539.1010
   1416.26160     848.5068     537.9534   1416.26160     848.5068     537.9534
   1416.24634     846.3110     538.4785   1416.24634     846.3110     538.4785
   1416.23108     846.2513     538.7261   1416.23108     846.2513     538.7261
   1416.21582     846.4523     537.9703   1416.21582     846.4523     537.9703
   1416.20056     847.2863     536.9462   1416.20056     847.2863     536.9462
   1416.18530     845.6851     537.0453   1416.18530     845.6851     537.0453
   1416.17004     847.4890     536.7905   1416.17004     847.4890     536.7905
   1416.15479     845.9584     536.4240   1416.15479     845.9584     536.4240
   1416.13953     845.4622     535.9885   1416.13953     845.4622     535.9885
   1416.12427     845.3023     535.3298   1416.12427     845.3023     535.3298
   1416.10901     845.0760     535.4948   1416.10901     845.0760     535.4948
   1416.09375     844.4695     534.6119   1416.09375     844.4695     534.6119
   1416.07849     845.7267     535.1270   1416.07849     845.7267     535.1270
   1416.06323     845.0902     533.6255   1416.06323     845.0902     533.6255
   1416.04797     844.3189     533.8295   1416.04797     844.3189     533.8295
   1416.03271     844.6959     532.8547   1416.03271     844.6959     532.8547
   1416.01746     844.1700     532.3023   1416.01746     844.1700     532.3023
   1416.00220     843.4363     531.8391   1416.00220     843.4363     531.8391
   1415.98694     842.7010     532.2887   1415.98694     842.7010     532.2887
   1415.97168     842.6805     531.0316   1415.97168     842.6805     531.0316
   1415.95642     841.3712     530.3839   1415.95642     841.3712     530.3839
   1415.94116     842.3159     530.6047   1415.94116     842.3159     530.6047
   1415.92590     841.6248     529.2654   1415.92590     841.6248     529.2654
   1415.91064     840.8691     529.4222   1415.91064     840.8691     529.4222
   1415.89539     840.0775     528.0845   1415.89539     840.0775     528.0845
   1415.88013     839.9497     527.1403   1415.88013     839.9497     527.1403
   1415.86487     838.4466     527.2777   1415.86487     838.4466     527.2777
   1415.84961     839.9878     526.9982   1415.84961     839.9878     526.9982
   1415.83435     838.6222     526.0371   1415.83435     838.6222     526.0371
   1415.81909     837.6862     525.5032   1415.81909     837.6862     525.5032
   1415.80383     836.6953     524.6809   1415.80383     836.6953     524.6809
   1415.78857     837.0692     524.3922   1415.78857     837.0692     524.3922
   1415.77332     835.6357     524.7468   1415.77332     835.6357     524.7468
   1415.75806     835.3622     522.8972   1415.75806     835.3622     522.8972
   1415.74280     835.3618     523.1057   1415.74280     835.3618     523.1057
   1415.72754     835.5305     521.8203   1415.72754     835.5305     521.8203
   1415.71228     834.5574     522.1500   1415.71228     834.5574     522.1500
   1415.69702     833.8997     521.4130   1415.69702     833.8997     521.4130
   1415.68176     831.6937     520.4615   1415.68176     831.6937     520.4615
   1415.66650     831.5544     520.1193   1415.66650     831.5544     520.1193
   1415.65125     832.6221     519.1655   1415.65125     832.6221     519.1655
   1415.63599     830.7369     519.2187   1415.63599     830.7369     519.2187
   1415.62073     830.9659     518.3506   1415.62073     830.9659     518.3506
   1415.60547     829.2633     517.3093   1415.60547     829.2633     517.3093
   1415.59021     827.3937     516.7403   1415.59021     827.3937     516.7403
   1415.57495     827.1947     516.2703   1415.57495     827.1947     516.2703
   1415.55969     827.7617     516.1804   1415.55969     827.7617     516.1804
   1415.54443     826.3784     515.7653   1415.54443     826.3784     515.7653
   1415.52917     825.6146     513.9690   1415.52917     825.6146     513.9690
   1415.51392     823.3039     513.2274   1415.51392     823.3039     513.2274
   1415.49866     824.4764     513.7732   1415.49866     824.4764     513.7732
   1415.48340     822.1135     513.0582   1415.48340     822.1135     513.0582
   1415.46814     821.9628     511.4305   1415.46814     821.9628     511.4305
   1415.45288     820.6442     510.6471   1415.45288     820.6442     510.6471
   1415.43762     819.8369     510.3108   1415.43762     819.8369     510.3108
   1415.42236     818.4831     509.8745   1415.42236     818.4831     509.8745
   1415.40710     818.0689     509.3397   1415.40710     818.0689     509.3397
   1415.39185     815.8094     507.8642   1415.39185     815.8094     507.8642
   1415.37659     815.5904     507.6099   1415.37659     815.5904     507.6099
   1415.36133     813.7455     506.8762   1415.36133     813.7455     506.8762
   1415.34607     812.3115     506.5069   1415.34607     812.3115     506.5069
   1415.33081     811.6489     505.5190   1415.33081     811.6489     505.5190
   1415.31555     810.6516     504.9707   1415.31555     810.6516     504.9707
   1415.30029     810.6964     503.3508   1415.30029     810.6964     503.3508
   1415.28503     810.1030     503.9807   1415.28503     810.1030     503.9807
   1415.26978     807.4644     502.1451   1415.26978     807.4644     502.1451
   1415.25452     806.3017     500.6459   1415.25452     806.3017     500.6459
   1415.23926     804.9632     500.9632   1415.23926     804.9632     500.9632
   1415.22400     802.9485     500.4875   1415.22400     802.9485     500.4875
   1415.20874     803.2072     498.6775   1415.20874     803.2072     498.6775
   1415.19348     801.5697     498.5336   1415.19348     801.5697     498.5336
   1415.17822     800.7664     497.8583   1415.17822     800.7664     497.8583
   1415.16296     798.2654     496.6549   1415.16296     798.2654     496.6549
   1415.14771     797.6947     496.0565   1415.14771     797.6947     496.0565
   1415.13245     795.5980     494.9446   1415.13245     795.5980     494.9446
   1415.11719     792.5599     494.2937   1415.11719     792.5599     494.2937
   1415.10193     793.0004     493.6357   1415.10193     793.0004     493.6357
   1415.08667     792.3348     491.4089   1415.08667     792.3348     491.4089
   1415.07141     789.1241     491.5598   1415.07141     789.1241     491.5598
   1415.05615     788.7494     490.5965   1415.05615     788.7494     490.5965
   1415.04089     785.9288     489.4111   1415.04089     785.9288     489.4111
   1415.02563     784.5253     488.5012   1415.02563     784.5253     488.5012
   1415.01038     782.7006     488.7129   1415.01038     782.7006     488.7129
   1414.99512     781.5957     487.1385   1414.99512     781.5957     487.1385
   1414.97986     780.0929     485.7105   1414.97986     780.0929     485.7105
   1414.96460     778.6422     484.8582   1414.96460     778.6422     484.8582
   1414.94934     777.2426     484.4956   1414.94934     777.2426     484.4956
   1414.93408     776.2563     482.8677   1414.93408     776.2563     482.8677
   1414.91882     773.0891     481.7858   1414.91882     773.0891     481.7858
   1414.90356     772.1002     480.7946   1414.90356     772.1002     480.7946
   1414.88831     770.5483     480.3561   1414.88831     770.5483     480.3561
   1414.87305     768.1691     478.3638   1414.87305     768.1691     478.3638
   1414.85779     765.4796     477.4597   1414.85779     765.4796     477.4597
   1414.84253     763.5254     476.7629   1414.84253     763.5254     476.7629
   1414.82727     761.9077     475.1308   1414.82727     761.9077     475.1308
   1414.81201     760.0148     473.5891   1414.81201     760.0148     473.5891
   1414.79675     757.8790     473.6691   1414.79675     757.8790     473.6691
   1414.78149     755.1876     472.7353   1414.78149     755.1876     472.7353
   1414.76624     754.0371     471.0736   1414.76624     754.0371     471.0736
   1414.75098     751.9979     470.0531   1414.75098     751.9979     470.0531
   1414.73572     750.9926     469.8376   1414.73572     750.9926     469.8376
   1414.72046     747.8121     468.2464   1414.72046     747.8121     468.2464
   1414.70520     746.5296     466.2486   1414.70520     746.5296     466.2486
   1414.68994     743.9017     465.3937   1414.68994     743.9017     465.3937
   1414.67468     740.9897     463.7982   1414.67468     740.9897     463.7982
   1414.65942     738.6755     462.6801   1414.65942     738.6755     462.6801
   1414.64417     737.2376     461.8139   1414.64417     737.2376     461.8139
   1414.62891     734.3590     460.7712   1414.62891     734.3590     460.7712
   1414.61365     731.3463     459.5307   1414.61365     731.3463     459.5307
   1414.59839     730.1503     457.7483   1414.59839     730.1503     457.7483
   1414.58313     727.9822     457.3852   1414.58313     727.9822     457.3852
   1414.56787     724.2020     455.4904   1414.56787     724.2020     455.4904
   1414.55261     722.7242     454.1740   1414.55261     722.7242     454.1740
   1414.53735     720.1662     452.8571   1414.53735     720.1662     452.8571
   1414.52209     718.9302     451.6494   1414.52209     718.9302     451.6494
   1414.50684     715.5184     450.1687   1414.50684     715.5184     450.1687
   1414.49158     712.6915     449.4392   1414.49158     712.6915     449.4392
   1414.47632     710.0605     447.2583   1414.47632     710.0605     447.2583
   1414.46106     707.4098     445.5696   1414.46106     707.4098     445.5696
   1414.44580     705.7034     444.9687   1414.44580     705.7034     444.9687
   1414.43054     703.6229     443.0616   1414.43054     703.6229     443.0616
   1414.41528     699.9599     441.8194   1414.41528     699.9599     441.8194
   1414.40002     697.2776     440.8073   1414.40002     697.2776     440.8073
   1414.38477     694.6459     440.2017   1414.38477     694.6459     440.2017
   1414.36951     691.7734     436.6347   1414.36951     691.7734     436.6347
   1414.35425     688.9438     436.7203   1414.35425     688.9438     436.7203
   1414.33899     686.5505     435.1977   1414.33899     686.5505     435.1977
   1414.32373     684.7080     433.3546   1414.32373     684.7080     433.3546
   1414.30847     681.9337     432.5418   1414.30847     681.9337     432.5418
   1414.29321     678.3133     430.3127   1414.29321     678.3133     430.3127
   1414.27795     675.5079     429.5614   1414.27795     675.5079     429.5614
   1414.26270     672.6466     427.5170   1414.26270     672.6466     427.5170
   1414.24744     670.0848     426.0890   1414.24744     670.0848     426.0890
   1414.23218     667.0480     424.8851   1414.23218     667.0480     424.8851
   1414.21692     664.4825     422.9826   1414.21692     664.4825     422.9826
   1414.20166     662.1572     422.0485   1414.20166     662.1572     422.0485
   1414.18640     658.2880     420.6426   1414.18640     658.2880     420.6426
   1414.17114     655.8482     418.0829   1414.17114     655.8482     418.0829
   1414.15588     652.3029     417.5216   1414.15588     652.3029     417.5216
   1414.14062     649.4408     414.8822   1414.14062     649.4408     414.8822
   1414.12537     646.8270     413.8994   1414.12537     646.8270     413.8994
   1414.11011     643.1556     412.4866   1414.11011     643.1556     412.4866
   1414.09485     641.2811     410.9547   1414.09485     641.2811     410.9547
   1414.07959     637.9359     409.0401   1414.07959     637.9359     409.0401
   1414.06433     634.1790     407.1490   1414.06433     634.1790     407.1490
   1414.04907     631.9926     405.7675   1414.04907     631.9926     405.7675
   1414.03381     628.9615     404.5818   1414.03381     628.9615     404.5818
   1414.01855     626.3539     402.9290   1414.01855     626.3539     402.9290
   1414.00330     649.9098     409.9669   1414.00330     649.9098     409.9669
   1413.98804     620.7692     400.7892   1413.98804     620.7692     400.7892
   1413.97278     616.6669     398.5908   1413.97278     616.6669     398.5908
   1413.95752     612.6591     396.4132   1413.95752     612.6591     396.4132
   1413.94226     610.1564     394.4832   1413.94226     610.1564     394.4832
   1413.92700     606.9833     393.1014   1413.92700     606.9833     393.1014
   1413.91174     603.9504     391.3292   1413.91174     603.9504     391.3292
   1413.89648     600.2923     389.6699   1413.89648     600.2923     389.6699
   1413.88123     597.5499     387.9076   1413.88123     597.5499     387.9076
   1413.86597     593.9903     386.1716   1413.86597     593.9903     386.1716
   1413.85071     591.2507     385.1918   1413.85071     591.2507     385.1918
   1413.83545     588.1353     383.0952   1413.83545     588.1353     383.0952
   1413.82019     583.7706     380.7767   1413.82019     583.7706     380.7767
   1413.80493     581.0994     378.9402   1413.80493     581.0994     378.9402
   1413.78967     577.5886     378.0056   1413.78967     577.5886     378.0056
   1413.77441     574.7777     376.1195   1413.77441     574.7777     376.1195
   1413.75916     571.5343     374.7489   1413.75916     571.5343     374.7489
   1413.74390     567.5551     372.6305   1413.74390     567.5551     372.6305
   1413.72864     565.0706     371.2181   1413.72864     565.0706     371.2181
   1413.71338     562.1089     369.8910   1413.71338     562.1089     369.8910
   1413.69812     558.4098     367.8982   1413.69812     558.4098     367.8982
   1413.68286     555.7039     366.2610   1413.68286     555.7039     366.2610
   1413.66760     552.5923     364.1617   1413.66760     552.5923     364.1617
   1413.65234     548.9156     362.2736   1413.65234     548.9156     362.2736
   1413.63708     545.7732     361.0462   1413.63708     545.7732     361.0462
   1413.62183     542.4536     358.9774   1413.62183     542.4536     358.9774
   1413.60657     538.9891     357.2518   1413.60657     538.9891     357.2518
   1413.59131     536.3925     355.3845   1413.59131     536.3925     355.3845
   1413.57605     533.5042     354.0540   1413.57605     533.5042     354.0540
   1413.56079     529.7404     352.3481   1413.56079     529.7404     352.3481
   1413.54553     527.0576     350.6548   1413.54553     527.0576     350.6548
   1413.53027     523.3466     348.3736   1413.53027     523.3466     348.3736
   1413.51501     521.1743     347.7104   1413.51501     521.1743     347.7104
   1413.49976     517.7793     346.1803   1413.49976     517.7793     346.1803
   1413.48450     513.3664     344.0897   1413.48450     513.3664     344.0897
   1413.46924     511.5278     341.8466   1413.46924     511.5278     341.8466
   1413.45398     507.6552     340.6953   1413.45398     507.6552     340.6953
   1413.43872     504.9408     339.0566   1413.43872     504.9408     339.0566
   1413.42346     502.5743     337.8953   1413.42346     502.5743     337.8953
   1413.40820     499.6486     335.4425   1413.40820     499.6486     335.4425
   1413.39294     495.6196     334.1107   1413.39294     495.6196     334.1107
   1413.37769     492.8320     332.6290   1413.37769     492.8320     332.6290
   1413.36243     489.7652     331.0580   1413.36243     489.7652     331.0580
   1413.34717     488.1369     329.0867   1413.34717     488.1369     329.0867
   1413.33191     484.5621     327.9247   1413.33191     484.5621     327.9247
   1413.31665     481.7869     326.5883   1413.31665     481.7869     326.5883
   1413.30139     478.6310     324.8181   1413.30139     478.6310     324.8181
   1413.28613     475.3513     323.4485   1413.28613     475.3513     323.4485
   1413.27087     471.9766     322.1566   1413.27087     471.9766     322.1566
   1413.25562     469.6229     319.9758   1413.25562     469.6229     319.9758
   1413.24036     467.4242     318.6920   1413.24036     467.4242     318.6920
   1413.22510     464.7099     316.6808   1413.22510     464.7099     316.6808
   1413.20984     461.9893     315.4612   1413.20984     461.9893     315.4612
   1413.19458     458.8087     314.4833   1413.19458     458.8087     314.4833
   1413.17932     456.5895     312.7753   1413.17932     456.5895     312.7753
   1413.16406     453.1801     311.4717   1413.16406     453.1801     311.4717
   1413.14880     450.5496     309.8375   1413.14880     450.5496     309.8375
   1413.13354     448.9082     308.4254   1413.13354     448.9082     308.4254
   1413.11829     445.3914     307.0890   1413.11829     445.3914     307.0890
   1413.10303     443.0085     306.0575   1413.10303     443.0085     306.0575
   1413.08777     440.4211     304.9376   1413.08777     440.4211     304.9376
   1413.07251     437.7937     303.1000   1413.07251     437.7937     303.1000
   1413.05725     435.6919     301.9016   1413.05725     435.6919     301.9016
   1413.04199     433.4460     301.0955   1413.04199     433.4460     301.0955
   1413.02673     430.8867     299.1369   1413.02673     430.8867     299.1369
   1413.01147     429.0789     298.2084   1413.01147     429.0789     298.2084
   1412.99622     426.1568     297.1308   1412.99622     426.1568     297.1308
   1412.98096     424.3247     295.6966   1412.98096     424.3247     295.6966
   1412.96570     421.5652     294.9552   1412.96570     421.5652     294.9552
   1412.95044     420.7849     293.6887   1412.95044     420.7849     293.6887
   1412.93518     418.0157     292.7535   1412.93518     418.0157     292.7535
   1412.91992     415.8288     291.1841   1412.91992     415.8288     291.1841
   1412.90466     414.2298     290.8158   1412.90466     414.2298     290.8158
   1412.88940     412.4814     289.3507   1412.88940     412.4814     289.3507
   1412.87415     410.5603     288.4837   1412.87415     410.5603     288.4837
   1412.85889     408.3310     287.3051   1412.85889     408.3310     287.3051
   1412.84363     406.1708     286.8975   1412.84363     406.1708     286.8975
   1412.82837     405.1846     285.8572   1412.82837     405.1846     285.8572
   1412.81311     403.0603     284.8345   1412.81311     403.0603     284.8345
   1412.79785     401.9431     283.8513   1412.79785     401.9431     283.8513
   1412.78259     399.6747     283.3210   1412.78259     399.6747     283.3210
   1412.76733     398.8980     282.5861   1412.76733     398.8980     282.5861
   1412.75208     397.3412     281.8336   1412.75208     397.3412     281.8336
   1412.73682     395.8436     280.8520   1412.73682     395.8436     280.8520
   1412.72156     394.1080     280.5379   1412.72156     394.1080     280.5379
   1412.70630     392.7293     279.1549   1412.70630     392.7293     279.1549
   1412.69104     391.5527     278.9538   1412.69104     391.5527     278.9538
   1412.67578     390.1449     278.1497   1412.67578     390.1449     278.1497
   1412.66052     389.0108     278.0758   1412.66052     389.0108     278.0758
   1412.64526     387.3706     277.5106   1412.64526     387.3706     277.5106
   1412.63000     386.1592     276.6846   1412.63000     386.1592     276.6846
   1412.61475     385.5078     276.4420   1412.61475     385.5078     276.4420
   1412.59949     384.2227     276.2778   1412.59949     384.2227     276.2778
   1412.58423     383.4247     275.8245   1412.58423     383.4247     275.8245
   1412.56897     382.9780     274.7964   1412.56897     382.9780     274.7964
   1412.55371     381.5695     274.9482   1412.55371     381.5695     274.9482
   1412.53845     381.6320     275.0206   1412.53845     381.6320     275.0206
   1412.52319     380.7158     274.0303   1412.52319     380.7158     274.0303
   1412.50793     379.8139     274.4658   1412.50793     379.8139     274.4658
   1412.49268     379.3250     274.2063   1412.49268     379.3250     274.2063
   1412.47742     379.1472     274.1570   1412.47742     379.1472     274.1570
   1412.46216     378.3516     274.1912   1412.46216     378.3516     274.1912
   1412.44690     377.9284     273.8400   1412.44690     377.9284     273.8400
   1412.43164     377.2365     273.6668   1412.43164     377.2365     273.6668
   1412.41638     377.3192     274.2773   1412.41638     377.3192     274.2773
   1412.40112     376.4824     273.5844   1412.40112     376.4824     273.5844
   1412.38586     376.8057     274.4731   1412.38586     376.8057     274.4731
   1412.37061     377.1358     274.8370   1412.37061     377.1358     274.8370
   1412.35535     376.6792     274.3422   1412.35535     376.6792     274.3422
   1412.34009     376.3863     275.2623   1412.34009     376.3863     275.2623
   1412.32483     376.6991     275.1387   1412.32483     376.6991     275.1387
   1412.30957     376.9984     275.8740   1412.30957     376.9984     275.8740
   1412.29431     377.0458     276.2881   1412.29431     377.0458     276.2881
   1412.27905     377.5285     276.6428   1412.27905     377.5285     276.6428
   1412.26379     378.1041     276.9606   1412.26379     378.1041     276.9606
   1412.24854     378.4486     277.2442   1412.24854     378.4486     277.2442
   1412.23328     378.7919     277.9442   1412.23328     378.7919     277.9442
   1412.21802     378.8851     278.2174   1412.21802     378.8851     278.2174
   1412.20276     379.6480     279.1732   1412.20276     379.6480     279.1732