#     FILENAME=!Skynet_57528_lach-cc-87_20535_20933.cyb.fits
#     BASENAME=Skynet_57528_lach-cc-87_20535_20933
#     SRC_NAME=lach-cc-87
#     OBSERVER=ccmadison16_9505
#     DATE_OBS=2016-05-20T16:15:35.500
#        OBSID=20535
#      SCANNUM=20933
#          MJD=57528.6785
#          UTC=58625
#     SCANTYPE=track
#     DATAMODE=HIRES
#     TUNEFREQ=1420.0000
# Actual_FREQ1=1420.0000
# Actual_FREQ2=1420.0000
#    LO1Tuning=6870.000
#     RFFILTER=1355_1435
#        OBSBW=-15.6250
#        NCHAN=1024 
#        FOCUS=37.0709
#           RA=21:00:06.86
#          DEC=46:06:25.39
#      RA(hrs)=21.001900
#     DEC(deg)=46.107100
#    AZIM(deg)=307.819
#    ELEV(deg)=27.956
#     IFattens=11.00, 10.00
#      WARNING=None
#    TCAL_XL1=7.9635
#    TCAL_YR1=9.1340
#    TCAL_XL2=7.9635
#    TCAL_YR2=9.1340
#     TRX_XL1=11.7060
#     TRX_YR1=11.7060
#     TRX_XL2=11.7060
#     TRX_YR2=11.7060
#        TAVE=1.0000
#Freq1(MHz)          XL1          YR1  Freq2(MHz)          XL2          YR2 

   1427.81250     303.0765     249.1842   1427.81250     303.0765     249.1842
   1427.79724     304.1282     249.5368   1427.79724     304.1282     249.5368
   1427.78198     304.7922     249.8013   1427.78198     304.7922     249.8013
   1427.76672     305.3356     250.5672   1427.76672     305.3356     250.5672
   1427.75146     305.7332     251.1992   1427.75146     305.7332     251.1992
   1427.73621     305.9260     251.7608   1427.73621     305.9260     251.7608
   1427.72095     307.0826     252.6381   1427.72095     307.0826     252.6381
   1427.70569     307.6998     253.3315   1427.70569     307.6998     253.3315
   1427.69043     308.9205     254.3102   1427.69043     308.9205     254.3102
   1427.67517     309.3366     254.3642   1427.67517     309.3366     254.3642
   1427.65991     310.4338     255.7894   1427.65991     310.4338     255.7894
   1427.64465     310.8917     256.4006   1427.64465     310.8917     256.4006
   1427.62939     311.9625     257.1028   1427.62939     311.9625     257.1028
   1427.61414     313.2508     258.4148   1427.61414     313.2508     258.4148
   1427.59888     315.0374     259.2087   1427.59888     315.0374     259.2087
   1427.58362     315.5792     260.4942   1427.58362     315.5792     260.4942
   1427.56836     317.3036     261.4249   1427.56836     317.3036     261.4249
   1427.55310     318.0826     262.2739   1427.55310     318.0826     262.2739
   1427.53784     319.4306     263.3680   1427.53784     319.4306     263.3680
   1427.52258     320.7495     264.8682   1427.52258     320.7495     264.8682
   1427.50732     321.9705     266.1323   1427.50732     321.9705     266.1323
   1427.49207     323.8764     266.9676   1427.49207     323.8764     266.9676
   1427.47681     324.9982     268.7733   1427.47681     324.9982     268.7733
   1427.46155     326.3389     270.0738   1427.46155     326.3389     270.0738
   1427.44629     328.1812     271.4340   1427.44629     328.1812     271.4340
   1427.43103     329.5217     272.4471   1427.43103     329.5217     272.4471
   1427.41577     330.7964     273.9100   1427.41577     330.7964     273.9100
   1427.40051     332.2097     275.3813   1427.40051     332.2097     275.3813
   1427.38525     333.3339     276.9633   1427.38525     333.3339     276.9633
   1427.37000     335.4441     277.6084   1427.37000     335.4441     277.6084
   1427.35474     337.2927     279.6145   1427.35474     337.2927     279.6145
   1427.33948     339.7453     280.8661   1427.33948     339.7453     280.8661
   1427.32422     341.0607     282.5998   1427.32422     341.0607     282.5998
   1427.30896     342.8852     284.2350   1427.30896     342.8852     284.2350
   1427.29370     344.7364     286.0228   1427.29370     344.7364     286.0228
   1427.27844     346.3048     286.8043   1427.27844     346.3048     286.8043
   1427.26318     348.4561     289.5488   1427.26318     348.4561     289.5488
   1427.24792     350.2035     291.1913   1427.24792     350.2035     291.1913
   1427.23267     351.9063     292.6753   1427.23267     351.9063     292.6753
   1427.21741     354.0738     294.9177   1427.21741     354.0738     294.9177
   1427.20215     356.2868     296.5869   1427.20215     356.2868     296.5869
   1427.18689     358.0776     298.1263   1427.18689     358.0776     298.1263
   1427.17163     360.0074     299.3815   1427.17163     360.0074     299.3815
   1427.15637     362.4653     301.7932   1427.15637     362.4653     301.7932
   1427.14111     363.8844     303.5460   1427.14111     363.8844     303.5460
   1427.12585     366.5891     305.1469   1427.12585     366.5891     305.1469
   1427.11060     368.7902     307.2575   1427.11060     368.7902     307.2575
   1427.09534     370.7977     308.6122   1427.09534     370.7977     308.6122
   1427.08008     373.1343     311.4752   1427.08008     373.1343     311.4752
   1427.06482     375.5361     313.0456   1427.06482     375.5361     313.0456
   1427.04956     377.6104     314.9120   1427.04956     377.6104     314.9120
   1427.03430     380.0105     317.1770   1427.03430     380.0105     317.1770
   1427.01904     381.4631     318.7707   1427.01904     381.4631     318.7707
   1427.00378     384.2289     320.9405   1427.00378     384.2289     320.9405
   1426.98853     386.5228     323.1250   1426.98853     386.5228     323.1250
   1426.97327     388.9055     324.9296   1426.97327     388.9055     324.9296
   1426.95801     390.8859     327.1988   1426.95801     390.8859     327.1988
   1426.94275     393.5072     329.6212   1426.94275     393.5072     329.6212
   1426.92749     396.1589     331.4377   1426.92749     396.1589     331.4377
   1426.91223     398.2672     333.1361   1426.91223     398.2672     333.1361
   1426.89697     400.9734     336.1017   1426.89697     400.9734     336.1017
   1426.88171     403.0587     337.8472   1426.88171     403.0587     337.8472
   1426.86646     405.7005     339.8607   1426.86646     405.7005     339.8607
   1426.85120     408.2234     341.9024   1426.85120     408.2234     341.9024
   1426.83594     411.1488     343.8604   1426.83594     411.1488     343.8604
   1426.82068     412.6888     345.9687   1426.82068     412.6888     345.9687
   1426.80542     415.2521     348.1602   1426.80542     415.2521     348.1602
   1426.79016     418.1780     350.4909   1426.79016     418.1780     350.4909
   1426.77490     420.6667     352.2444   1426.77490     420.6667     352.2444
   1426.75964     422.7783     354.8135   1426.75964     422.7783     354.8135
   1426.74438     425.2356     357.2412   1426.74438     425.2356     357.2412
   1426.72913     428.6063     358.1186   1426.72913     428.6063     358.1186
   1426.71387     430.7848     360.4839   1426.71387     430.7848     360.4839
   1426.69861     432.7076     363.2931   1426.69861     432.7076     363.2931
   1426.68335     435.2248     365.3153   1426.68335     435.2248     365.3153
   1426.66809     437.8711     367.3340   1426.66809     437.8711     367.3340
   1426.65283     440.6795     370.2366   1426.65283     440.6795     370.2366
   1426.63757     443.7708     371.8179   1426.63757     443.7708     371.8179
   1426.62231     445.5022     374.7561   1426.62231     445.5022     374.7561
   1426.60706     447.4005     376.5287   1426.60706     447.4005     376.5287
   1426.59180     450.4665     377.9020   1426.59180     450.4665     377.9020
   1426.57654     453.2170     380.6540   1426.57654     453.2170     380.6540
   1426.56128     455.6273     382.8250   1426.56128     455.6273     382.8250
   1426.54602     457.6343     384.8681   1426.54602     457.6343     384.8681
   1426.53076     460.3115     386.6201   1426.53076     460.3115     386.6201
   1426.51550     462.4626     388.6552   1426.51550     462.4626     388.6552
   1426.50024     465.0246     391.0895   1426.50024     465.0246     391.0895
   1426.48499     467.8922     393.4165   1426.48499     467.8922     393.4165
   1426.46973     470.6069     394.8507   1426.46973     470.6069     394.8507
   1426.45447     472.6379     397.5426   1426.45447     472.6379     397.5426
   1426.43921     474.8387     398.9929   1426.43921     474.8387     398.9929
   1426.42395     477.3238     400.6663   1426.42395     477.3238     400.6663
   1426.40869     480.0930     403.0813   1426.40869     480.0930     403.0813
   1426.39343     482.5660     405.2308   1426.39343     482.5660     405.2308
   1426.37817     483.8875     407.2730   1426.37817     483.8875     407.2730
   1426.36292     486.8227     410.1486   1426.36292     486.8227     410.1486
   1426.34766     489.0388     411.3043   1426.34766     489.0388     411.3043
   1426.33240     491.6609     413.2073   1426.33240     491.6609     413.2073
   1426.31714     494.3894     415.3764   1426.31714     494.3894     415.3764
   1426.30188     495.4219     417.6908   1426.30188     495.4219     417.6908
   1426.28662     498.6410     418.8626   1426.28662     498.6410     418.8626
   1426.27136     500.5244     420.7314   1426.27136     500.5244     420.7314
   1426.25610     502.8277     423.5999   1426.25610     502.8277     423.5999
   1426.24084     504.7801     425.0750   1426.24084     504.7801     425.0750
   1426.22559     507.4547     427.2831   1426.22559     507.4547     427.2831
   1426.21033     509.6080     428.9435   1426.21033     509.6080     428.9435
   1426.19507     511.8904     429.9112   1426.19507     511.8904     429.9112
   1426.17981     514.3032     432.7434   1426.17981     514.3032     432.7434
   1426.16455     516.7147     434.6702   1426.16455     516.7147     434.6702
   1426.14929     517.9887     436.5408   1426.14929     517.9887     436.5408
   1426.13403     520.6458     438.7268   1426.13403     520.6458     438.7268
   1426.11877     523.2456     439.8937   1426.11877     523.2456     439.8937
   1426.10352     524.6135     441.8297   1426.10352     524.6135     441.8297
   1426.08826     526.5352     443.4843   1426.08826     526.5352     443.4843
   1426.07300     529.4884     445.2456   1426.07300     529.4884     445.2456
   1426.05774     530.3592     447.8731   1426.05774     530.3592     447.8731
   1426.04248     532.5990     448.8762   1426.04248     532.5990     448.8762
   1426.02722     534.1265     450.3861   1426.02722     534.1265     450.3861
   1426.01196     537.3489     452.5891   1426.01196     537.3489     452.5891
   1425.99670     538.6635     454.1843   1425.99670     538.6635     454.1843
   1425.98145     540.8026     456.1692   1425.98145     540.8026     456.1692
   1425.96619     543.4161     457.7613   1425.96619     543.4161     457.7613
   1425.95093     543.9212     458.8062   1425.95093     543.9212     458.8062
   1425.93567     545.1430     461.0724   1425.93567     545.1430     461.0724
   1425.92041     548.2382     462.0736   1425.92041     548.2382     462.0736
   1425.90515     550.9457     465.2050   1425.90515     550.9457     465.2050
   1425.88989     551.8502     465.9554   1425.88989     551.8502     465.9554
   1425.87463     552.9299     467.4415   1425.87463     552.9299     467.4415
   1425.85938     555.4104     469.5983   1425.85938     555.4104     469.5983
   1425.84412     556.6017     470.5093   1425.84412     556.6017     470.5093
   1425.82886     558.3840     472.1573   1425.82886     558.3840     472.1573
   1425.81360     559.7341     473.8307   1425.81360     559.7341     473.8307
   1425.79834     561.8047     475.8938   1425.79834     561.8047     475.8938
   1425.78308     563.0055     476.4546   1425.78308     563.0055     476.4546
   1425.76782     565.0919     478.6989   1425.76782     565.0919     478.6989
   1425.75256     565.5809     479.2763   1425.75256     565.5809     479.2763
   1425.73730     568.6196     481.6371   1425.73730     568.6196     481.6371
   1425.72205     569.8022     482.8936   1425.72205     569.8022     482.8936
   1425.70679     570.4503     483.5856   1425.70679     570.4503     483.5856
   1425.69153     572.0998     485.2525   1425.69153     572.0998     485.2525
   1425.67627     573.5967     487.1405   1425.67627     573.5967     487.1405
   1425.66101     575.1342     487.7400   1425.66101     575.1342     487.7400
   1425.64575     576.2602     489.4180   1425.64575     576.2602     489.4180
   1425.63049     576.5364     490.5391   1425.63049     576.5364     490.5391
   1425.61523     578.9932     492.0278   1425.61523     578.9932     492.0278
   1425.59998     580.2456     493.4807   1425.59998     580.2456     493.4807
   1425.58472     581.2576     495.4341   1425.58472     581.2576     495.4341
   1425.56946     582.4387     496.4057   1425.56946     582.4387     496.4057
   1425.55420     583.0179     497.3684   1425.55420     583.0179     497.3684
   1425.53894     585.7557     497.8701   1425.53894     585.7557     497.8701
   1425.52368     585.2849     499.5255   1425.52368     585.2849     499.5255
   1425.50842     587.0853     500.9290   1425.50842     587.0853     500.9290
   1425.49316     588.1774     502.7064   1425.49316     588.1774     502.7064
   1425.47791     589.5897     503.8015   1425.47791     589.5897     503.8015
   1425.46265     590.7719     504.0621   1425.46265     590.7719     504.0621
   1425.44739     592.0849     505.9090   1425.44739     592.0849     505.9090
   1425.43213     592.7230     507.7702   1425.43213     592.7230     507.7702
   1425.41687     594.9891     509.4236   1425.41687     594.9891     509.4236
   1425.40161     593.8628     509.1678   1425.40161     593.8628     509.1678
   1425.38635     595.0142     511.1180   1425.38635     595.0142     511.1180
   1425.37109     596.3070     511.6974   1425.37109     596.3070     511.6974
   1425.35583     597.2594     513.0476   1425.35583     597.2594     513.0476
   1425.34058     599.1546     513.7354   1425.34058     599.1546     513.7354
   1425.32532     599.7866     515.2870   1425.32532     599.7866     515.2870
   1425.31006     600.4072     515.4335   1425.31006     600.4072     515.4335
   1425.29480     600.4775     516.7164   1425.29480     600.4775     516.7164
   1425.27954     601.5764     518.6618   1425.27954     601.5764     518.6618
   1425.26428     601.9379     519.1627   1425.26428     601.9379     519.1627
   1425.24902     603.2422     519.9175   1425.24902     603.2422     519.9175
   1425.23376     603.9978     520.9308   1425.23376     603.9978     520.9308
   1425.21851     603.2830     522.4200   1425.21851     603.2830     522.4200
   1425.20325     605.2757     522.6555   1425.20325     605.2757     522.6555
   1425.18799     606.2119     525.0879   1425.18799     606.2119     525.0879
   1425.17273     607.1523     524.8882   1425.17273     607.1523     524.8882
   1425.15747     607.2417     526.3914   1425.15747     607.2417     526.3914
   1425.14221     607.4968     525.9840   1425.14221     607.4968     525.9840
   1425.12695     608.7155     527.5789   1425.12695     608.7155     527.5789
   1425.11169     608.8686     527.8090   1425.11169     608.8686     527.8090
   1425.09644     609.6041     528.7758   1425.09644     609.6041     528.7758
   1425.08118     610.6422     530.1276   1425.08118     610.6422     530.1276
   1425.06592     610.4924     532.2434   1425.06592     610.4924     532.2434
   1425.05066     611.2011     531.9164   1425.05066     611.2011     531.9164
   1425.03540     611.8917     533.5461   1425.03540     611.8917     533.5461
   1425.02014     612.6424     534.0901   1425.02014     612.6424     534.0901
   1425.00488     612.6193     534.9279   1425.00488     612.6193     534.9279
   1424.98962     613.2121     535.8226   1424.98962     613.2121     535.8226
   1424.97437     613.8254     536.6531   1424.97437     613.8254     536.6531
   1424.95911     614.6747     537.7061   1424.95911     614.6747     537.7061
   1424.94385     613.3911     538.0420   1424.94385     613.3911     538.0420
   1424.92859     614.5790     538.9517   1424.92859     614.5790     538.9517
   1424.91333     614.5447     538.8903   1424.91333     614.5447     538.8903
   1424.89807     615.1246     540.6964   1424.89807     615.1246     540.6964
   1424.88281     615.3686     540.7742   1424.88281     615.3686     540.7742
   1424.86755     615.4479     541.4631   1424.86755     615.4479     541.4631
   1424.85229     616.2872     542.0927   1424.85229     616.2872     542.0927
   1424.83704     615.2371     543.3858   1424.83704     615.2371     543.3858
   1424.82178     616.6182     544.7340   1424.82178     616.6182     544.7340
   1424.80652     616.2107     544.1569   1424.80652     616.2107     544.1569
   1424.79126     616.4228     544.2689   1424.79126     616.4228     544.2689
   1424.77600     615.9774     546.3616   1424.77600     615.9774     546.3616
   1424.76074     617.3442     546.5413   1424.76074     617.3442     546.5413
   1424.74548     617.5526     546.9323   1424.74548     617.5526     546.9323
   1424.73022     617.4762     548.1880   1424.73022     617.4762     548.1880
   1424.71497     618.3004     548.4690   1424.71497     618.3004     548.4690
   1424.69971     617.2916     549.4913   1424.69971     617.2916     549.4913
   1424.68445     617.4191     549.3585   1424.68445     617.4191     549.3585
   1424.66919     619.4011     550.9041   1424.66919     619.4011     550.9041
   1424.65393     618.6033     550.8043   1424.65393     618.6033     550.8043
   1424.63867     617.5034     552.4013   1424.63867     617.5034     552.4013
   1424.62341     618.0886     551.7504   1424.62341     618.0886     551.7504
   1424.60815     617.9024     552.9515   1424.60815     617.9024     552.9515
   1424.59290     618.7367     553.9390   1424.59290     618.7367     553.9390
   1424.57764     617.8187     554.0626   1424.57764     617.8187     554.0626
   1424.56238     618.4446     554.7346   1424.56238     618.4446     554.7346
   1424.54712     618.5261     554.5486   1424.54712     618.5261     554.5486
   1424.53186     619.2168     555.8596   1424.53186     619.2168     555.8596
   1424.51660     618.8781     555.8803   1424.51660     618.8781     555.8803
   1424.50134     617.6754     557.6189   1424.50134     617.6754     557.6189
   1424.48608     618.5441     557.5049   1424.48608     618.5441     557.5049
   1424.47083     618.0378     558.0657   1424.47083     618.0378     558.0657
   1424.45557     619.3145     558.1241   1424.45557     619.3145     558.1241
   1424.44031     618.7123     558.6870   1424.44031     618.7123     558.6870
   1424.42505     617.9633     558.7362   1424.42505     617.9633     558.7362
   1424.40979     617.7076     560.4631   1424.40979     617.7076     560.4631
   1424.39453     618.0146     559.9508   1424.39453     618.0146     559.9508
   1424.37927     618.0850     560.3503   1424.37927     618.0850     560.3503
   1424.36401     617.4131     560.4376   1424.36401     617.4131     560.4376
   1424.34875     618.2751     560.8794   1424.34875     618.2751     560.8794
   1424.33350     618.1512     561.7574   1424.33350     618.1512     561.7574
   1424.31824     618.0515     562.4186   1424.31824     618.0515     562.4186
   1424.30298     618.0720     562.7339   1424.30298     618.0720     562.7339
   1424.28772     617.2100     562.6685   1424.28772     617.2100     562.6685
   1424.27246     617.7291     563.0264   1424.27246     617.7291     563.0264
   1424.25720     617.6636     563.5294   1424.25720     617.6636     563.5294
   1424.24194     617.0417     563.7079   1424.24194     617.0417     563.7079
   1424.22668     617.0864     564.1304   1424.22668     617.0864     564.1304
   1424.21143     618.1489     564.4082   1424.21143     618.1489     564.4082
   1424.19617     617.1223     565.1503   1424.19617     617.1223     565.1503
   1424.18091     617.2921     564.6885   1424.18091     617.2921     564.6885
   1424.16565     617.2252     565.7089   1424.16565     617.2252     565.7089
   1424.15039     617.2621     566.5956   1424.15039     617.2621     566.5956
   1424.13513     617.9002     566.7551   1424.13513     617.9002     566.7551
   1424.11987     617.0618     566.2838   1424.11987     617.0618     566.2838
   1424.10461     615.5425     567.5543   1424.10461     615.5425     567.5543
   1424.08936     615.8813     566.9396   1424.08936     615.8813     566.9396
   1424.07410     615.6121     567.6123   1424.07410     615.6121     567.6123
   1424.05884     615.4098     567.9510   1424.05884     615.4098     567.9510
   1424.04358     615.6442     568.6339   1424.04358     615.6442     568.6339
   1424.02832     615.7123     567.7877   1424.02832     615.7123     567.7877
   1424.01306     615.6844     569.3240   1424.01306     615.6844     569.3240
   1423.99780     615.7780     569.7679   1423.99780     615.7780     569.7679
   1423.98254     615.3066     569.6931   1423.98254     615.3066     569.6931
   1423.96729     614.6016     568.9208   1423.96729     614.6016     568.9208
   1423.95203     614.4149     569.1068   1423.95203     614.4149     569.1068
   1423.93677     615.0750     570.1760   1423.93677     615.0750     570.1760
   1423.92151     614.8207     569.2368   1423.92151     614.8207     569.2368
   1423.90625     614.6945     570.5009   1423.90625     614.6945     570.5009
   1423.89099     614.0306     570.2797   1423.89099     614.0306     570.2797
   1423.87573     614.0176     570.5195   1423.87573     614.0176     570.5195
   1423.86047     613.8889     569.8151   1423.86047     613.8889     569.8151
   1423.84521     613.2849     571.4678   1423.84521     613.2849     571.4678
   1423.82996     612.9566     570.5872   1423.82996     612.9566     570.5872
   1423.81470     612.3437     570.8760   1423.81470     612.3437     570.8760
   1423.79944     612.7760     570.3522   1423.79944     612.7760     570.3522
   1423.78418     612.8809     570.9114   1423.78418     612.8809     570.9114
   1423.76892     612.4817     571.4113   1423.76892     612.4817     571.4113
   1423.75366     611.5504     571.3629   1423.75366     611.5504     571.3629
   1423.73840     612.1666     570.7881   1423.73840     612.1666     570.7881
   1423.72314     612.4386     571.4294   1423.72314     612.4386     571.4294
   1423.70789     611.4402     571.5481   1423.70789     611.4402     571.5481
   1423.69263     611.5140     571.6945   1423.69263     611.5140     571.6945
   1423.67737     611.4371     571.5179   1423.67737     611.4371     571.5179
   1423.66211     611.4745     571.6130   1423.66211     611.4745     571.6130
   1423.64685     611.1060     571.1578   1423.64685     611.1060     571.1578
   1423.63159     611.2947     571.6398   1423.63159     611.2947     571.6398
   1423.61633     610.2986     572.0187   1423.61633     610.2986     572.0187
   1423.60107     610.5389     571.0588   1423.60107     610.5389     571.0588
   1423.58582     610.8290     570.5879   1423.58582     610.8290     570.5879
   1423.57056     609.3085     571.2051   1423.57056     609.3085     571.2051
   1423.55530     610.5006     570.5740   1423.55530     610.5006     570.5740
   1423.54004     610.5289     571.5644   1423.54004     610.5289     571.5644
   1423.52478     608.8812     571.5838   1423.52478     608.8812     571.5838
   1423.50952     610.0874     571.0764   1423.50952     610.0874     571.0764
   1423.49426     608.1567     570.9501   1423.49426     608.1567     570.9501
   1423.47900     608.8633     570.5972   1423.47900     608.8633     570.5972
   1423.46375     609.0278     571.2186   1423.46375     609.0278     571.2186
   1423.44849     608.9299     569.8710   1423.44849     608.9299     569.8710
   1423.43323     609.0430     570.0975   1423.43323     609.0430     570.0975
   1423.41797     609.2465     569.6115   1423.41797     609.2465     569.6115
   1423.40271     607.8056     569.4897   1423.40271     607.8056     569.4897
   1423.38745     608.1898     569.2553   1423.38745     608.1898     569.2553
   1423.37219     606.9736     569.2278   1423.37219     606.9736     569.2278
   1423.35693     608.1539     569.7805   1423.35693     608.1539     569.7805
   1423.34167     606.5059     569.6384   1423.34167     606.5059     569.6384
   1423.32642     606.4004     569.1832   1423.32642     606.4004     569.1832
   1423.31116     605.7205     568.2183   1423.31116     605.7205     568.2183
   1423.29590     608.0732     568.7155   1423.29590     608.0732     568.7155
   1423.28064     606.1121     568.2521   1423.28064     606.1121     568.2521
   1423.26538     605.7029     567.7164   1423.26538     605.7029     567.7164
   1423.25012     605.9725     567.5748   1423.25012     605.9725     567.5748
   1423.23486     606.0338     566.8135   1423.23486     606.0338     566.8135
   1423.21960     606.2821     567.1328   1423.21960     606.2821     567.1328
   1423.20435     605.4659     566.1838   1423.20435     605.4659     566.1838
   1423.18909     605.3044     565.9871   1423.18909     605.3044     565.9871
   1423.17383     605.3318     565.2677   1423.17383     605.3318     565.2677
   1423.15857     604.7573     564.6089   1423.15857     604.7573     564.6089
   1423.14331     604.4607     564.3218   1423.14331     604.4607     564.3218
   1423.12805     604.5189     564.7460   1423.12805     604.5189     564.7460
   1423.11279     604.2352     563.8484   1423.11279     604.2352     563.8484
   1423.09753     604.2283     563.6775   1423.09753     604.2283     563.6775
   1423.08228     603.9907     562.8906   1423.08228     603.9907     562.8906
   1423.06702     603.7552     562.4449   1423.06702     603.7552     562.4449
   1423.05176     603.4904     562.1625   1423.05176     603.4904     562.1625
   1423.03650     603.0831     561.0573   1423.03650     603.0831     561.0573
   1423.02124     602.1348     560.6850   1423.02124     602.1348     560.6850
   1423.00598     602.4882     560.7637   1423.00598     602.4882     560.7637
   1422.99072     602.2935     560.0666   1422.99072     602.2935     560.0666
   1422.97546     601.1552     559.5291   1422.97546     601.1552     559.5291
   1422.96021     602.0628     558.5214   1422.96021     602.0628     558.5214
   1422.94495     601.1951     558.2629   1422.94495     601.1951     558.2629
   1422.92969     602.2469     557.1954   1422.92969     602.2469     557.1954
   1422.91443     601.6089     557.2997   1422.91443     601.6089     557.2997
   1422.89917     601.2639     556.0128   1422.89917     601.2639     556.0128
   1422.88391     601.2907     556.4222   1422.88391     601.2907     556.4222
   1422.86865     600.8979     556.8568   1422.86865     600.8979     556.8568
   1422.85339     602.1732     555.0637   1422.85339     602.1732     555.0637
   1422.83813     600.4833     554.5397   1422.83813     600.4833     554.5397
   1422.82288     600.1254     553.5420   1422.82288     600.1254     553.5420
   1422.80762     600.7123     552.4927   1422.80762     600.7123     552.4927
   1422.79236     599.5964     552.6412   1422.79236     599.5964     552.6412
   1422.77710     599.9973     552.1763   1422.77710     599.9973     552.1763
   1422.76184     599.8683     551.0557   1422.76184     599.8683     551.0557
   1422.74658     599.7271     550.7543   1422.74658     599.7271     550.7543
   1422.73132     598.8906     550.2896   1422.73132     598.8906     550.2896
   1422.71606     599.2015     548.3408   1422.71606     599.2015     548.3408
   1422.70081     599.4233     547.9855   1422.70081     599.4233     547.9855
   1422.68555     599.2590     547.8578   1422.68555     599.2590     547.8578
   1422.67029     598.9127     546.7758   1422.67029     598.9127     546.7758
   1422.65503     598.2892     545.7923   1422.65503     598.2892     545.7923
   1422.63977     597.8684     544.8094   1422.63977     597.8684     544.8094
   1422.62451     598.9109     544.6516   1422.62451     598.9109     544.6516
   1422.60925     598.5995     543.2222   1422.60925     598.5995     543.2222
   1422.59399     597.6644     542.4478   1422.59399     597.6644     542.4478
   1422.57874     598.6936     540.9185   1422.57874     598.6936     540.9185
   1422.56348     597.6488     540.0935   1422.56348     597.6488     540.0935
   1422.54822     596.7086     539.9155   1422.54822     596.7086     539.9155
   1422.53296     597.5847     539.9936   1422.53296     597.5847     539.9936
   1422.51770     597.2645     539.2451   1422.51770     597.2645     539.2451
   1422.50244     595.6258     537.5437   1422.50244     595.6258     537.5437
   1422.48718     596.0995     536.1624   1422.48718     596.0995     536.1624
   1422.47192     597.6422     535.9778   1422.47192     597.6422     535.9778
   1422.45667     596.7020     535.3177   1422.45667     596.7020     535.3177
   1422.44141     594.8731     533.2949   1422.44141     594.8731     533.2949
   1422.42615     594.9489     532.5300   1422.42615     594.9489     532.5300
   1422.41089     596.5021     531.1624   1422.41089     596.5021     531.1624
   1422.39563     595.1753     530.7394   1422.39563     595.1753     530.7394
   1422.38037     595.2828     529.3588   1422.38037     595.2828     529.3588
   1422.36511     595.1827     528.9633   1422.36511     595.1827     528.9633
   1422.34985     594.3842     527.7167   1422.34985     594.3842     527.7167
   1422.33459     594.9821     527.6592   1422.33459     594.9821     527.6592
   1422.31934     594.1265     525.7675   1422.31934     594.1265     525.7675
   1422.30408     593.4684     525.1239   1422.30408     593.4684     525.1239
   1422.28882     594.0085     523.9717   1422.28882     594.0085     523.9717
   1422.27356     593.1387     523.6503   1422.27356     593.1387     523.6503
   1422.25830     593.8895     522.1767   1422.25830     593.8895     522.1767
   1422.24304     593.5828     520.6608   1422.24304     593.5828     520.6608
   1422.22778     593.2415     519.4446   1422.22778     593.2415     519.4446
   1422.21252     592.7966     518.3466   1422.21252     592.7966     518.3466
   1422.19727     593.5297     517.7996   1422.19727     593.5297     517.7996
   1422.18201     592.7952     517.2528   1422.18201     592.7952     517.2528
   1422.16675     593.3198     516.2968   1422.16675     593.3198     516.2968
   1422.15149     592.2770     515.3749   1422.15149     592.2770     515.3749
   1422.13623     592.9800     513.2974   1422.13623     592.9800     513.2974
   1422.12097     591.9368     513.4387   1422.12097     591.9368     513.4387
   1422.10571     592.8735     511.7221   1422.10571     592.8735     511.7221
   1422.09045     591.6286     510.1089   1422.09045     591.6286     510.1089
   1422.07520     592.5391     509.2032   1422.07520     592.5391     509.2032
   1422.05994     592.4350     509.0208   1422.05994     592.4350     509.0208
   1422.04468     592.6987     507.0887   1422.04468     592.6987     507.0887
   1422.02942     592.0217     507.0947   1422.02942     592.0217     507.0947
   1422.01416     590.9479     505.7371   1422.01416     590.9479     505.7371
   1421.99890     591.6633     503.7599   1421.99890     591.6633     503.7599
   1421.98364     591.2148     502.4014   1421.98364     591.2148     502.4014
   1421.96838     590.5756     501.5695   1421.96838     590.5756     501.5695
   1421.95312     591.1991     500.8740   1421.95312     591.1991     500.8740
   1421.93787     590.4337     499.5073   1421.93787     590.4337     499.5073
   1421.92261     589.9640     498.1581   1421.92261     589.9640     498.1581
   1421.90735     589.8864     496.4435   1421.90735     589.8864     496.4435
   1421.89209     589.6884     495.1547   1421.89209     589.6884     495.1547
   1421.87683     589.2109     493.6709   1421.87683     589.2109     493.6709
   1421.86157     589.2828     493.6021   1421.86157     589.2828     493.6021
   1421.84631     590.1995     492.1167   1421.84631     590.1995     492.1167
   1421.83105     589.0234     491.0359   1421.83105     589.0234     491.0359
   1421.81580     586.7999     489.6406   1421.81580     586.7999     489.6406
   1421.80054     588.9811     488.4135   1421.80054     588.9811     488.4135
   1421.78528     589.2084     487.3934   1421.78528     589.2084     487.3934
   1421.77002     588.5575     485.8383   1421.77002     588.5575     485.8383
   1421.75476     588.6310     485.3251   1421.75476     588.6310     485.3251
   1421.73950     588.2250     483.9646   1421.73950     588.2250     483.9646
   1421.72424     588.1835     483.2160   1421.72424     588.1835     483.2160
   1421.70898     588.4099     482.2659   1421.70898     588.4099     482.2659
   1421.69373     587.7001     480.3976   1421.69373     587.7001     480.3976
   1421.67847     587.5930     478.5532   1421.67847     587.5930     478.5532
   1421.66321     588.2620     478.4135   1421.66321     588.2620     478.4135
   1421.64795     586.8518     476.4774   1421.64795     586.8518     476.4774
   1421.63269     587.1181     476.1776   1421.63269     587.1181     476.1776
   1421.61743     586.8599     474.9551   1421.61743     586.8599     474.9551
   1421.60217     587.5515     473.4500   1421.60217     587.5515     473.4500
   1421.58691     587.0340     473.2415   1421.58691     587.0340     473.2415
   1421.57166     587.0911     471.3040   1421.57166     587.0911     471.3040
   1421.55640     586.1484     470.8151   1421.55640     586.1484     470.8151
   1421.54114     587.0975     468.8056   1421.54114     587.0975     468.8056
   1421.52588     586.7239     467.8009   1421.52588     586.7239     467.8009
   1421.51062     586.0387     466.3409   1421.51062     586.0387     466.3409
   1421.49536     585.5215     465.3896   1421.49536     585.5215     465.3896
   1421.48010     585.7675     464.4352   1421.48010     585.7675     464.4352
   1421.46484     585.4233     463.6790   1421.46484     585.4233     463.6790
   1421.44958     585.4564     461.5508   1421.44958     585.4564     461.5508
   1421.43433     586.7593     460.9590   1421.43433     586.7593     460.9590
   1421.41907     584.8633     459.2206   1421.41907     584.8633     459.2206
   1421.40381     585.2642     458.0898   1421.40381     585.2642     458.0898
   1421.38855     585.0808     457.2939   1421.38855     585.0808     457.2939
   1421.37329     584.4483     456.3750   1421.37329     584.4483     456.3750
   1421.35803     585.8920     454.1823   1421.35803     585.8920     454.1823
   1421.34277     585.3308     454.4100   1421.34277     585.3308     454.4100
   1421.32751     584.7336     452.3696   1421.32751     584.7336     452.3696
   1421.31226     585.3703     451.7087   1421.31226     585.3703     451.7087
   1421.29700     585.7032     450.8669   1421.29700     585.7032     450.8669
   1421.28174     584.5253     449.9589   1421.28174     584.5253     449.9589
   1421.26648     584.7576     448.4032   1421.26648     584.7576     448.4032
   1421.25122     585.4122     448.1735   1421.25122     585.4122     448.1735
   1421.23596     585.7458     446.9791   1421.23596     585.7458     446.9791
   1421.22070     586.3262     446.6927   1421.22070     586.3262     446.6927
   1421.20544     587.2442     446.4736   1421.20544     587.2442     446.4736
   1421.19019     588.8090     446.5992   1421.19019     588.8090     446.5992
   1421.17493     591.3990     447.1820   1421.17493     591.3990     447.1820
   1421.15967     595.6433     448.3408   1421.15967     595.6433     448.3408
   1421.14441     598.6902     450.4865   1421.14441     598.6902     450.4865
   1421.12915     605.5847     453.8179   1421.12915     605.5847     453.8179
   1421.11389     614.7299     459.8369   1421.11389     614.7299     459.8369
   1421.09863     627.0004     467.8284   1421.09863     627.0004     467.8284
   1421.08337     643.9068     479.4790   1421.08337     643.9068     479.4790
   1421.06812     667.3195     493.8315   1421.06812     667.3195     493.8315
   1421.05286     691.6783     511.7820   1421.05286     691.6783     511.7820
   1421.03760     723.3837     531.6393   1421.03760     723.3837     531.6393
   1421.02234     758.8245     556.5465   1421.02234     758.8245     556.5465
   1421.00708     794.4324     580.3080   1421.00708     794.4324     580.3080
   1420.99182     823.6311     602.1492   1420.99182     823.6311     602.1492
   1420.97656     872.6655     635.4785   1420.97656     872.6655     635.4785
   1420.96130     955.8644     694.7125   1420.96130     955.8644     694.7125
   1420.94604    1022.8427     740.9667   1420.94604    1022.8427     740.9667
   1420.93079    1037.8867     747.5112   1420.93079    1037.8867     747.5112
   1420.91553    1041.3927     747.4653   1420.91553    1041.3927     747.4653
   1420.90027    1053.4822     754.4069   1420.90027    1053.4822     754.4069
   1420.88501    1058.8250     755.3558   1420.88501    1058.8250     755.3558
   1420.86975     987.8041     704.5755   1420.86975     987.8041     704.5755
   1420.85449     915.9993     650.9182   1420.85449     915.9993     650.9182
   1420.83923     891.9840     633.7823   1420.83923     891.9840     633.7823
   1420.82397     970.0767     683.6302   1420.82397     970.0767     683.6302
   1420.80872    1182.5193     827.9937   1420.80872    1182.5193     827.9937
   1420.79346    1399.5277     974.4799   1420.79346    1399.5277     974.4799
   1420.77820    1493.0039    1036.3926   1420.77820    1493.0039    1036.3926
   1420.76294    1547.1187    1075.0100   1420.76294    1547.1187    1075.0100
   1420.74768    1535.0653    1065.3926   1420.74768    1535.0653    1065.3926
   1420.73242    1346.5898     935.2673   1420.73242    1346.5898     935.2673
   1420.71716    1060.3353     737.5475   1420.71716    1060.3353     737.5475
   1420.70190     956.8983     664.3898   1420.70190     956.8983     664.3898
   1420.68665     932.1919     646.1452   1420.68665     932.1919     646.1452
   1420.67139     944.7667     654.4133   1420.67139     944.7667     654.4133
   1420.65613    1132.3196     777.3353   1420.65613    1132.3196     777.3353
   1420.64087    1383.3882     946.2749   1420.64087    1383.3882     946.2749
   1420.62561    1576.8965    1075.6215   1420.62561    1576.8965    1075.6215
   1420.61035    1518.1123    1032.3870   1420.61035    1518.1123    1032.3870
   1420.59509    1302.2389     885.7836   1420.59509    1302.2389     885.7836
   1420.57983    1193.6318     812.0873   1420.57983    1193.6318     812.0873
   1420.56458    1170.9102     794.6491   1420.56458    1170.9102     794.6491
   1420.54932    1225.0936     832.1402   1420.54932    1225.0936     832.1402
   1420.53406    1387.9978     940.0912   1420.53406    1387.9978     940.0912
   1420.51880    1455.1300     984.5349   1420.51880    1455.1300     984.5349
   1420.50354    1333.4515     901.7188   1420.50354    1333.4515     901.7188
   1420.48828    1059.8954     715.8587   1420.48828    1059.8954     715.8587
   1420.47302     808.4716     545.5428   1420.47302     808.4716     545.5428
   1420.45776     682.8953     462.9949   1420.45776     682.8953     462.9949
   1420.44250     632.8039     430.1305   1420.44250     632.8039     430.1305
   1420.42725     609.5314     414.0132   1420.42725     609.5314     414.0132
   1420.41199     598.7593     405.7828   1420.41199     598.7593     405.7828
   1420.39673     592.4914     401.3289   1420.39673     592.4914     401.3289
   1420.38147     589.6996     398.1111   1420.38147     589.6996     398.1111
   1420.36621     587.0375     395.9127   1420.36621     587.0375     395.9127
   1420.35095     587.8859     394.2166   1420.35095     587.8859     394.2166
   1420.33569     587.1872     393.3312   1420.33569     587.1872     393.3312
   1420.32043     586.3539     392.0600   1420.32043     586.3539     392.0600
   1420.30518     586.1469     391.3115   1420.30518     586.1469     391.3115
   1420.28992     586.6067     390.3836   1420.28992     586.6067     390.3836
   1420.27466     586.2670     389.4938   1420.27466     586.2670     389.4938
   1420.25940     587.0544     389.9658   1420.25940     587.0544     389.9658
   1420.24414     585.8641     389.3149   1420.24414     585.8641     389.3149
   1420.22888     586.3022     388.0373   1420.22888     586.3022     388.0373
   1420.21362     585.7281     387.0883   1420.21362     585.7281     387.0883
   1420.19836     583.3801     385.2411   1420.19836     583.3801     385.2411
   1420.18311     582.8888     384.1227   1420.18311     582.8888     384.1227
   1420.16785     581.8895     383.1692   1420.16785     581.8895     383.1692
   1420.15259     580.9432     381.9351   1420.15259     580.9432     381.9351
   1420.13733     580.5878     381.1318   1420.13733     580.5878     381.1318
   1420.12207     580.7424     380.1132   1420.12207     580.7424     380.1132
   1420.10681     580.0276     378.8879   1420.10681     580.0276     378.8879
   1420.09155     580.3861     378.6805   1420.09155     580.3861     378.6805
   1420.07629     578.9134     377.0437   1420.07629     578.9134     377.0437
   1420.06104     580.0607     376.5217   1420.06104     580.0607     376.5217
   1420.04578     578.5151     376.3115   1420.04578     578.5151     376.3115
   1420.03052     579.4983     376.2287   1420.03052     579.4983     376.2287
   1420.01526     579.8648     375.3169   1420.01526     579.8648     375.3169
   1420.00000     580.8975     375.7576   1420.00000     580.8975     375.7576
   1419.98474     581.9298     376.1983   1419.98474     581.9298     376.1983
   1419.96948     582.4577     374.5588   1419.96948     582.4577     374.5588
   1419.95422     579.2369     372.4774   1419.95422     579.2369     372.4774
   1419.93896     579.3188     372.8633   1419.93896     579.3188     372.8633
   1419.92371     579.6885     372.2148   1419.92371     579.6885     372.2148
   1419.90845     579.9595     371.2427   1419.90845     579.9595     371.2427
   1419.89319     580.9140     370.7238   1419.89319     580.9140     370.7238
   1419.87793     580.5187     371.1215   1419.87793     580.5187     371.1215
   1419.86267     579.5466     370.7005   1419.86267     579.5466     370.7005
   1419.84741     581.3322     369.8361   1419.84741     581.3322     369.8361
   1419.83215     580.6282     369.3577   1419.83215     580.6282     369.3577
   1419.81689     580.9169     369.2314   1419.81689     580.9169     369.2314
   1419.80164     581.3836     368.6942   1419.80164     581.3836     368.6942
   1419.78638     581.2753     368.4559   1419.78638     581.2753     368.4559
   1419.77112     581.1070     367.9818   1419.77112     581.1070     367.9818
   1419.75586     581.4567     368.6784   1419.75586     581.4567     368.6784
   1419.74060     582.5504     367.7660   1419.74060     582.5504     367.7660
   1419.72534     582.8062     367.3563   1419.72534     582.8062     367.3563
   1419.71008     582.0724     366.9039   1419.71008     582.0724     366.9039
   1419.69482     582.3330     366.3898   1419.69482     582.3330     366.3898
   1419.67957     583.3002     366.9569   1419.67957     583.3002     366.9569
   1419.66431     583.8329     366.0021   1419.66431     583.8329     366.0021
   1419.64905     582.5002     366.3625   1419.64905     582.5002     366.3625
   1419.63379     583.8887     366.2367   1419.63379     583.8887     366.2367
   1419.61853     583.1081     365.1523   1419.61853     583.1081     365.1523
   1419.60327     584.2308     365.7345   1419.60327     584.2308     365.7345
   1419.58801     584.1932     364.5740   1419.58801     584.1932     364.5740
   1419.57275     585.7333     364.4263   1419.57275     585.7333     364.4263
   1419.55750     585.6427     364.3536   1419.55750     585.6427     364.3536
   1419.54224     585.1179     364.0667   1419.54224     585.1179     364.0667
   1419.52698     586.2625     363.7812   1419.52698     586.2625     363.7812
   1419.51172     585.2049     364.5180   1419.51172     585.2049     364.5180
   1419.49646     587.7310     363.6523   1419.49646     587.7310     363.6523
   1419.48120     586.4156     364.0871   1419.48120     586.4156     364.0871
   1419.46594     587.0305     363.5962   1419.46594     587.0305     363.5962
   1419.45068     587.5442     363.2386   1419.45068     587.5442     363.2386
   1419.43542     588.2018     363.6085   1419.43542     588.2018     363.6085
   1419.42017     587.9400     363.0099   1419.42017     587.9400     363.0099
   1419.40491     588.2661     363.0197   1419.40491     588.2661     363.0197
   1419.38965     588.7382     362.5134   1419.38965     588.7382     362.5134
   1419.37439     589.6096     362.9125   1419.37439     589.6096     362.9125
   1419.35913     589.4108     363.5013   1419.35913     589.4108     363.5013
   1419.34387     590.0791     363.4719   1419.34387     590.0791     363.4719
   1419.32861     589.8819     362.4906   1419.32861     589.8819     362.4906
   1419.31335     590.5779     362.4622   1419.31335     590.5779     362.4622
   1419.29810     590.3715     363.1113   1419.29810     590.3715     363.1113
   1419.28284     591.3174     363.1091   1419.28284     591.3174     363.1091
   1419.26758     592.6833     363.6829   1419.26758     592.6833     363.6829
   1419.25232     591.1119     363.0871   1419.25232     591.1119     363.0871
   1419.23706     591.3822     362.8943   1419.23706     591.3822     362.8943
   1419.22180     592.2721     362.5933   1419.22180     592.2721     362.5933
   1419.20654     592.8142     363.3182   1419.20654     592.8142     363.3182
   1419.19128     593.3217     362.1722   1419.19128     593.3217     362.1722
   1419.17603     593.7873     363.2527   1419.17603     593.7873     363.2527
   1419.16077     595.0540     362.9040   1419.16077     595.0540     362.9040
   1419.14551     594.6219     362.8601   1419.14551     594.6219     362.8601
   1419.13025     594.9597     362.7762   1419.13025     594.9597     362.7762
   1419.11499     595.3409     363.5234   1419.11499     595.3409     363.5234
   1419.09973     595.8194     362.8860   1419.09973     595.8194     362.8860
   1419.08447     596.1403     363.5406   1419.08447     596.1403     363.5406
   1419.06921     596.3134     363.9732   1419.06921     596.3134     363.9732
   1419.05396     597.9492     363.7234   1419.05396     597.9492     363.7234
   1419.03870     598.1226     363.2185   1419.03870     598.1226     363.2185
   1419.02344     597.2606     363.1021   1419.02344     597.2606     363.1021
   1419.00818     598.8958     363.8130   1419.00818     598.8958     363.8130
   1418.99292     598.1926     363.5647   1418.99292     598.1926     363.5647
   1418.97766     599.6299     364.1031   1418.97766     599.6299     364.1031
   1418.96240     599.4348     364.3719   1418.96240     599.4348     364.3719
   1418.94714     600.8178     364.5596   1418.94714     600.8178     364.5596
   1418.93188     601.2198     364.4552   1418.93188     601.2198     364.4552
   1418.91663     601.6678     364.7397   1418.91663     601.6678     364.7397
   1418.90137     602.2308     365.0004   1418.90137     602.2308     365.0004
   1418.88611     601.5403     364.9331   1418.88611     601.5403     364.9331
   1418.87085     602.2419     365.4263   1418.87085     602.2419     365.4263
   1418.85559     603.1609     365.6559   1418.85559     603.1609     365.6559
   1418.84033     604.2839     365.5585   1418.84033     604.2839     365.5585
   1418.82507     603.4976     366.4095   1418.82507     603.4976     366.4095
   1418.80981     604.5476     366.3286   1418.80981     604.5476     366.3286
   1418.79456     604.8824     366.6135   1418.79456     604.8824     366.6135
   1418.77930     605.6011     366.6277   1418.77930     605.6011     366.6277
   1418.76404     606.3990     366.3166   1418.76404     606.3990     366.3166
   1418.74878     606.7960     367.1762   1418.74878     606.7960     367.1762
   1418.73352     606.5820     367.1057   1418.73352     606.5820     367.1057
   1418.71826     607.2675     367.8635   1418.71826     607.2675     367.8635
   1418.70300     608.5120     367.9852   1418.70300     608.5120     367.9852
   1418.68774     608.4054     368.1022   1418.68774     608.4054     368.1022
   1418.67249     609.9481     368.2383   1418.67249     609.9481     368.2383
   1418.65723     609.6211     368.4518   1418.65723     609.6211     368.4518
   1418.64197     610.1742     369.0453   1418.64197     610.1742     369.0453
   1418.62671     610.5966     369.6367   1418.62671     610.5966     369.6367
   1418.61145     610.7090     369.7583   1418.61145     610.7090     369.7583
   1418.59619     612.8233     370.1917   1418.59619     612.8233     370.1917
   1418.58093     613.0051     370.0690   1418.58093     613.0051     370.0690
   1418.56567     613.8344     370.8056   1418.56567     613.8344     370.8056
   1418.55042     613.8969     371.6511   1418.55042     613.8969     371.6511
   1418.53516     614.7456     371.4498   1418.53516     614.7456     371.4498
   1418.51990     615.3789     371.3775   1418.51990     615.3789     371.3775
   1418.50464     615.5336     372.3404   1418.50464     615.5336     372.3404
   1418.48938     616.1391     372.4142   1418.48938     616.1391     372.4142
   1418.47412     616.8165     373.3044   1418.47412     616.8165     373.3044
   1418.45886     616.4685     373.6506   1418.45886     616.4685     373.6506
   1418.44360     617.3497     373.5621   1418.44360     617.3497     373.5621
   1418.42834     619.0020     373.7850   1418.42834     619.0020     373.7850
   1418.41309     619.3404     374.4382   1418.41309     619.3404     374.4382
   1418.39783     620.0709     374.7215   1418.39783     620.0709     374.7215
   1418.38257     621.1608     374.8734   1418.38257     621.1608     374.8734
   1418.36731     621.4181     375.7288   1418.36731     621.4181     375.7288
   1418.35205     622.7135     376.4644   1418.35205     622.7135     376.4644
   1418.33679     622.7909     376.4111   1418.33679     622.7909     376.4111
   1418.32153     622.8286     377.1127   1418.32153     622.8286     377.1127
   1418.30627     624.7344     377.1177   1418.30627     624.7344     377.1177
   1418.29102     624.0190     378.1453   1418.29102     624.0190     378.1453
   1418.27576     625.3557     377.9964   1418.27576     625.3557     377.9964
   1418.26050     626.0433     378.5648   1418.26050     626.0433     378.5648
   1418.24524     626.5708     379.2012   1418.24524     626.5708     379.2012
   1418.22998     627.0355     379.7869   1418.22998     627.0355     379.7869
   1418.21472     627.7169     380.0052   1418.21472     627.7169     380.0052
   1418.19946     629.1152     380.8218   1418.19946     629.1152     380.8218
   1418.18420     629.8550     381.2577   1418.18420     629.8550     381.2577
   1418.16895     630.3036     381.9230   1418.16895     630.3036     381.9230
   1418.15369     629.5084     382.1381   1418.15369     629.5084     382.1381
   1418.13843     631.5163     382.5340   1418.13843     631.5163     382.5340
   1418.12317     632.6702     383.2132   1418.12317     632.6702     383.2132
   1418.10791     633.6252     383.1573   1418.10791     633.6252     383.1573
   1418.09265     632.7039     383.3178   1418.09265     632.7039     383.3178
   1418.07739     634.4632     384.3750   1418.07739     634.4632     384.3750
   1418.06213     635.2379     385.5673   1418.06213     635.2379     385.5673
   1418.04688     635.3695     385.2145   1418.04688     635.3695     385.2145
   1418.03162     636.4519     386.0517   1418.03162     636.4519     386.0517
   1418.01636     637.7014     386.7100   1418.01636     637.7014     386.7100
   1418.00110     639.2698     387.1472   1418.00110     639.2698     387.1472
   1417.98584     638.8498     387.4016   1417.98584     638.8498     387.4016
   1417.97058     639.8290     388.2726   1417.97058     639.8290     388.2726
   1417.95532     640.3418     388.4840   1417.95532     640.3418     388.4840
   1417.94006     642.2844     389.3295   1417.94006     642.2844     389.3295
   1417.92480     642.2429     389.9138   1417.92480     642.2429     389.9138
   1417.90955     642.8801     390.6062   1417.90955     642.8801     390.6062
   1417.89429     644.0789     390.1473   1417.89429     644.0789     390.1473
   1417.87903     645.0862     390.6945   1417.87903     645.0862     390.6945
   1417.86377     644.6727     391.4490   1417.86377     644.6727     391.4490
   1417.84851     646.8344     392.2496   1417.84851     646.8344     392.2496
   1417.83325     647.3606     393.0123   1417.83325     647.3606     393.0123
   1417.81799     648.0547     394.1595   1417.81799     648.0547     394.1595
   1417.80273     648.7602     393.6103   1417.80273     648.7602     393.6103
   1417.78748     649.7514     393.8803   1417.78748     649.7514     393.8803
   1417.77222     650.4139     395.4661   1417.77222     650.4139     395.4661
   1417.75696     651.7846     395.7557   1417.75696     651.7846     395.7557
   1417.74170     650.7755     395.9134   1417.74170     650.7755     395.9134
   1417.72644     652.3207     396.6696   1417.72644     652.3207     396.6696
   1417.71118     653.6389     397.1062   1417.71118     653.6389     397.1062
   1417.69592     653.8708     398.3044   1417.69592     653.8708     398.3044
   1417.68066     655.1200     398.1370   1417.68066     655.1200     398.1370
   1417.66541     654.8529     398.8669   1417.66541     654.8529     398.8669
   1417.65015     656.3224     400.3292   1417.65015     656.3224     400.3292
   1417.63489     657.7101     400.8774   1417.63489     657.7101     400.8774
   1417.61963     658.6561     401.1836   1417.61963     658.6561     401.1836
   1417.60437     659.3726     401.7809   1417.60437     659.3726     401.7809
   1417.58911     660.1619     402.0533   1417.58911     660.1619     402.0533
   1417.57385     660.6537     402.7694   1417.57385     660.6537     402.7694
   1417.55859     661.1156     403.2745   1417.55859     661.1156     403.2745
   1417.54333     663.0203     403.8936   1417.54333     663.0203     403.8936
   1417.52808     663.1888     404.4729   1417.52808     663.1888     404.4729
   1417.51282     663.1074     404.9566   1417.51282     663.1074     404.9566
   1417.49756     665.1854     405.3991   1417.49756     665.1854     405.3991
   1417.48230     665.0810     406.1958   1417.48230     665.0810     406.1958
   1417.46704     667.3443     407.5662   1417.46704     667.3443     407.5662
   1417.45178     666.3548     407.2238   1417.45178     666.3548     407.2238
   1417.43652     667.5349     407.6815   1417.43652     667.5349     407.6815
   1417.42126     668.7956     407.8663   1417.42126     668.7956     407.8663
   1417.40601     669.0789     408.8350   1417.40601     669.0789     408.8350
   1417.39075     670.5051     410.0231   1417.39075     670.5051     410.0231
   1417.37549     670.2485     409.9680   1417.37549     670.2485     409.9680
   1417.36023     671.2496     410.4841   1417.36023     671.2496     410.4841
   1417.34497     672.5902     410.8042   1417.34497     672.5902     410.8042
   1417.32971     673.2010     411.2811   1417.32971     673.2010     411.2811
   1417.31445     673.5638     412.1105   1417.31445     673.5638     412.1105
   1417.29919     674.9904     412.6178   1417.29919     674.9904     412.6178
   1417.28394     675.7278     413.8624   1417.28394     675.7278     413.8624
   1417.26868     676.2374     414.1816   1417.26868     676.2374     414.1816
   1417.25342     676.8237     414.7305   1417.25342     676.8237     414.7305
   1417.23816     677.1583     414.3203   1417.23816     677.1583     414.3203
   1417.22290     678.7036     415.4177   1417.22290     678.7036     415.4177
   1417.20764     679.3692     416.4789   1417.20764     679.3692     416.4789
   1417.19238     680.5816     417.2802   1417.19238     680.5816     417.2802
   1417.17712     680.7623     416.6984   1417.17712     680.7623     416.6984
   1417.16187     681.8424     417.9368   1417.16187     681.8424     417.9368
   1417.14661     682.4335     418.1498   1417.14661     682.4335     418.1498
   1417.13135     682.3418     419.2586   1417.13135     682.3418     419.2586
   1417.11609     684.0453     419.6618   1417.11609     684.0453     419.6618
   1417.10083     683.6451     420.6220   1417.10083     683.6451     420.6220
   1417.08557     684.2396     420.4652   1417.08557     684.2396     420.4652
   1417.07031     686.2014     421.0758   1417.07031     686.2014     421.0758
   1417.05505     685.6269     421.1193   1417.05505     685.6269     421.1193
   1417.03979     687.2418     421.9631   1417.03979     687.2418     421.9631
   1417.02454     687.2559     422.3467   1417.02454     687.2559     422.3467
   1417.00928     688.5139     423.1501   1417.00928     688.5139     423.1501
   1416.99402     687.6805     422.8701   1416.99402     687.6805     422.8701
   1416.97876     689.4667     423.8799   1416.97876     689.4667     423.8799
   1416.96350     690.2468     424.5177   1416.96350     690.2468     424.5177
   1416.94824     690.6162     424.8082   1416.94824     690.6162     424.8082
   1416.93298     690.7856     424.7183   1416.93298     690.7856     424.7183
   1416.91772     691.8134     425.8571   1416.91772     691.8134     425.8571
   1416.90247     690.9440     425.3520   1416.90247     690.9440     425.3520
   1416.88721     693.1030     426.1115   1416.88721     693.1030     426.1115
   1416.87195     693.1367     426.6311   1416.87195     693.1367     426.6311
   1416.85669     693.4956     427.9518   1416.85669     693.4956     427.9518
   1416.84143     693.5242     427.3450   1416.84143     693.5242     427.3450
   1416.82617     694.4741     427.9791   1416.82617     694.4741     427.9791
   1416.81091     694.8832     428.4875   1416.81091     694.8832     428.4875
   1416.79565     694.8416     428.2517   1416.79565     694.8416     428.2517
   1416.78040     696.5688     428.3687   1416.78040     696.5688     428.3687
   1416.76514     696.6835     429.2956   1416.76514     696.6835     429.2956
   1416.74988     696.9009     428.9667   1416.74988     696.9009     428.9667
   1416.73462     696.0989     429.5041   1416.73462     696.0989     429.5041
   1416.71936     696.2406     429.9090   1416.71936     696.2406     429.9090
   1416.70410     697.0041     429.9867   1416.70410     697.0041     429.9867
   1416.68884     698.3780     431.0053   1416.68884     698.3780     431.0053
   1416.67358     699.0765     431.2283   1416.67358     699.0765     431.2283
   1416.65833     698.4639     431.6862   1416.65833     698.4639     431.6862
   1416.64307     697.6296     430.8486   1416.64307     697.6296     430.8486
   1416.62781     699.0547     431.6192   1416.62781     699.0547     431.6192
   1416.61255     699.4469     431.7392   1416.61255     699.4469     431.7392
   1416.59729     699.7869     432.2781   1416.59729     699.7869     432.2781
   1416.58203     699.8454     432.9919   1416.58203     699.8454     432.9919
   1416.56677     699.8846     431.9262   1416.56677     699.8846     431.9262
   1416.55151     699.7437     433.0464   1416.55151     699.7437     433.0464
   1416.53625     699.8465     432.4716   1416.53625     699.8465     432.4716
   1416.52100     700.4423     433.1671   1416.52100     700.4423     433.1671
   1416.50574     700.5109     432.8978   1416.50574     700.5109     432.8978
   1416.49048     701.0696     433.3239   1416.49048     701.0696     433.3239
   1416.47522     701.6257     433.0928   1416.47522     701.6257     433.0928
   1416.45996     700.6287     433.7639   1416.45996     700.6287     433.7639
   1416.44470     699.9022     433.8239   1416.44470     699.9022     433.8239
   1416.42944     700.9427     433.2966   1416.42944     700.9427     433.2966
   1416.41418     700.5736     433.0935   1416.41418     700.5736     433.0935
   1416.39893     700.9746     433.8293   1416.39893     700.9746     433.8293
   1416.38367     701.1478     433.6031   1416.38367     701.1478     433.6031
   1416.36841     701.0712     433.9552   1416.36841     701.0712     433.9552
   1416.35315     699.9174     433.7144   1416.35315     699.9174     433.7144
   1416.33789     701.7460     433.9493   1416.33789     701.7460     433.9493
   1416.32263     700.2137     433.7794   1416.32263     700.2137     433.7794
   1416.30737     700.2990     433.7604   1416.30737     700.2990     433.7604
   1416.29211     700.8792     434.1137   1416.29211     700.8792     434.1137
   1416.27686     700.1132     433.6081   1416.27686     700.1132     433.6081
   1416.26160     700.0692     434.0995   1416.26160     700.0692     434.0995
   1416.24634     699.4284     433.6216   1416.24634     699.4284     433.6216
   1416.23108     699.6968     434.2309   1416.23108     699.6968     434.2309
   1416.21582     699.5489     433.1720   1416.21582     699.5489     433.1720
   1416.20056     698.6230     433.9872   1416.20056     698.6230     433.9872
   1416.18530     698.1543     432.5474   1416.18530     698.1543     432.5474
   1416.17004     698.6665     433.8004   1416.17004     698.6665     433.8004
   1416.15479     698.9222     433.0367   1416.15479     698.9222     433.0367
   1416.13953     698.1626     433.6389   1416.13953     698.1626     433.6389
   1416.12427     698.1570     433.4530   1416.12427     698.1570     433.4530
   1416.10901     696.5391     433.2717   1416.10901     696.5391     433.2717
   1416.09375     697.4836     433.4984   1416.09375     697.4836     433.4984
   1416.07849     697.7643     433.0285   1416.07849     697.7643     433.0285
   1416.06323     696.8734     432.8152   1416.06323     696.8734     432.8152
   1416.04797     696.2731     432.9030   1416.04797     696.2731     432.9030
   1416.03271     695.4645     432.6019   1416.03271     695.4645     432.6019
   1416.01746     695.2585     432.0884   1416.01746     695.2585     432.0884
   1416.00220     694.6756     432.3380   1416.00220     694.6756     432.3380
   1415.98694     693.4568     432.4569   1415.98694     693.4568     432.4569
   1415.97168     694.0349     432.5586   1415.97168     694.0349     432.5586
   1415.95642     692.6554     432.1511   1415.95642     692.6554     432.1511
   1415.94116     692.2308     431.3184   1415.94116     692.2308     431.3184
   1415.92590     691.3014     431.2215   1415.92590     691.3014     431.2215
   1415.91064     690.6696     430.8331   1415.91064     690.6696     430.8331
   1415.89539     690.3019     431.6791   1415.89539     690.3019     431.6791
   1415.88013     690.5714     430.6171   1415.88013     690.5714     430.6171
   1415.86487     690.0720     430.8148   1415.86487     690.0720     430.8148
   1415.84961     689.4678     430.6898   1415.84961     689.4678     430.6898
   1415.83435     689.3328     431.4482   1415.83435     689.3328     431.4482
   1415.81909     688.7477     429.7472   1415.81909     688.7477     429.7472
   1415.80383     688.5646     429.5328   1415.80383     688.5646     429.5328
   1415.78857     687.4193     429.0525   1415.78857     687.4193     429.0525
   1415.77332     686.3836     429.4211   1415.77332     686.3836     429.4211
   1415.75806     685.4517     429.8082   1415.75806     685.4517     429.8082
   1415.74280     685.8266     429.0868   1415.74280     685.8266     429.0868
   1415.72754     685.0426     428.6609   1415.72754     685.0426     428.6609
   1415.71228     683.8293     428.3685   1415.71228     683.8293     428.3685
   1415.69702     683.9921     428.6978   1415.69702     683.9921     428.6978
   1415.68176     683.1033     428.3959   1415.68176     683.1033     428.3959
   1415.66650     681.6735     428.4499   1415.66650     681.6735     428.4499
   1415.65125     681.2135     427.3978   1415.65125     681.2135     427.3978
   1415.63599     680.3566     427.6327   1415.63599     680.3566     427.6327
   1415.62073     680.3734     426.9131   1415.62073     680.3734     426.9131
   1415.60547     679.9559     426.8124   1415.60547     679.9559     426.8124
   1415.59021     678.4823     426.5445   1415.59021     678.4823     426.5445
   1415.57495     678.7185     426.4019   1415.57495     678.7185     426.4019
   1415.55969     677.3897     426.1104   1415.55969     677.3897     426.1104
   1415.54443     676.2363     425.9998   1415.54443     676.2363     425.9998
   1415.52917     675.4470     426.3388   1415.52917     675.4470     426.3388
   1415.51392     674.3486     425.3752   1415.51392     674.3486     425.3752
   1415.49866     674.4081     425.2804   1415.49866     674.4081     425.2804
   1415.48340     673.3511     425.0429   1415.48340     673.3511     425.0429
   1415.46814     671.2162     424.4588   1415.46814     671.2162     424.4588
   1415.45288     670.9402     423.5124   1415.45288     670.9402     423.5124
   1415.43762     670.3322     423.9800   1415.43762     670.3322     423.9800
   1415.42236     669.3072     423.1571   1415.42236     669.3072     423.1571
   1415.40710     668.5637     423.3271   1415.40710     668.5637     423.3271
   1415.39185     667.4059     423.8463   1415.39185     667.4059     423.8463
   1415.37659     666.2504     422.8508   1415.37659     666.2504     422.8508
   1415.36133     665.8266     421.9733   1415.36133     665.8266     421.9733
   1415.34607     665.4140     422.0139   1415.34607     665.4140     422.0139
   1415.33081     664.7602     421.7597   1415.33081     664.7602     421.7597
   1415.31555     662.4927     420.7046   1415.31555     662.4927     420.7046
   1415.30029     662.2106     420.7100   1415.30029     662.2106     420.7100
   1415.28503     661.2255     419.7227   1415.28503     661.2255     419.7227
   1415.26978     659.9077     420.1586   1415.26978     659.9077     420.1586
   1415.25452     658.0457     419.6916   1415.25452     658.0457     419.6916
   1415.23926     656.6114     418.8707   1415.23926     656.6114     418.8707
   1415.22400     656.5073     418.9345   1415.22400     656.5073     418.9345
   1415.20874     655.6038     418.7168   1415.20874     655.6038     418.7168
   1415.19348     653.7751     417.8540   1415.19348     653.7751     417.8540
   1415.17822     652.3611     417.5994   1415.17822     652.3611     417.5994
   1415.16296     651.2962     417.1427   1415.16296     651.2962     417.1427
   1415.14771     649.7766     416.9805   1415.14771     649.7766     416.9805
   1415.13245     648.4992     416.2318   1415.13245     648.4992     416.2318
   1415.11719     648.0410     416.0345   1415.11719     648.0410     416.0345
   1415.10193     645.6136     415.6339   1415.10193     645.6136     415.6339
   1415.08667     644.3958     415.7195   1415.08667     644.3958     415.7195
   1415.07141     643.0207     414.3117   1415.07141     643.0207     414.3117
   1415.05615     641.7980     413.6972   1415.05615     641.7980     413.6972
   1415.04089     640.6640     413.2396   1415.04089     640.6640     413.2396
   1415.02563     640.3754     413.1503   1415.02563     640.3754     413.1503
   1415.01038     638.8430     412.2437   1415.01038     638.8430     412.2437
   1414.99512     636.2996     412.7043   1414.99512     636.2996     412.7043
   1414.97986     635.0342     410.7303   1414.97986     635.0342     410.7303
   1414.96460     633.9209     410.5513   1414.96460     633.9209     410.5513
   1414.94934     632.5919     409.8222   1414.94934     632.5919     409.8222
   1414.93408     630.6184     409.6835   1414.93408     630.6184     409.6835
   1414.91882     629.3798     409.3045   1414.91882     629.3798     409.3045
   1414.90356     627.4573     408.3026   1414.90356     627.4573     408.3026
   1414.88831     625.7916     408.0585   1414.88831     625.7916     408.0585
   1414.87305     625.0288     408.0505   1414.87305     625.0288     408.0505
   1414.85779     623.1370     407.1500   1414.85779     623.1370     407.1500
   1414.84253     621.2089     406.5721   1414.84253     621.2089     406.5721
   1414.82727     620.0488     405.5300   1414.82727     620.0488     405.5300
   1414.81201     618.2656     405.4961   1414.81201     618.2656     405.4961
   1414.79675     616.4372     404.0876   1414.79675     616.4372     404.0876
   1414.78149     614.4874     403.3581   1414.78149     614.4874     403.3581
   1414.76624     613.0000     403.3113   1414.76624     613.0000     403.3113
   1414.75098     611.5888     402.2664   1414.75098     611.5888     402.2664
   1414.73572     608.9061     401.4849   1414.73572     608.9061     401.4849
   1414.72046     608.1989     400.7246   1414.72046     608.1989     400.7246
   1414.70520     606.1132     400.7518   1414.70520     606.1132     400.7518
   1414.68994     604.7361     398.7337   1414.68994     604.7361     398.7337
   1414.67468     603.2430     398.3977   1414.67468     603.2430     398.3977
   1414.65942     600.3066     398.0970   1414.65942     600.3066     398.0970
   1414.64417     598.5220     396.9887   1414.64417     598.5220     396.9887
   1414.62891     597.5264     396.8516   1414.62891     597.5264     396.8516
   1414.61365     593.8292     395.6496   1414.61365     593.8292     395.6496
   1414.59839     593.0054     395.3483   1414.59839     593.0054     395.3483
   1414.58313     590.9260     394.3689   1414.58313     590.9260     394.3689
   1414.56787     587.9842     393.3684   1414.56787     587.9842     393.3684
   1414.55261     585.5441     392.5014   1414.55261     585.5441     392.5014
   1414.53735     584.8440     392.0032   1414.53735     584.8440     392.0032
   1414.52209     582.9798     390.7955   1414.52209     582.9798     390.7955
   1414.50684     580.5872     389.5694   1414.50684     580.5872     389.5694
   1414.49158     578.4050     389.2763   1414.49158     578.4050     389.2763
   1414.47632     576.6894     388.3786   1414.47632     576.6894     388.3786
   1414.46106     573.3642     387.5636   1414.46106     573.3642     387.5636
   1414.44580     571.8233     386.4128   1414.44580     571.8233     386.4128
   1414.43054     569.4575     385.5263   1414.43054     569.4575     385.5263
   1414.41528     567.7608     384.7939   1414.41528     567.7608     384.7939
   1414.40002     564.5864     383.5874   1414.40002     564.5864     383.5874
   1414.38477     563.3329     382.2838   1414.38477     563.3329     382.2838
   1414.36951     561.0066     381.7717   1414.36951     561.0066     381.7717
   1414.35425     558.8603     380.6972   1414.35425     558.8603     380.6972
   1414.33899     556.6713     379.5724   1414.33899     556.6713     379.5724
   1414.32373     553.2339     379.2670   1414.32373     553.2339     379.2670
   1414.30847     552.1378     377.5650   1414.30847     552.1378     377.5650
   1414.29321     549.7475     377.0780   1414.29321     549.7475     377.0780
   1414.27795     546.8701     375.3243   1414.27795     546.8701     375.3243
   1414.26270     545.4180     374.6506   1414.26270     545.4180     374.6506
   1414.24744     542.1340     373.5463   1414.24744     542.1340     373.5463
   1414.23218     540.1454     372.3889   1414.23218     540.1454     372.3889
   1414.21692     537.1801     371.9441   1414.21692     537.1801     371.9441
   1414.20166     535.0417     370.6825   1414.20166     535.0417     370.6825
   1414.18640     533.0849     369.2379   1414.18640     533.0849     369.2379
   1414.17114     531.0110     368.1824   1414.17114     531.0110     368.1824
   1414.15588     527.9948     367.8658   1414.15588     527.9948     367.8658
   1414.14062     525.3561     366.0483   1414.14062     525.3561     366.0483
   1414.12537     522.7830     365.0636   1414.12537     522.7830     365.0636
   1414.11011     520.9664     363.6490   1414.11011     520.9664     363.6490
   1414.09485     518.4048     362.3252   1414.09485     518.4048     362.3252
   1414.07959     514.8101     361.4672   1414.07959     514.8101     361.4672
   1414.06433     512.4031     359.9640   1414.06433     512.4031     359.9640
   1414.04907     510.4613     358.9828   1414.04907     510.4613     358.9828
   1414.03381     508.5588     357.5375   1414.03381     508.5588     357.5375
   1414.01855     505.4182     356.6971   1414.01855     505.4182     356.6971
   1414.00330     528.9750     364.9323   1414.00330     528.9750     364.9323
   1413.98804     501.2529     354.2770   1413.98804     501.2529     354.2770
   1413.97278     497.1512     352.2710   1413.97278     497.1512     352.2710
   1413.95752     495.3148     351.6641   1413.95752     495.3148     351.6641
   1413.94226     492.9405     350.5922   1413.94226     492.9405     350.5922
   1413.92700     489.6649     348.5455   1413.92700     489.6649     348.5455
   1413.91174     486.9035     348.1295   1413.91174     486.9035     348.1295
   1413.89648     483.6429     346.8337   1413.89648     483.6429     346.8337
   1413.88123     481.9157     345.3357   1413.88123     481.9157     345.3357
   1413.86597     478.7975     343.5963   1413.86597     478.7975     343.5963
   1413.85071     476.3901     342.5815   1413.85071     476.3901     342.5815
   1413.83545     474.4787     341.4357   1413.83545     474.4787     341.4357
   1413.82019     470.8475     339.8448   1413.82019     470.8475     339.8448
   1413.80493     468.8165     338.5696   1413.80493     468.8165     338.5696
   1413.78967     465.3132     337.2346   1413.78967     465.3132     337.2346
   1413.77441     463.6300     335.9405   1413.77441     463.6300     335.9405
   1413.75916     460.4038     334.8047   1413.75916     460.4038     334.8047
   1413.74390     457.4462     333.6116   1413.74390     457.4462     333.6116
   1413.72864     455.2805     331.4514   1413.72864     455.2805     331.4514
   1413.71338     452.2146     330.7554   1413.71338     452.2146     330.7554
   1413.69812     450.1220     329.3436   1413.69812     450.1220     329.3436
   1413.68286     446.8228     328.0391   1413.68286     446.8228     328.0391
   1413.66760     444.2856     326.5891   1413.66760     444.2856     326.5891
   1413.65234     442.3397     325.1513   1413.65234     442.3397     325.1513
   1413.63708     439.3655     324.1956   1413.63708     439.3655     324.1956
   1413.62183     436.3528     322.4328   1413.62183     436.3528     322.4328
   1413.60657     433.9828     320.7705   1413.60657     433.9828     320.7705
   1413.59131     431.3354     319.8672   1413.59131     431.3354     319.8672
   1413.57605     428.5950     318.0218   1413.57605     428.5950     318.0218
   1413.56079     425.5620     317.0074   1413.56079     425.5620     317.0074
   1413.54553     423.3781     314.8062   1413.54553     423.3781     314.8062
   1413.53027     421.2881     313.7267   1413.53027     421.2881     313.7267
   1413.51501     418.0432     312.7841   1413.51501     418.0432     312.7841
   1413.49976     416.0298     311.4617   1413.49976     416.0298     311.4617
   1413.48450     413.4017     309.6624   1413.48450     413.4017     309.6624
   1413.46924     410.7550     308.4191   1413.46924     410.7550     308.4191
   1413.45398     407.5327     307.1968   1413.45398     407.5327     307.1968
   1413.43872     405.7568     306.1367   1413.43872     405.7568     306.1367
   1413.42346     403.7051     304.1746   1413.42346     403.7051     304.1746
   1413.40820     400.6427     302.9145   1413.40820     400.6427     302.9145
   1413.39294     397.8812     301.3377   1413.39294     397.8812     301.3377
   1413.37769     395.3289     301.0015   1413.37769     395.3289     301.0015
   1413.36243     393.3650     298.7813   1413.36243     393.3650     298.7813
   1413.34717     390.6671     297.2195   1413.34717     390.6671     297.2195
   1413.33191     388.2133     296.3922   1413.33191     388.2133     296.3922
   1413.31665     385.9992     295.1122   1413.31665     385.9992     295.1122
   1413.30139     383.8909     293.4873   1413.30139     383.8909     293.4873
   1413.28613     381.0938     292.0654   1413.28613     381.0938     292.0654
   1413.27087     378.8484     291.0491   1413.27087     378.8484     291.0491
   1413.25562     376.1178     289.3802   1413.25562     376.1178     289.3802
   1413.24036     375.0921     288.3272   1413.24036     375.0921     288.3272
   1413.22510     372.0624     287.2384   1413.22510     372.0624     287.2384
   1413.20984     369.1174     286.0132   1413.20984     369.1174     286.0132
   1413.19458     367.3156     284.5145   1413.19458     367.3156     284.5145
   1413.17932     365.8951     282.2955   1413.17932     365.8951     282.2955
   1413.16406     363.3131     281.8341   1413.16406     363.3131     281.8341
   1413.14880     361.5139     281.1426   1413.14880     361.5139     281.1426
   1413.13354     359.0270     279.6145   1413.13354     359.0270     279.6145
   1413.11829     357.2010     278.6966   1413.11829     357.2010     278.6966
   1413.10303     354.9299     276.9750   1413.10303     354.9299     276.9750
   1413.08777     352.7818     276.2636   1413.08777     352.7818     276.2636
   1413.07251     351.2824     274.7463   1413.07251     351.2824     274.7463
   1413.05725     349.2227     273.7075   1413.05725     349.2227     273.7075
   1413.04199     347.4430     272.2521   1413.04199     347.4430     272.2521
   1413.02673     345.4532     271.4821   1413.02673     345.4532     271.4821
   1413.01147     343.2781     270.1175   1413.01147     343.2781     270.1175
   1412.99622     341.5251     269.1550   1412.99622     341.5251     269.1550
   1412.98096     339.6627     268.0204   1412.98096     339.6627     268.0204
   1412.96570     338.0494     267.1732   1412.96570     338.0494     267.1732
   1412.95044     336.2340     266.2829   1412.95044     336.2340     266.2829
   1412.93518     334.1795     264.8290   1412.93518     334.1795     264.8290
   1412.91992     332.7785     263.8549   1412.91992     332.7785     263.8549
   1412.90466     331.5066     263.0915   1412.90466     331.5066     263.0915
   1412.88940     329.3387     262.0176   1412.88940     329.3387     262.0176
   1412.87415     327.7159     261.2587   1412.87415     327.7159     261.2587
   1412.85889     326.3452     260.0050   1412.85889     326.3452     260.0050
   1412.84363     324.8259     258.9338   1412.84363     324.8259     258.9338
   1412.82837     323.9547     258.1945   1412.82837     323.9547     258.1945
   1412.81311     322.2448     257.6584   1412.81311     322.2448     257.6584
   1412.79785     321.1469     257.1259   1412.79785     321.1469     257.1259
   1412.78259     319.8129     255.7346   1412.78259     319.8129     255.7346
   1412.76733     318.2179     255.2824   1412.76733     318.2179     255.2824
   1412.75208     316.7004     254.5117   1412.75208     316.7004     254.5117
   1412.73682     316.1006     253.8638   1412.73682     316.1006     253.8638
   1412.72156     315.1492     252.7713   1412.72156     315.1492     252.7713
   1412.70630     314.2087     252.1845   1412.70630     314.2087     252.1845
   1412.69104     313.0420     251.5718   1412.69104     313.0420     251.5718
   1412.67578     311.5875     251.2281   1412.67578     311.5875     251.2281
   1412.66052     310.8898     250.0031   1412.66052     310.8898     250.0031
   1412.64526     309.8376     249.4623   1412.64526     309.8376     249.4623
   1412.63000     309.2361     249.3813   1412.63000     309.2361     249.3813
   1412.61475     308.2787     248.6189   1412.61475     308.2787     248.6189
   1412.59949     307.1377     248.1853   1412.59949     307.1377     248.1853
   1412.58423     306.5898     248.1230   1412.58423     306.5898     248.1230
   1412.56897     305.7351     247.5887   1412.56897     305.7351     247.5887
   1412.55371     304.9846     246.9754   1412.55371     304.9846     246.9754
   1412.53845     304.6491     246.7395   1412.53845     304.6491     246.7395
   1412.52319     304.4162     246.9698   1412.52319     304.4162     246.9698
   1412.50793     303.1897     246.4710   1412.50793     303.1897     246.4710
   1412.49268     303.3470     246.1769   1412.49268     303.3470     246.1769
   1412.47742     302.6947     246.2079   1412.47742     302.6947     246.2079
   1412.46216     302.1371     245.6230   1412.46216     302.1371     245.6230
   1412.44690     302.3986     245.8430   1412.44690     302.3986     245.8430
   1412.43164     301.3000     245.7589   1412.43164     301.3000     245.7589
   1412.41638     301.0735     245.2326   1412.41638     301.0735     245.2326
   1412.40112     300.7612     245.4123   1412.40112     300.7612     245.4123
   1412.38586     300.6554     245.4347   1412.38586     300.6554     245.4347
   1412.37061     300.8101     245.3993   1412.37061     300.8101     245.3993
   1412.35535     300.2061     245.5555   1412.35535     300.2061     245.5555
   1412.34009     300.6288     245.1749   1412.34009     300.6288     245.1749
   1412.32483     300.9452     246.1882   1412.32483     300.9452     246.1882
   1412.30957     300.8875     245.8843   1412.30957     300.8875     245.8843
   1412.29431     301.0325     245.9768   1412.29431     301.0325     245.9768
   1412.27905     301.2225     246.2237   1412.27905     301.2225     246.2237
   1412.26379     301.3545     246.5970   1412.26379     301.3545     246.5970
   1412.24854     301.4196     247.2635   1412.24854     301.4196     247.2635
   1412.23328     302.0732     247.7767   1412.23328     302.0732     247.7767
   1412.21802     302.5421     247.4761   1412.21802     302.5421     247.4761
   1412.20276     303.1557     248.3172   1412.20276     303.1557     248.3172